Notes :


2023-11-26 ¿ÀÀü 12:16:21
Volts
Ch : LED 2,Ch : LED 3,
188.640404E-3,318.725967E-3
188.643837E-3,318.780327E-3
189.034081E-3,319.156837E-3
188.873863E-3,319.316483E-3
188.957405E-3,319.616318E-3
189.103889E-3,319.733047E-3
189.107323E-3,319.602585E-3
189.426613E-3,319.743347E-3
189.214325E-3,319.515610E-3
188.957405E-3,319.218636E-3
188.310242E-3,318.168068E-3
186.962128E-3,316.102409E-3
185.707855E-3,313.640213E-3
183.988953E-3,310.435867E-3
182.418251E-3,307.107353E-3
181.057549E-3,304.044914E-3
179.903412E-3,301.395035E-3
179.589844E-3,299.941635E-3
179.205894E-3,298.738289E-3
179.296303E-3,298.655891E-3
179.501152E-3,299.158859E-3
179.762650E-3,300.069237E-3
180.673599E-3,301.807594E-3
181.142235E-3,303.200912E-3
181.871223E-3,304.781342E-3
182.415962E-3,306.333160E-3
182.694626E-3,307.262421E-3
183.366966E-3,308.333015E-3
183.433914E-3,308.686066E-3
183.570671E-3,308.959579E-3
183.544922E-3,308.980751E-3
183.260536E-3,308.894920E-3
183.478546E-3,308.952141E-3
183.440208E-3,308.781624E-3
183.589554E-3,308.897781E-3
183.857346E-3,309.200478E-3
184.012985E-3,309.621620E-3
184.418106E-3,310.349464E-3
184.327126E-3,310.515976E-3
184.307098E-3,310.643005E-3
184.129715E-3,310.190964E-3
183.757782E-3,309.692001E-3
183.769226E-3,309.451675E-3
183.498573E-3,308.760452E-3
183.263969E-3,308.385658E-3
183.055687E-3,308.027458E-3
182.928085E-3,307.599449E-3
183.164978E-3,307.903862E-3
182.997894E-3,307.872391E-3
183.176422E-3,308.232307E-3
183.394432E-3,308.667755E-3
183.553505E-3,309.128952E-3
184.095383E-3,309.983826E-3
184.210968E-3,310.676765E-3
184.647560E-3,311.352539E-3
184.963417E-3,312.037468E-3
184.989166E-3,312.492943E-3
185.679245E-3,313.176727E-3
185.822296E-3,313.504028E-3
186.185074E-3,314.236450E-3
186.381912E-3,314.622116E-3
186.432838E-3,314.689636E-3
186.789894E-3,315.073013E-3
186.831665E-3,315.103340E-3
187.011909E-3,315.204048E-3
186.908340E-3,315.276718E-3
186.813354E-3,315.197754E-3
187.132645E-3,315.649796E-3
187.045670E-3,315.569687E-3
187.134361E-3,315.496445E-3
187.113762E-3,315.438652E-3
186.912918E-3,315.246391E-3
187.189293E-3,315.478134E-3
187.036514E-3,315.404892E-3
187.342644E-3,315.561676E-3
187.207603E-3,315.618324E-3
187.094879E-3,315.686417E-3
187.334061E-3,315.832901E-3
187.255096E-3,315.771103E-3
187.348366E-3,315.909004E-3
187.427902E-3,316.084671E-3
187.290573E-3,316.187668E-3
187.644768E-3,316.513252E-3
187.551498E-3,316.506958E-3
187.760925E-3,316.794205E-3
187.851906E-3,317.043114E-3
187.883377E-3,317.144394E-3
188.203239E-3,317.488861E-3
188.086510E-3,317.607880E-3
188.235283E-3,317.770958E-3
188.424110E-3,317.978668E-3
188.302231E-3,318.000984E-3
188.499069E-3,318.336296E-3
188.376045E-3,318.292809E-3
188.481331E-3,318.545151E-3
188.661575E-3,318.743134E-3
188.621521E-3,318.647575E-3
188.980865E-3,319.005203E-3
188.948250E-3,318.992043E-3
189.123344E-3,319.392586E-3
189.300156E-3,319.670105E-3
189.332199E-3,319.741058E-3
189.543915E-3,320.118141E-3
189.507294E-3,320.179367E-3
189.656639E-3,320.419693E-3
189.758492E-3,320.536995E-3
189.631462E-3,320.536995E-3
189.678955E-3,320.431709E-3
189.102173E-3,319.674110E-3
188.447571E-3,318.474197E-3
187.255096E-3,316.504669E-3
185.573959E-3,313.542938E-3
184.018707E-3,310.519409E-3
182.173920E-3,306.967735E-3
180.845261E-3,303.908157E-3
179.883385E-3,301.482010E-3
179.124641E-3,299.453545E-3
178.902626E-3,298.429298E-3
178.891754E-3,298.119164E-3
179.097176E-3,298.681068E-3
179.472542E-3,299.795151E-3
179.852486E-3,300.977898E-3
180.622101E-3,302.682495E-3
181.081581E-3,303.953934E-3
181.805992E-3,305.390167E-3
182.302666E-3,306.622696E-3
182.479477E-3,307.221794E-3
182.911491E-3,307.969093E-3
182.799911E-3,308.119583E-3
182.807922E-3,308.152771E-3
182.847404E-3,308.150482E-3
182.637978E-3,307.641220E-3
182.812500E-3,307.647514E-3
182.706070E-3,307.440376E-3
182.945824E-3,307.847214E-3
183.214188E-3,308.488655E-3
183.314896E-3,308.925819E-3
183.701706E-3,309.732056E-3
183.588409E-3,309.663963E-3
183.607292E-3,309.854507E-3
183.555222E-3,309.681129E-3
183.259964E-3,309.094048E-3
183.337784E-3,308.839417E-3
182.879448E-3,308.247757E-3
182.746696E-3,307.791138E-3
182.700348E-3,307.588005E-3
182.488060E-3,307.406044E-3
182.777596E-3,307.629776E-3
182.687759E-3,307.714462E-3
182.890320E-3,308.104706E-3
183.233643E-3,308.819389E-3
183.492279E-3,309.439087E-3
183.930588E-3,310.150337E-3
184.100533E-3,310.750580E-3
184.460449E-3,311.447525E-3
184.909058E-3,312.127304E-3
184.969711E-3,312.451172E-3
185.531044E-3,313.099480E-3
185.569954E-3,313.355827E-3
185.811424E-3,313.813591E-3
186.075211E-3,314.118004E-3
185.999680E-3,314.282799E-3
186.290359E-3,314.570045E-3
186.169624E-3,314.336014E-3
186.290932E-3,314.532852E-3
186.348152E-3,314.707947E-3
186.214828E-3,314.452171E-3
186.523247E-3,314.698219E-3
186.239433E-3,314.450455E-3
186.209679E-3,314.486504E-3
186.244011E-3,314.555740E-3
186.157608E-3,314.467621E-3
186.438560E-3,314.688492E-3
186.235428E-3,314.526558E-3
186.289787E-3,314.718246E-3
186.414528E-3,314.928818E-3
186.338997E-3,314.897346E-3
186.532402E-3,315.103340E-3
186.453438E-3,314.976883E-3
186.614799E-3,315.222931E-3
186.731529E-3,315.519905E-3
186.724663E-3,315.512466E-3
187.037086E-3,315.941048E-3
186.946678E-3,315.961647E-3
187.220764E-3,316.280937E-3
187.339783E-3,316.467476E-3
187.347794E-3,316.654587E-3
187.720299E-3,316.910362E-3
187.678528E-3,316.969299E-3
187.811852E-3,317.442513E-3
188.022995E-3,317.620468E-3
187.953186E-3,317.620468E-3
188.250732E-3,317.938042E-3
188.181496E-3,317.857361E-3
188.454437E-3,318.237305E-3
188.464737E-3,318.225861E-3
188.279343E-3,318.154907E-3
188.474464E-3,318.552589E-3
188.352585E-3,318.454742E-3
188.490486E-3,318.695068E-3
188.635254E-3,318.717957E-3
188.600349E-3,318.560600E-3
188.870430E-3,318.903923E-3
188.778877E-3,318.839264E-3
189.019775E-3,319.204330E-3
189.210320E-3,319.525337E-3
189.160538E-3,319.758224E-3
189.458656E-3,320.111275E-3
189.331627E-3,320.037460E-3
189.494705E-3,320.234299E-3
189.723587E-3,320.412254E-3
189.461517E-3,320.172501E-3
189.420319E-3,319.916153E-3
188.686752E-3,318.761444E-3
187.544060E-3,316.932106E-3
186.224556E-3,314.438438E-3
184.230423E-3,311.153984E-3
182.672310E-3,307.933044E-3
180.981445E-3,304.308128E-3
179.989815E-3,301.328659E-3
179.159546E-3,299.240685E-3
178.488922E-3,297.725487E-3
178.733253E-3,297.430229E-3
178.677750E-3,297.668266E-3
179.038239E-3,298.610687E-3
179.596710E-3,299.913597E-3
179.965782E-3,301.269150E-3
180.756569E-3,303.023529E-3
181.079292E-3,304.164505E-3
181.668663E-3,305.308342E-3
182.081223E-3,306.158066E-3
182.215691E-3,306.475067E-3
182.494926E-3,306.841278E-3
182.324982E-3,306.689644E-3
182.245445E-3,306.534576E-3
182.179070E-3,306.273651E-3
181.773376E-3,305.844498E-3
181.875229E-3,305.578423E-3
181.783104E-3,305.508041E-3
182.043457E-3,305.990982E-3
182.453728E-3,306.805229E-3
182.549858E-3,307.201767E-3
182.844543E-3,307.915878E-3
182.855415E-3,308.084106E-3
183.002472E-3,308.119583E-3
182.989311E-3,308.182526E-3
182.763863E-3,307.721329E-3
182.813644E-3,307.604027E-3
182.483482E-3,307.168579E-3
182.381058E-3,306.904793E-3
182.423973E-3,306.864738E-3
182.256317E-3,306.754875E-3
182.515526E-3,307.130241E-3
182.445717E-3,307.410622E-3
182.752419E-3,307.769966E-3
183.055687E-3,308.425713E-3
183.142090E-3,308.803940E-3
183.599854E-3,309.546661E-3
183.828163E-3,310.003853E-3
184.211540E-3,310.563469E-3
184.586334E-3,311.369133E-3
184.719086E-3,311.705017E-3
185.009766E-3,312.241745E-3
185.210037E-3,312.489510E-3
185.523033E-3,312.874603E-3
185.765648E-3,313.212204E-3
185.679817E-3,313.283730E-3
185.918427E-3,313.641930E-3
185.905838E-3,313.649368E-3
185.971642E-3,313.768959E-3
186.095810E-3,313.861656E-3
185.909271E-3,313.549805E-3
186.093521E-3,313.763237E-3
186.078072E-3,313.639641E-3
186.117554E-3,313.770676E-3
186.263466E-3,313.969803E-3
186.162186E-3,313.794708E-3
186.393929E-3,314.139175E-3
186.246300E-3,314.068222E-3
186.372185E-3,314.199257E-3
186.656570E-3,314.561462E-3
186.490059E-3,314.365196E-3
186.716080E-3,314.784622E-3
186.713219E-3,314.754295E-3
186.839676E-3,315.090179E-3
187.049675E-3,315.258408E-3
187.044525E-3,315.219498E-3
187.356377E-3,315.741348E-3
187.386703E-3,315.696716E-3
187.540627E-3,316.062355E-3
187.762070E-3,316.373634E-3
187.728882E-3,316.285515E-3
188.029861E-3,316.720963E-3
188.067055E-3,316.785622E-3
188.208389E-3,317.013359E-3
188.466454E-3,317.392731E-3
188.493919E-3,317.329216E-3
188.709641E-3,317.678261E-3
188.651276E-3,317.926598E-3
188.836670E-3,317.972946E-3
188.960266E-3,318.270493E-3
188.935661E-3,318.201256E-3
189.218330E-3,318.423271E-3
189.031792E-3,318.287659E-3
189.079857E-3,318.549156E-3
189.293861E-3,318.715096E-3
189.117622E-3,318.692780E-3
189.276123E-3,318.828392E-3
189.217758E-3,318.664742E-3
189.383125E-3,318.871880E-3
189.551353E-3,319.010353E-3
189.434052E-3,318.936539E-3
189.731026E-3,319.417191E-3
189.793396E-3,319.457245E-3
190.142441E-3,319.896698E-3
190.247726E-3,320.086098E-3
190.180206E-3,320.127869E-3
190.389633E-3,320.530128E-3
190.324974E-3,320.533562E-3
190.490341E-3,320.585632E-3
190.580177E-3,320.566177E-3
190.113258E-3,320.175362E-3
189.744186E-3,319.560242E-3
188.647270E-3,317.823029E-3
187.231636E-3,315.198326E-3
185.643196E-3,312.122154E-3
183.677101E-3,308.518410E-3
182.387924E-3,305.513763E-3
181.058121E-3,302.666473E-3
180.266762E-3,300.622559E-3
180.040169E-3,299.452400E-3
179.859924E-3,298.966599E-3
180.168915E-3,299.505615E-3
180.378342E-3,300.320435E-3
180.905342E-3,301.712036E-3
181.705284E-3,303.344536E-3
182.177353E-3,304.680061E-3
182.957268E-3,306.286240E-3
183.328056E-3,307.285881E-3
183.861923E-3,308.001137E-3
184.070206E-3,308.537865E-3
183.970642E-3,308.651161E-3
184.121704E-3,308.934402E-3
183.946037E-3,308.494949E-3
183.835602E-3,308.206558E-3
183.856773E-3,308.029747E-3
183.593559E-3,307.929039E-3
184.029007E-3,308.196831E-3
184.252167E-3,308.433723E-3
184.458160E-3,309.223938E-3
184.780884E-3,310.038757E-3
184.667015E-3,310.182953E-3
184.929657E-3,310.427856E-3
184.747696E-3,310.191536E-3
184.646988E-3,309.763527E-3
184.487343E-3,309.330368E-3
184.012985E-3,308.640862E-3
184.057617E-3,308.460045E-3
183.752060E-3,307.981110E-3
183.773232E-3,307.906723E-3
183.905411E-3,308.286667E-3
183.774948E-3,308.268929E-3
184.197807E-3,308.864594E-3
184.380913E-3,309.354401E-3
184.610939E-3,309.887695E-3
185.088158E-3,310.692215E-3
185.325623E-3,311.050415E-3
185.913277E-3,311.916161E-3
186.021996E-3,312.449455E-3
186.351585E-3,313.026237E-3
186.641121E-3,313.782120E-3
186.690903E-3,313.863373E-3
187.063408E-3,314.390945E-3
187.184143E-3,314.612389E-3
187.351227E-3,314.688492E-3
187.370682E-3,314.998627E-3
187.155533E-3,314.755440E-3
187.417030E-3,315.074730E-3
187.279701E-3,314.939690E-3
187.227058E-3,314.905357E-3
187.266541E-3,315.064430E-3
187.084579E-3,314.645576E-3
187.224197E-3,314.685631E-3
187.107468E-3,314.626122E-3
187.136078E-3,314.694786E-3
187.188148E-3,315.006638E-3
187.018776E-3,314.701080E-3
187.255096E-3,314.872169E-3
187.157822E-3,314.982605E-3
187.183571E-3,315.159988E-3
187.368393E-3,315.397453E-3
187.194443E-3,315.268135E-3
187.474823E-3,315.497017E-3
187.462234E-3,315.651512E-3
187.500000E-3,315.707016E-3
187.656784E-3,316.098404E-3
187.557220E-3,315.991402E-3
187.981796E-3,316.422844E-3
187.937164E-3,316.568184E-3
188.108253E-3,316.801643E-3
188.318825E-3,317.463112E-3
188.207245E-3,317.317772E-3
188.528824E-3,317.716026E-3
188.483047E-3,317.615891E-3
188.720512E-3,317.872238E-3
188.821220E-3,318.137741E-3
188.611794E-3,318.011284E-3
188.860130E-3,318.413544E-3
188.737106E-3,318.204689E-3
188.848686E-3,318.248749E-3
188.846970E-3,318.427849E-3
188.714218E-3,318.284225E-3
188.977432E-3,318.470192E-3
188.977432E-3,318.594933E-3
189.087868E-3,318.854141E-3
189.284706E-3,319.086456E-3
189.014053E-3,318.900490E-3
189.436913E-3,319.263268E-3
189.377975E-3,319.465828E-3
189.482689E-3,319.592857E-3
189.687538E-3,320.014000E-3
189.542198E-3,319.888687E-3
189.770508E-3,320.214844E-3
189.835167E-3,320.173073E-3
189.844894E-3,320.322418E-3
189.868927E-3,320.425415E-3
189.337349E-3,319.489861E-3
188.810921E-3,318.392372E-3
187.606430E-3,316.321564E-3
186.078072E-3,313.700867E-3
184.481049E-3,310.770607E-3
182.612228E-3,307.217216E-3
181.374550E-3,304.353905E-3
180.275345E-3,301.816177E-3
179.711723E-3,300.173378E-3
179.617310E-3,299.563980E-3
179.338646E-3,299.064445E-3
179.771233E-3,299.775696E-3
180.170631E-3,300.787926E-3
180.685043E-3,302.172661E-3
181.504440E-3,303.851509E-3
181.836319E-3,304.922104E-3
182.560158E-3,306.512260E-3
182.873726E-3,307.572556E-3
183.301163E-3,308.172226E-3
183.625031E-3,308.689499E-3
183.346367E-3,308.655167E-3
183.487129E-3,308.750725E-3
183.310890E-3,308.374214E-3
183.210182E-3,308.058357E-3
183.275986E-3,308.030891E-3
183.084869E-3,307.954216E-3
183.545494E-3,308.588219E-3
183.740616E-3,309.088898E-3
183.940315E-3,309.693146E-3
184.358025E-3,310.135460E-3
184.123421E-3,310.113144E-3
184.264755E-3,310.244751E-3
184.079933E-3,309.764671E-3
183.784103E-3,309.482002E-3
183.796692E-3,309.160995E-3
183.201027E-3,308.482361E-3
183.201599E-3,308.123589E-3
183.075142E-3,307.782555E-3
183.172989E-3,307.745934E-3
183.428764E-3,308.108139E-3
183.234215E-3,308.132744E-3
183.618164E-3,308.779907E-3
183.896255E-3,309.154701E-3
184.169769E-3,309.941483E-3
184.595490E-3,310.641289E-3
184.685326E-3,311.112785E-3
185.075569E-3,311.928177E-3
185.343361E-3,312.476349E-3
185.664368E-3,313.065147E-3
186.107826E-3,313.511467E-3
186.135864E-3,313.664246E-3
186.615372E-3,314.398384E-3
186.522102E-3,314.445877E-3
186.654282E-3,314.681053E-3
186.821365E-3,314.923096E-3
186.532974E-3,314.627266E-3
186.791039E-3,314.939690E-3
186.741829E-3,314.998055E-3
186.651993E-3,314.861870E-3
186.812210E-3,314.956856E-3
186.512947E-3,314.606094E-3
186.660004E-3,314.790916E-3
186.611366E-3,314.690781E-3
186.656570E-3,314.654160E-3
186.835098E-3,314.940834E-3
186.547852E-3,314.717674E-3
186.800194E-3,315.042686E-3
186.631966E-3,314.800644E-3
186.874580E-3,315.130234E-3
187.073135E-3,315.452385E-3
186.904335E-3,315.319633E-3
187.158966E-3,315.600586E-3
187.172699E-3,315.755653E-3
187.294006E-3,315.973091E-3
187.537193E-3,316.319275E-3
187.429047E-3,316.248894E-3
187.780952E-3,316.526985E-3
187.828445E-3,316.692352E-3
188.072205E-3,316.999626E-3
188.315392E-3,317.544937E-3
188.191795E-3,317.518044E-3
188.500786E-3,317.904854E-3
188.512230E-3,317.900848E-3
188.569450E-3,318.096542E-3
188.828659E-3,318.364906E-3
188.829231E-3,318.343735E-3
189.031219E-3,318.763733E-3
189.026070E-3,318.605804E-3
189.068413E-3,318.878174E-3
189.271545E-3,319.045830E-3
188.991737E-3,318.808365E-3
189.180565E-3,319.104195E-3
189.182281E-3,319.151115E-3
189.216042E-3,319.099045E-3
189.443779E-3,319.241524E-3
189.192009E-3,319.034958E-3
189.467812E-3,319.291878E-3
189.438629E-3,319.418335E-3
189.496422E-3,319.626045E-3
189.787102E-3,319.866371E-3
189.719009E-3,319.911575E-3
190.161896E-3,320.408821E-3
190.093803E-3,320.425987E-3
190.147018E-3,320.609665E-3
190.350723E-3,320.978737E-3
190.173912E-3,320.891762E-3
190.342712E-3,321.091461E-3
190.271759E-3,320.997047E-3
190.043449E-3,320.469475E-3
189.517021E-3,319.545364E-3
188.259315E-3,317.448235E-3
186.849403E-3,315.060425E-3
185.040665E-3,311.776543E-3
183.304596E-3,308.415985E-3
181.919861E-3,305.243111E-3
180.419540E-3,302.161217E-3
179.782677E-3,300.292969E-3
179.300308E-3,299.071312E-3
179.240799E-3,298.833275E-3
179.615021E-3,299.323654E-3
179.588127E-3,299.744225E-3
180.254745E-3,301.062584E-3
180.739975E-3,302.473068E-3
181.412315E-3,303.890419E-3
182.022285E-3,305.314064E-3
182.189369E-3,306.107140E-3
182.743263E-3,307.212639E-3
182.830238E-3,307.487869E-3
183.080864E-3,307.762527E-3
183.055687E-3,307.645226E-3
182.703781E-3,307.112503E-3
182.647705E-3,306.812668E-3
182.426834E-3,306.464767E-3
182.418251E-3,306.277657E-3
182.636833E-3,306.475067E-3
182.505226E-3,306.608963E-3
183.017921E-3,307.454109E-3
183.315468E-3,307.875824E-3
183.516312E-3,308.646011E-3
183.760071E-3,309.122086E-3
183.552361E-3,309.103775E-3
183.686256E-3,309.209061E-3
183.485985E-3,308.743286E-3
183.378983E-3,308.375931E-3
183.453941E-3,308.176231E-3
182.978439E-3,307.606316E-3
182.999611E-3,307.703018E-3
182.909203E-3,307.596588E-3
182.997322E-3,307.680130E-3
183.312035E-3,308.131027E-3
183.238220E-3,308.305550E-3
183.694839E-3,308.942986E-3
183.878517E-3,309.443092E-3
184.268761E-3,310.128021E-3
184.792900E-3,310.913086E-3
184.859848E-3,311.335373E-3
185.369682E-3,312.114143E-3
185.532761E-3,312.520981E-3
185.811996E-3,312.927246E-3
186.284065E-3,313.403320E-3
186.283493E-3,313.513184E-3
186.531258E-3,313.974380E-3
186.411667E-3,313.950920E-3
186.542130E-3,314.119148E-3
186.892319E-3,314.352036E-3
186.708641E-3,314.153481E-3
186.927223E-3,314.389229E-3
186.859703E-3,314.490509E-3
186.879158E-3,314.471626E-3
186.995316E-3,314.781761E-3
186.779022E-3,314.559746E-3
186.951256E-3,314.599228E-3
186.997032E-3,314.522552E-3
187.010193E-3,314.598656E-3
187.247086E-3,314.796066E-3
187.013626E-3,314.812088E-3
187.295151E-3,315.117073E-3
187.262535E-3,315.081024E-3
187.415886E-3,315.114212E-3
187.613297E-3,315.517044E-3
187.498856E-3,315.701866E-3
187.722015E-3,315.935326E-3
187.833023E-3,316.010857E-3
187.954903E-3,316.148186E-3
188.290215E-3,316.458321E-3
188.203239E-3,316.500092E-3
188.502502E-3,316.914368E-3
188.528252E-3,316.986465E-3
188.712502E-3,317.213058E-3
188.944244E-3,317.698860E-3
188.786888E-3,317.624474E-3
189.133072E-3,317.945480E-3
189.141083E-3,318.096542E-3
189.278412E-3,318.209267E-3
189.511871E-3,318.525696E-3
189.399719E-3,318.426132E-3
189.744186E-3,318.598938E-3
189.605713E-3,318.669319E-3
189.631462E-3,318.878174E-3
189.747047E-3,318.950844E-3
189.593697E-3,318.758011E-3
189.789391E-3,319.076157E-3
189.741898E-3,318.995476E-3
189.735031E-3,318.977737E-3
189.900398E-3,319.099617E-3
189.653778E-3,319.014359E-3
189.973068E-3,319.309044E-3
189.977646E-3,319.214058E-3
190.025711E-3,319.499588E-3
190.284348E-3,319.825172E-3
190.160179E-3,319.753647E-3
190.510941E-3,320.245171E-3
190.639114E-3,320.498657E-3
190.712357E-3,320.551300E-3
190.868568E-3,320.866585E-3
190.878296E-3,320.937538E-3
191.140366E-3,321.330070E-3
191.167259E-3,321.210480E-3
191.194725E-3,321.243668E-3
191.200447E-3,321.126366E-3
190.609932E-3,320.195961E-3
189.866066E-3,319.045258E-3
188.398361E-3,316.713524E-3
186.720085E-3,313.593292E-3
185.140228E-3,310.606384E-3
183.365822E-3,307.178879E-3
182.279778E-3,304.362488E-3
181.312752E-3,302.227020E-3
180.814934E-3,300.828552E-3
180.759430E-3,300.581360E-3
180.739975E-3,300.684357E-3
181.252098E-3,301.589584E-3
181.739616E-3,302.696228E-3
182.267761E-3,304.025459E-3
183.043671E-3,305.716896E-3
183.462524E-3,306.913376E-3
184.161186E-3,308.142471E-3
184.443283E-3,309.082031E-3
184.707642E-3,309.411621E-3
185.072136E-3,309.777832E-3
184.767723E-3,309.707451E-3
184.788895E-3,309.651375E-3
184.584618E-3,309.369278E-3
184.468460E-3,309.027672E-3
184.582329E-3,309.020233E-3
184.454155E-3,308.853149E-3
184.881592E-3,309.473991E-3
185.117912E-3,310.143471E-3
185.216904E-3,310.569191E-3
185.474968E-3,310.922241E-3
185.327339E-3,310.932541E-3
185.492706E-3,311.025238E-3
185.248947E-3,310.593796E-3
184.903336E-3,310.062218E-3
184.831238E-3,309.828758E-3
184.350014E-3,309.081459E-3
184.434128E-3,308.921242E-3
184.213257E-3,308.691216E-3
184.169197E-3,308.696938E-3
184.590912E-3,309.060860E-3
184.508514E-3,309.369850E-3
184.836388E-3,310.027313E-3
185.077858E-3,310.559464E-3
185.345650E-3,310.969162E-3
185.969925E-3,311.805725E-3
185.993385E-3,312.352180E-3
186.402512E-3,313.280869E-3
186.634827E-3,313.633919E-3
186.846542E-3,313.840485E-3
187.252235E-3,314.439583E-3
187.216759E-3,314.561462E-3
187.471962E-3,314.929390E-3
187.592697E-3,315.025520E-3
187.415886E-3,315.103912E-3
187.739754E-3,315.365410E-3
187.621307E-3,315.348244E-3
187.794685E-3,315.530205E-3
187.761497E-3,315.441513E-3
187.559509E-3,315.246964E-3
187.709999E-3,315.340233E-3
187.523460E-3,315.197754E-3
187.643051E-3,315.368271E-3
187.584686E-3,315.399170E-3
187.388992E-3,315.355682E-3
187.521172E-3,315.550232E-3
187.376404E-3,315.248680E-3
187.511444E-3,315.529633E-3
187.517166E-3,315.599442E-3
187.565804E-3,315.539360E-3
187.685966E-3,315.878677E-3
187.596703E-3,315.906143E-3
187.831879E-3,315.983963E-3
187.868500E-3,316.076088E-3
187.874222E-3,316.232300E-3
188.144302E-3,316.647148E-3
188.095093E-3,316.674042E-3
188.418388E-3,316.980171E-3
188.448143E-3,317.243385E-3
188.441849E-3,317.320633E-3
188.729668E-3,317.772675E-3
188.786888E-3,317.936897E-3
189.016914E-3,318.233299E-3
189.073563E-3,318.364906E-3
188.996887E-3,318.443298E-3
189.317322E-3,318.802071E-3
189.125633E-3,318.772888E-3
189.334488E-3,318.907928E-3
189.420319E-3,318.961143E-3
189.326477E-3,318.982887E-3
189.451790E-3,319.213486E-3
189.218330E-3,319.045258E-3
189.383698E-3,319.231224E-3
189.364243E-3,319.298172E-3
189.319611E-3,319.339943E-3
189.511871E-3,319.564819E-3
189.367676E-3,319.446373E-3
189.610291E-3,319.682693E-3
189.692116E-3,319.815445E-3
189.729881E-3,320.086670E-3
190.043449E-3,320.438004E-3
189.899826E-3,320.329285E-3
190.160751E-3,320.848846E-3
190.209961E-3,321.003342E-3
190.161324E-3,320.924950E-3
190.417099E-3,321.120071E-3
190.104675E-3,320.870590E-3
190.199089E-3,320.740128E-3
189.653778E-3,319.847488E-3
188.580894E-3,318.261909E-3
187.405014E-3,316.271210E-3
185.540199E-3,313.185310E-3
184.063911E-3,310.121727E-3
182.417107E-3,307.089043E-3
181.130791E-3,304.249763E-3
180.357170E-3,302.295113E-3
179.794693E-3,300.870323E-3
179.830170E-3,300.620842E-3
179.862785E-3,300.567627E-3
180.166626E-3,301.238823E-3
180.903053E-3,302.544594E-3
181.176567E-3,303.798294E-3
181.938744E-3,305.314636E-3
182.496071E-3,306.585503E-3
183.057976E-3,307.735634E-3
183.512306E-3,308.799362E-3
183.557510E-3,308.981895E-3
183.756638E-3,309.296608E-3
183.758926E-3,309.296036E-3
183.580971E-3,309.127235E-3
183.608437E-3,308.965302E-3
183.318901E-3,308.592224E-3
183.475685E-3,308.529282E-3
183.507156E-3,308.613396E-3
183.687973E-3,308.908653E-3
184.149170E-3,309.732056E-3
184.223557E-3,310.119438E-3
184.503937E-3,310.656166E-3
184.623528E-3,310.864449E-3
184.372902E-3,310.848999E-3
184.406090E-3,310.767174E-3
184.103394E-3,310.134315E-3
184.098816E-3,309.787560E-3
183.880806E-3,309.276581E-3
183.557510E-3,308.827972E-3
183.685684E-3,309.007645E-3
183.489990E-3,308.903503E-3
183.769798E-3,309.129524E-3
183.917999E-3,309.309769E-3
184.054184E-3,309.753227E-3
184.385490E-3,310.586929E-3
184.583473E-3,310.901642E-3
184.998322E-3,311.638641E-3
185.329628E-3,312.182236E-3
185.518456E-3,312.600517E-3
186.015129E-3,313.392448E-3
186.093521E-3,313.636208E-3
186.467743E-3,314.382935E-3
186.513519E-3,314.640999E-3
186.726379E-3,314.776611E-3
187.087440E-3,315.205765E-3
187.001038E-3,315.389442E-3
187.131500E-3,315.519905E-3
187.179565E-3,315.601730E-3
187.089157E-3,315.502167E-3
187.283134E-3,315.696144E-3
187.145805E-3,315.642929E-3
187.331772E-3,315.991402E-3
187.227058E-3,315.692139E-3
187.165833E-3,315.555382E-3
187.308311E-3,315.790558E-3
187.173843E-3,315.681839E-3
187.338638E-3,315.741348E-3
187.267113E-3,315.736198E-3
187.178421E-3,315.741920E-3
187.524033E-3,315.995407E-3
187.449646E-3,315.973663E-3
187.737465E-3,316.230011E-3
187.771797E-3,316.335869E-3
187.739754E-3,316.497231E-3
187.992668E-3,316.892052E-3
187.867355E-3,316.771317E-3
188.123131E-3,317.103195E-3
188.330841E-3,317.120361E-3
188.338852E-3,317.357254E-3
188.554573E-3,317.862511E-3
188.559723E-3,318.052483E-3
188.800049E-3,318.243599E-3
188.881874E-3,318.316841E-3
188.970566E-3,318.449020E-3
189.232063E-3,318.868446E-3
189.118767E-3,318.940544E-3
189.472389E-3,319.424629E-3
189.474678E-3,319.291878E-3
189.460373E-3,319.386292E-3
189.681244E-3,319.678688E-3
189.635468E-3,319.565964E-3
189.704132E-3,319.903564E-3
189.738464E-3,319.840622E-3
189.743042E-3,319.761086E-3
189.917564E-3,320.066071E-3
189.602852E-3,319.797134E-3
189.840317E-3,320.003128E-3
189.863205E-3,320.044327E-3
189.838028E-3,319.987679E-3
190.090370E-3,320.284653E-3
189.941025E-3,320.275497E-3
190.126419E-3,320.571327E-3
190.422249E-3,320.592499E-3
190.370178E-3,320.870590E-3
190.641975E-3,321.142960E-3
190.605927E-3,321.217918E-3
190.839386E-3,321.608734E-3
190.935516E-3,321.866798E-3
190.885735E-3,321.759796E-3
191.162682E-3,322.148323E-3
191.012764E-3,321.949196E-3
190.897751E-3,321.930885E-3
190.524673E-3,321.273422E-3
189.730453E-3,319.762802E-3
188.661575E-3,317.827034E-3
186.792755E-3,314.744568E-3
185.130501E-3,311.763954E-3
183.310890E-3,308.470345E-3
181.851196E-3,305.413628E-3
181.034088E-3,303.246689E-3
180.437279E-3,301.528358E-3
180.185509E-3,300.993919E-3
180.186653E-3,300.773621E-3
180.317116E-3,301.253128E-3
181.005478E-3,302.472496E-3
181.328773E-3,303.503036E-3
182.190514E-3,305.087471E-3
182.686615E-3,306.499672E-3
183.198738E-3,307.636642E-3
183.764648E-3,308.723259E-3
183.815002E-3,309.076309E-3
184.065056E-3,309.473419E-3
184.061623E-3,309.465981E-3
183.931732E-3,309.209633E-3
183.987808E-3,309.059715E-3
183.673668E-3,308.427429E-3
183.590126E-3,308.310127E-3
183.565521E-3,308.086395E-3
183.626747E-3,308.320999E-3
184.043884E-3,308.962440E-3
184.213257E-3,309.530067E-3
184.553146E-3,310.218430E-3
184.694481E-3,310.634422E-3
184.743690E-3,310.662460E-3
184.963417E-3,310.926247E-3
184.672737E-3,310.539436E-3
184.749985E-3,310.375786E-3
184.541130E-3,310.068512E-3
184.257889E-3,309.559250E-3
184.313393E-3,309.492874E-3
184.056473E-3,309.158134E-3
184.326553E-3,309.385872E-3
184.453011E-3,309.600449E-3
184.483337E-3,309.766388E-3
184.899330E-3,310.590363E-3
184.942245E-3,310.777473E-3
185.424614E-3,311.464119E-3
185.698700E-3,312.111282E-3
185.937881E-3,312.639999E-3
186.423683E-3,313.434219E-3
186.502647E-3,313.748932E-3
186.914063E-3,314.214706E-3
187.094307E-3,314.471054E-3
187.106323E-3,314.614105E-3
187.575531E-3,315.250969E-3
187.665939E-3,315.347672E-3
187.937164E-3,315.704155E-3
187.985802E-3,315.796280E-3
187.984657E-3,315.842628E-3
188.281059E-3,316.173363E-3
188.065338E-3,316.129303E-3
188.242149E-3,316.219139E-3
188.264465E-3,316.183662E-3
188.199234E-3,316.061211E-3
188.430977E-3,316.505241E-3
188.227272E-3,316.264915E-3
188.440132E-3,316.334152E-3
188.441277E-3,316.434860E-3
188.373756E-3,316.305542E-3
188.661575E-3,316.598511E-3
188.522530E-3,316.650009E-3
188.696480E-3,316.721535E-3
188.739395E-3,316.981316E-3
188.673019E-3,316.908073E-3
189.021492E-3,317.302895E-3
188.960266E-3,317.215919E-3
189.151382E-3,317.391014E-3
189.211464E-3,317.630768E-3
189.080429E-3,317.798424E-3
189.578247E-3,318.284225E-3
189.618301E-3,318.190956E-3
189.920425E-3,318.512535E-3
189.974213E-3,318.974304E-3
190.073204E-3,318.862152E-3
190.398216E-3,319.341087E-3
190.350723E-3,319.298744E-3
190.621948E-3,319.540787E-3
190.545845E-3,319.829178E-3
190.581322E-3,319.844627E-3
190.930367E-3,320.099258E-3
190.838814E-3,320.019150E-3
191.006470E-3,320.242882E-3
190.999031E-3,320.488930E-3
190.917778E-3,320.355606E-3
191.156387E-3,320.633125E-3
191.051102E-3,320.462036E-3
191.130066E-3,320.671463E-3
191.127205E-3,320.674324E-3
191.025352E-3,320.573044E-3
191.436195E-3,320.980453E-3
191.282272E-3,320.956421E-3
191.548920E-3,321.175575E-3
191.555786E-3,321.304893E-3
191.495705E-3,321.228790E-3
191.892815E-3,321.694565E-3
191.805840E-3,321.768951E-3
192.093086E-3,322.096252E-3
192.156029E-3,322.332001E-3
192.089081E-3,322.233582E-3
192.545700E-3,322.643280E-3
192.381477E-3,322.455597E-3
192.530823E-3,322.559738E-3
192.477036E-3,322.307396E-3
191.919708E-3,321.540070E-3
191.262817E-3,320.387077E-3
189.657211E-3,318.034172E-3
188.063622E-3,315.406609E-3
186.274338E-3,312.348747E-3
184.616661E-3,309.037971E-3
183.637619E-3,306.667328E-3
182.560158E-3,304.448891E-3
182.238007E-3,303.608894E-3
182.019424E-3,303.028679E-3
182.014847E-3,303.079033E-3
182.696342E-3,304.185104E-3
183.014488E-3,305.113220E-3
183.710861E-3,306.463623E-3
184.363174E-3,307.834625E-3
184.879875E-3,309.136391E-3
185.638046E-3,310.562325E-3
186.030006E-3,311.117935E-3
186.288071E-3,311.714172E-3
186.411667E-3,312.044334E-3
186.321259E-3,311.980820E-3
186.548424E-3,312.098694E-3
186.244583E-3,311.682129E-3
186.223984E-3,311.514473E-3
186.123848E-3,311.406326E-3
186.043739E-3,311.497307E-3
186.689758E-3,311.969376E-3
186.658859E-3,312.474060E-3
186.904907E-3,313.070869E-3
186.894035E-3,313.375854E-3
186.730385E-3,313.103485E-3
186.895752E-3,313.117790E-3
186.474037E-3,312.512970E-3
186.308670E-3,312.045479E-3
185.972786E-3,311.453247E-3
185.468102E-3,310.897636E-3
185.671806E-3,310.924530E-3
185.453224E-3,310.677910E-3
185.519028E-3,310.931969E-3
185.556221E-3,311.118507E-3
185.644913E-3,311.392593E-3
186.121559E-3,311.987686E-3
186.326981E-3,312.253761E-3
186.650848E-3,312.939835E-3
186.943817E-3,313.605881E-3
187.102890E-3,314.005852E-3
187.720871E-3,314.876747E-3
187.753487E-3,315.174294E-3
188.031578E-3,315.629768E-3
188.300514E-3,315.981674E-3
