Notes :


2023-11-23 ¿ÀÈÄ 10:33:11
Volts
Ch : LED 2,Ch : LED 3,
414.750481E-3,277.487755E-3
413.020706E-3,273.064041E-3
411.572456E-3,269.373322E-3
410.614586E-3,266.082001E-3
409.705353E-3,263.662148E-3
409.490776E-3,262.631035E-3
409.320831E-3,262.097168E-3
409.606934E-3,262.665939E-3
410.223770E-3,263.948822E-3
410.886955E-3,265.144730E-3
411.764717E-3,267.190933E-3
412.465096E-3,268.501854E-3
413.170052E-3,270.209312E-3
414.040375E-3,271.731949E-3
414.408302E-3,272.816849E-3
415.436554E-3,274.120331E-3
415.559578E-3,274.515152E-3
415.753555E-3,275.154877E-3
415.811348E-3,275.110817E-3
415.612221E-3,274.793816E-3
415.616798E-3,275.006104E-3
415.503502E-3,274.924278E-3
415.640831E-3,275.119400E-3
415.674591E-3,275.604057E-3
415.694618E-3,276.232910E-3
415.664864E-3,276.892662E-3
415.751266E-3,277.205086E-3
415.732384E-3,277.956963E-3
415.771294E-3,277.979851E-3
415.894318E-3,277.910614E-3
416.065979E-3,277.978706E-3
415.509796E-3,277.149582E-3
415.168190E-3,276.402283E-3
414.620590E-3,275.614357E-3
413.972855E-3,275.058174E-3
414.056969E-3,274.688530E-3
413.492775E-3,274.067116E-3
413.281631E-3,274.174690E-3
413.580322E-3,274.284554E-3
413.496208E-3,274.258804E-3
414.040375E-3,275.169182E-3
414.222908E-3,275.744247E-3
414.519882E-3,276.708412E-3
414.650917E-3,277.395058E-3
414.824867E-3,277.943230E-3
414.947891E-3,278.868484E-3
414.693832E-3,278.958893E-3
414.906693E-3,279.390907E-3
415.047455E-3,279.976845E-3
414.901543E-3,280.190277E-3
415.427399E-3,281.021690E-3
415.298653E-3,281.498337E-3
415.564156E-3,282.283401E-3
415.503502E-3,282.538605E-3
415.334129E-3,282.363510E-3
415.742111E-3,282.850456E-3
415.592194E-3,283.168602E-3
416.122055E-3,283.359146E-3
416.254234E-3,283.727646E-3
416.269112E-3,283.894157E-3
416.642761E-3,284.184837E-3
416.448212E-3,284.020042E-3
416.600418E-3,284.632874E-3
416.613007E-3,284.865189E-3
416.564369E-3,284.910393E-3
417.174339E-3,285.351562E-3
416.965485E-3,285.352707E-3
417.216110E-3,285.492897E-3
417.388916E-3,285.773849E-3
417.520523E-3,285.642815E-3
417.486763E-3,285.777855E-3
417.187500E-3,285.449982E-3
417.047882E-3,285.330391E-3
417.310524E-3,285.734367E-3
417.090797E-3,285.686874E-3
417.611504E-3,286.245346E-3
417.579460E-3,286.166382E-3
417.882156E-3,286.275101E-3
417.860413E-3,286.340904E-3
417.581749E-3,286.324310E-3
417.788315E-3,286.782074E-3
417.485619E-3,286.734009E-3
417.273903E-3,287.231827E-3
418.043518E-3,287.689018E-3
417.710495E-3,287.959099E-3
417.950821E-3,288.622284E-3
417.794037E-3,288.863182E-3
417.661285E-3,289.034271E-3
417.451286E-3,289.275742E-3
417.400360E-3,288.796234E-3
417.146873E-3,287.763405E-3
416.160965E-3,285.337257E-3
414.537621E-3,281.578445E-3
413.325119E-3,277.998161E-3
411.292076E-3,273.334694E-3
409.881592E-3,268.981361E-3
408.008766E-3,265.092087E-3
407.412529E-3,262.290001E-3
406.491280E-3,260.776520E-3
406.483269E-3,259.870148E-3
407.271767E-3,260.334778E-3
407.512093E-3,261.081505E-3
408.565521E-3,262.232208E-3
409.182358E-3,263.634682E-3
409.765434E-3,265.023422E-3
410.615730E-3,266.959763E-3
411.142159E-3,268.303871E-3
411.664581E-3,269.256020E-3
412.460518E-3,270.285416E-3
412.517166E-3,270.719719E-3
412.663078E-3,271.092796E-3
412.409019E-3,271.014977E-3
412.005043E-3,270.901680E-3
412.570953E-3,271.041298E-3
412.346649E-3,270.992088E-3
412.582397E-3,271.100235E-3
412.184143E-3,270.834160E-3
412.635040E-3,271.338272E-3
413.004112E-3,272.043800E-3
413.180923E-3,272.489548E-3
413.983727E-3,273.779297E-3
414.235497E-3,274.530029E-3
414.262390E-3,275.008965E-3
414.170265E-3,275.115967E-3
413.751984E-3,274.721718E-3
414.079285E-3,274.914551E-3
413.857269E-3,274.294281E-3
413.653564E-3,273.764992E-3
413.929367E-3,273.808479E-3
413.654137E-3,273.285484E-3
413.615799E-3,273.062325E-3
413.397789E-3,272.662354E-3
413.686180E-3,273.085785E-3
413.792610E-3,273.656273E-3
413.763428E-3,274.038506E-3
414.238930E-3,274.588966E-3
414.414597E-3,275.091362E-3
414.883804E-3,275.644112E-3
415.299797E-3,276.496696E-3
415.383911E-3,277.031708E-3
415.831947E-3,277.693748E-3
415.834236E-3,278.090858E-3
416.003036E-3,278.343201E-3
416.568947E-3,279.501915E-3
416.366386E-3,279.547691E-3
416.793251E-3,280.615425E-3
416.806412E-3,280.875206E-3
417.053032E-3,281.670570E-3
417.196655E-3,282.007027E-3
417.370033E-3,282.319450E-3
417.688751E-3,283.261299E-3
417.578316E-3,283.062172E-3
417.879868E-3,283.354568E-3
418.125343E-3,283.713341E-3
418.001747E-3,283.683014E-3
418.168831E-3,284.013176E-3
418.095016E-3,284.128189E-3
417.931366E-3,284.441757E-3
418.479538E-3,284.615707E-3
418.198586E-3,284.405136E-3
418.361092E-3,284.962463E-3
418.421173E-3,284.749603E-3
418.577385E-3,284.839439E-3
418.419456E-3,284.964180E-3
418.172264E-3,284.555054E-3
418.498421E-3,285.054588E-3
418.347359E-3,284.961319E-3
418.312454E-3,284.833717E-3
418.494987E-3,285.141563E-3
418.250084E-3,285.038567E-3
418.421173E-3,285.311508E-3
418.184280E-3,285.157013E-3
418.532753E-3,285.404778E-3
418.675232E-3,285.963821E-3
418.426323E-3,285.990143E-3
418.862343E-3,286.860466E-3
419.153595E-3,286.994362E-3
419.325256E-3,287.386322E-3
419.443703E-3,287.594032E-3
419.336128E-3,287.912178E-3
419.845390E-3,288.590240E-3
419.768143E-3,288.931274E-3
419.747543E-3,289.085770E-3
419.924927E-3,289.729500E-3
419.642258E-3,289.464569E-3
419.588470E-3,288.913536E-3
418.665504E-3,287.227249E-3
417.628670E-3,284.643745E-3
416.381264E-3,281.184196E-3
414.530182E-3,276.739311E-3
413.248444E-3,272.626305E-3
411.448288E-3,268.175125E-3
410.187721E-3,264.606857E-3
409.747696E-3,262.578964E-3
408.924866E-3,261.149597E-3
408.866501E-3,260.746765E-3
409.052467E-3,260.893250E-3
409.786034E-3,261.860847E-3
411.107826E-3,263.464165E-3
411.716080E-3,264.835739E-3
412.679100E-3,267.025566E-3
413.259888E-3,268.377686E-3
414.093018E-3,269.964409E-3
414.464378E-3,270.459366E-3
414.581108E-3,271.214676E-3
415.099525E-3,271.781731E-3
415.360451E-3,271.996880E-3
415.135002E-3,271.821785E-3
415.155602E-3,272.115326E-3
415.015411E-3,271.702766E-3
415.018845E-3,271.663857E-3
414.637756E-3,271.552849E-3
414.794540E-3,271.861839E-3
415.163612E-3,272.304726E-3
415.301514E-3,272.645187E-3
416.029930E-3,274.047661E-3
416.045380E-3,274.556923E-3
416.431618E-3,275.319099E-3
416.640472E-3,275.464439E-3
416.337204E-3,275.294495E-3
416.554070E-3,275.228691E-3
416.098022E-3,274.507141E-3
415.716362E-3,274.331474E-3
415.841675E-3,273.735809E-3
415.563583E-3,273.165321E-3
415.473175E-3,273.201942E-3
415.201378E-3,273.113823E-3
415.149879E-3,273.823929E-3
415.705490E-3,273.931503E-3
415.746689E-3,273.932076E-3
416.450500E-3,274.962044E-3
416.531181E-3,275.503349E-3
416.436195E-3,276.124191E-3
416.864204E-3,276.834869E-3
416.780663E-3,276.970482E-3
417.018700E-3,277.492905E-3
417.082787E-3,278.006172E-3
417.427254E-3,278.310585E-3
417.926216E-3,279.203796E-3
417.854691E-3,279.491043E-3
418.474960E-3,280.363083E-3
418.357086E-3,280.586815E-3
418.980217E-3,281.188202E-3
419.138145E-3,281.780434E-3
418.892670E-3,281.823921E-3
419.305229E-3,282.397842E-3
419.239426E-3,282.417870E-3
419.185638E-3,282.865906E-3
419.357300E-3,283.116531E-3
419.275475E-3,283.190346E-3
419.293785E-3,283.422089E-3
419.162178E-3,283.433533E-3
419.463730E-3,283.559990E-3
419.685745E-3,284.187126E-3
419.453430E-3,283.990288E-3
419.759560E-3,284.340477E-3
419.630814E-3,284.426880E-3
419.610786E-3,284.440041E-3
419.667435E-3,284.461784E-3
419.365311E-3,284.033775E-3
419.842529E-3,284.349060E-3
419.657135E-3,284.395409E-3
419.719505E-3,284.221458E-3
419.925499E-3,284.373665E-3
419.560432E-3,284.365082E-3
419.700623E-3,284.478951E-3
419.599342E-3,284.757614E-3
420.097733E-3,284.870338E-3
420.493698E-3,285.551834E-3
420.263100E-3,285.760117E-3
420.684814E-3,286.388397E-3
420.438766E-3,286.688805E-3
420.651627E-3,287.269020E-3
420.940018E-3,287.480736E-3
420.592117E-3,287.709618E-3
421.186638E-3,288.162804E-3
421.138573E-3,288.078117E-3
421.087074E-3,288.390541E-3
421.150589E-3,288.459206E-3
420.565224E-3,287.227249E-3
419.792747E-3,285.424232E-3
418.404579E-3,282.179260E-3
417.203522E-3,278.677368E-3
416.057968E-3,274.833870E-3
414.201736E-3,270.681381E-3
413.104820E-3,267.455864E-3
412.110329E-3,264.602852E-3
411.738968E-3,263.244438E-3
411.829948E-3,262.655640E-3
411.799049E-3,262.677956E-3
412.824440E-3,263.721657E-3
413.317680E-3,264.939880E-3
414.125061E-3,266.647911E-3
414.888954E-3,268.267250E-3
415.437126E-3,269.739532E-3
416.213608E-3,271.101379E-3
416.750336E-3,272.185707E-3
416.833305E-3,272.979927E-3
417.386627E-3,273.825073E-3
417.094231E-3,274.028206E-3
417.089653E-3,274.174690E-3
416.959190E-3,274.145508E-3
416.750336E-3,273.894882E-3
417.311096E-3,274.220467E-3
417.069054E-3,274.115181E-3
418.155670E-3,275.089073E-3
418.329048E-3,275.541687E-3
418.818855E-3,276.313019E-3
419.146729E-3,277.136993E-3
418.878365E-3,277.316666E-3
418.830299E-3,277.867699E-3
418.475533E-3,277.443123E-3
418.457794E-3,276.944733E-3
418.229485E-3,276.525879E-3
417.877007E-3,275.702477E-3
417.818069E-3,275.090790E-3
417.255592E-3,274.458504E-3
417.212105E-3,274.059105E-3
417.366028E-3,274.090004E-3
417.078781E-3,273.992729E-3
417.557144E-3,274.744606E-3
417.285347E-3,274.976349E-3
417.875290E-3,275.735664E-3
418.145370E-3,276.278114E-3
418.164825E-3,276.618576E-3
418.362808E-3,277.452850E-3
418.756485E-3,278.031921E-3
418.750191E-3,278.416443E-3
419.238853E-3,279.440689E-3
419.175911E-3,279.895592E-3
419.296074E-3,280.382538E-3
419.355583E-3,280.836296E-3
419.466591E-3,281.459427E-3
419.967842E-3,282.016754E-3
419.831085E-3,282.076263E-3
420.509148E-3,282.931709E-3
420.346642E-3,283.086777E-3
420.437050E-3,283.161163E-3
420.571518E-3,283.860970E-3
420.402145E-3,283.923340E-3
420.549774E-3,284.124756E-3
420.645905E-3,284.333611E-3
420.754051E-3,284.706688E-3
421.032715E-3,285.039711E-3
420.756912E-3,285.013390E-3
421.265030E-3,285.662270E-3
421.360016E-3,285.659409E-3
421.372032E-3,285.712624E-3
421.412086E-3,285.680008E-3
421.031570E-3,285.424805E-3
420.829010E-3,285.265160E-3
420.812416E-3,285.135841E-3
420.847321E-3,285.369873E-3
421.271896E-3,285.783005E-3
421.177483E-3,285.509491E-3
421.629524E-3,286.234474E-3
421.792030E-3,286.214447E-3
421.939087E-3,286.554337E-3
422.068405E-3,286.857605E-3
421.830368E-3,286.929131E-3
421.959686E-3,287.204933E-3
422.108459E-3,287.842369E-3
422.167969E-3,288.088989E-3
422.499275E-3,288.660049E-3
422.166824E-3,288.541031E-3
422.684669E-3,288.996506E-3
422.232628E-3,288.631439E-3
421.921921E-3,287.529373E-3
421.349716E-3,285.434532E-3
419.410515E-3,281.977272E-3
418.088150E-3,277.902603E-3
416.369820E-3,273.954964E-3
414.638329E-3,269.749832E-3
413.693047E-3,266.289711E-3
412.704277E-3,263.590050E-3
412.377548E-3,262.042809E-3
411.987877E-3,261.385345E-3
411.987305E-3,261.412239E-3
412.793541E-3,262.433052E-3
413.309097E-3,263.339424E-3
414.190292E-3,264.769936E-3
414.891815E-3,266.355515E-3
415.271187E-3,267.803192E-3
416.225052E-3,269.265747E-3
416.260529E-3,269.868851E-3
417.039871E-3,270.777512E-3
416.727448E-3,271.261597E-3
416.496849E-3,271.039009E-3
416.817284E-3,271.258163E-3
416.456795E-3,270.954895E-3
416.882515E-3,271.117401E-3
416.507149E-3,270.560074E-3
416.320038E-3,270.567513E-3
416.773224E-3,270.796394E-3
416.673088E-3,271.197510E-3
416.835022E-3,271.908188E-3
417.095375E-3,272.600555E-3
417.540550E-3,273.510933E-3
417.921066E-3,274.452209E-3
417.598915E-3,274.452782E-3
418.000603E-3,275.150299E-3
418.076706E-3,274.887657E-3
417.698479E-3,274.645042E-3
417.819786E-3,274.213600E-3
417.382622E-3,273.631668E-3
417.339706E-3,273.026276E-3
417.233276E-3,272.680092E-3
417.059326E-3,272.658920E-3
417.254448E-3,272.974777E-3
417.277336E-3,273.114395E-3
417.765427E-3,273.833656E-3
417.860413E-3,274.403000E-3
417.684174E-3,274.393845E-3
418.342781E-3,275.426102E-3
418.441200E-3,275.856400E-3
419.387627E-3,277.136993E-3
419.335556E-3,277.828789E-3
418.983650E-3,277.989578E-3
419.431686E-3,278.818130E-3
419.450569E-3,278.867912E-3
419.776726E-3,279.508209E-3
419.804192E-3,280.072975E-3
420.419884E-3,280.405426E-3
420.695686E-3,280.997658E-3
420.602989E-3,281.114960E-3
420.654488E-3,281.528091E-3
420.587540E-3,281.847954E-3
420.715714E-3,282.199287E-3
421.014404E-3,282.779503E-3
420.735168E-3,282.753181E-3
421.231842E-3,283.388901E-3
421.216965E-3,283.545685E-3
420.675087E-3,283.460999E-3
421.397209E-3,283.807755E-3
421.006393E-3,283.798599E-3
421.450996E-3,284.390259E-3
421.552849E-3,284.156227E-3
421.158600E-3,284.155655E-3
421.373749E-3,284.176826E-3
421.222687E-3,283.847809E-3
421.104240E-3,284.024620E-3
421.029854E-3,284.021187E-3
420.928574E-3,284.020042E-3
421.010399E-3,283.983994E-3
420.928574E-3,283.848381E-3
420.840454E-3,284.055519E-3
420.885086E-3,283.954811E-3
420.936584E-3,284.238625E-3
421.253014E-3,284.811974E-3
421.171761E-3,284.842873E-3
421.301079E-3,285.576439E-3
421.516800E-3,285.883713E-3
421.446991E-3,285.912895E-3
421.720505E-3,286.606407E-3
421.563721E-3,286.900520E-3
422.055817E-3,287.824059E-3
421.901321E-3,288.092422E-3
421.729660E-3,287.715912E-3
421.739388E-3,287.853241E-3
421.355438E-3,286.928558E-3
420.827293E-3,285.531235E-3
419.638252E-3,282.829857E-3
418.185425E-3,279.264450E-3
416.357231E-3,274.922562E-3
414.411163E-3,269.882011E-3
412.584686E-3,265.904045E-3
411.338425E-3,262.627602E-3
410.741615E-3,260.595131E-3
410.773087E-3,259.499359E-3
410.537910E-3,259.081650E-3
411.102104E-3,259.883308E-3
411.672020E-3,260.760498E-3
411.897469E-3,261.428261E-3
413.114548E-3,263.434410E-3
414.057541E-3,265.167618E-3
415.129852E-3,266.983795E-3
415.621376E-3,267.996025E-3
415.545845E-3,268.533897E-3
415.989876E-3,269.090652E-3
415.865135E-3,269.143867E-3
415.707779E-3,269.085503E-3
415.638542E-3,268.975639E-3
415.593338E-3,268.720436E-3
415.275764E-3,268.489265E-3
414.424896E-3,267.739677E-3
414.311600E-3,267.634964E-3
414.530754E-3,267.629814E-3
414.685249E-3,268.272972E-3
415.445709E-3,269.574165E-3
415.746117E-3,270.457649E-3
416.251945E-3,271.586037E-3
416.443634E-3,272.091293E-3
416.357231E-3,272.356796E-3
416.609001E-3,272.545052E-3
416.350937E-3,272.336769E-3
416.487694E-3,272.301292E-3
416.262245E-3,271.715927E-3
415.598488E-3,270.795250E-3
415.767860E-3,270.768356E-3
415.566444E-3,270.746613E-3
415.751266E-3,270.858192E-3
415.684891E-3,271.141434E-3
415.671730E-3,271.179199E-3
416.039085E-3,271.812057E-3
415.876007E-3,271.932793E-3
416.113472E-3,272.708130E-3
416.377258E-3,273.360443E-3
416.508293E-3,273.705482E-3
417.153740E-3,274.755478E-3
417.162323E-3,275.263596E-3
417.696762E-3,276.187134E-3
417.868996E-3,276.596832E-3
417.679596E-3,276.714134E-3
417.975426E-3,277.399063E-3
418.131065E-3,277.689171E-3
418.666077E-3,278.261948E-3
418.673515E-3,278.628159E-3
418.586540E-3,278.561211E-3
418.819427E-3,279.107666E-3
418.547630E-3,279.394341E-3
418.666077E-3,279.859543E-3
418.911552E-3,280.132484E-3
419.122124E-3,280.349922E-3
419.423676E-3,280.668068E-3
419.026566E-3,280.577087E-3
419.110107E-3,280.768776E-3
419.237137E-3,280.723000E-3
419.186783E-3,280.601120E-3
419.585037E-3,281.142998E-3
419.490623E-3,281.161880E-3
419.743538E-3,281.603050E-3
419.733238E-3,281.781006E-3
419.433975E-3,281.312370E-3
419.689178E-3,281.708336E-3
419.547844E-3,281.738663E-3
420.016479E-3,282.099152E-3
419.734383E-3,282.184982E-3
419.696617E-3,281.929779E-3
419.954681E-3,282.193565E-3
419.445419E-3,281.892586E-3
419.624519E-3,282.099152E-3
419.693756E-3,282.485962E-3
419.869423E-3,282.607269E-3
420.343781E-3,283.253860E-3
420.191574E-3,283.421516E-3
420.569801E-3,284.021187E-3
420.343781E-3,284.547043E-3
420.722008E-3,284.569931E-3
420.961761E-3,285.354996E-3
421.024132E-3,285.635376E-3
421.439552E-3,286.066246E-3
421.289062E-3,286.330032E-3
421.115685E-3,286.239624E-3
421.179199E-3,286.558914E-3
420.746613E-3,285.807610E-3
420.332336E-3,284.715843E-3
419.489479E-3,282.697105E-3
417.970848E-3,279.394913E-3
416.750908E-3,275.802040E-3
414.807701E-3,271.322823E-3
413.530540E-3,267.612648E-3
412.152672E-3,264.031219E-3
411.291504E-3,261.399078E-3
410.864639E-3,259.910202E-3
410.500717E-3,258.940887E-3
410.707855E-3,259.257889E-3
411.166763E-3,260.193443E-3
411.919212E-3,261.421967E-3
412.967491E-3,263.262749E-3
413.203812E-3,264.415741E-3
414.036942E-3,265.917206E-3
414.740181E-3,267.368317E-3
414.855194E-3,268.408012E-3
415.699196E-3,269.389915E-3
415.601349E-3,269.716644E-3
415.887451E-3,270.094872E-3
415.979576E-3,269.918060E-3
415.993309E-3,269.498062E-3
415.826797E-3,269.686890E-3
415.478325E-3,269.239426E-3
415.870285E-3,269.557571E-3
416.292000E-3,269.857979E-3
416.504288E-3,270.669365E-3
417.007828E-3,271.683884E-3
417.040443E-3,272.290993E-3
417.374039E-3,272.947884E-3
417.293358E-3,273.087502E-3
417.003822E-3,273.078346E-3
417.197227E-3,273.154449E-3
416.544342E-3,272.213173E-3
416.477966E-3,271.738815E-3
416.368675E-3,271.263313E-3
416.044807E-3,270.561218E-3
416.279984E-3,270.613861E-3
415.905762E-3,270.522881E-3
416.144943E-3,270.916557E-3
416.235924E-3,271.076775E-3
416.432190E-3,271.493912E-3
416.503716E-3,272.131920E-3
416.411591E-3,272.395706E-3
416.592979E-3,273.183632E-3
416.770363E-3,273.996735E-3
417.082214E-3,274.149513E-3
417.420959E-3,275.008392E-3
417.275047E-3,275.258446E-3
417.314529E-3,275.670433E-3
417.610359E-3,276.369095E-3
417.515373E-3,276.565361E-3
417.988014E-3,277.292633E-3
418.112183E-3,277.881432E-3
418.058968E-3,278.256798E-3
418.222046E-3,278.366089E-3
417.988586E-3,278.525734E-3
418.259811E-3,278.967476E-3
418.448067E-3,279.441833E-3
418.715858E-3,279.798317E-3
418.907547E-3,279.972839E-3
418.700981E-3,280.082703E-3
418.988228E-3,280.478096E-3
418.644905E-3,280.233765E-3
418.805122E-3,280.625153E-3
418.905258E-3,280.772209E-3
418.568230E-3,280.354500E-3
418.901253E-3,280.973625E-3
419.055176E-3,281.073761E-3
419.208527E-3,281.470299E-3
419.298363E-3,281.289482E-3
419.027138E-3,281.103516E-3
419.264603E-3,281.480026E-3
419.440269E-3,281.468582E-3
419.693184E-3,281.943512E-3
419.653130E-3,281.904030E-3
419.566154E-3,281.779861E-3
419.785881E-3,282.061386E-3
419.522667E-3,282.099724E-3
419.615936E-3,282.261658E-3
420.049667E-3,282.989502E-3
419.788170E-3,283.056450E-3
420.458221E-3,283.765984E-3
420.659065E-3,284.322166E-3
420.927429E-3,285.082054E-3
420.962334E-3,285.345268E-3
420.671082E-3,285.582161E-3
421.096230E-3,286.248779E-3
421.333694E-3,286.320305E-3
421.543121E-3,286.390686E-3
421.360588E-3,285.821342E-3
420.535469E-3,284.220886E-3
419.512367E-3,281.624222E-3
417.580032E-3,277.730370E-3
415.750122E-3,273.747826E-3
414.258957E-3,269.574165E-3
412.592697E-3,265.593338E-3
411.751556E-3,262.550926E-3
410.674667E-3,259.962845E-3
410.301018E-3,258.774376E-3
410.577965E-3,258.427048E-3
410.524750E-3,258.706856E-3
411.611938E-3,260.401154E-3
412.073708E-3,261.416245E-3
413.036156E-3,263.021851E-3
413.687897E-3,264.441490E-3
414.161110E-3,265.584755E-3
414.999962E-3,266.696548E-3
415.121841E-3,267.304230E-3
415.474319E-3,267.740822E-3
415.755844E-3,268.441772E-3
415.199089E-3,268.203735E-3
415.763855E-3,268.163681E-3
415.603638E-3,267.907906E-3
415.699196E-3,267.767715E-3
415.663147E-3,267.806053E-3
415.363884E-3,267.514229E-3
415.908051E-3,268.093872E-3
416.221619E-3,268.779373E-3
416.773224E-3,269.746971E-3
417.225266E-3,271.038437E-3
417.122269E-3,271.464157E-3
417.403793E-3,272.269821E-3
417.034149E-3,272.257805E-3
416.873932E-3,271.939087E-3
417.060471E-3,271.963120E-3
416.704559E-3,271.403503E-3
417.022133E-3,271.454430E-3
416.540909E-3,270.907974E-3
416.599846E-3,270.614433E-3
416.560936E-3,270.146370E-3
416.240501E-3,270.066261E-3
416.412735E-3,270.773506E-3
416.403580E-3,270.930290E-3
416.832161E-3,271.615219E-3
417.094231E-3,272.574234E-3
417.255020E-3,272.779655E-3
417.518806E-3,273.609352E-3
417.535400E-3,273.886299E-3
417.604065E-3,274.330330E-3
418.218040E-3,275.507355E-3
418.284416E-3,275.737953E-3
418.724442E-3,276.393127E-3
418.651772E-3,276.676369E-3
418.812561E-3,277.363586E-3
419.036293E-3,277.801895E-3
419.038010E-3,278.127480E-3
419.548416E-3,278.756905E-3
419.680023E-3,279.078484E-3
419.630814E-3,279.561996E-3
420.046806E-3,279.832649E-3
419.970703E-3,280.083847E-3
420.361519E-3,280.371094E-3
420.173836E-3,280.284691E-3
420.318604E-3,280.492401E-3
420.574951E-3,281.037712E-3
420.300865E-3,281.093216E-3
420.637894E-3,281.266594E-3
420.352936E-3,281.077766E-3
420.185280E-3,281.152153E-3
420.754623E-3,281.410217E-3
420.439339E-3,281.245422E-3
421.001816E-3,281.909752E-3
420.853043E-3,281.890869E-3
421.117401E-3,282.257652E-3
420.705414E-3,282.394981E-3
420.649910E-3,282.203865E-3
421.044731E-3,282.760048E-3
420.937729E-3,282.735443E-3
420.933723E-3,282.708549E-3
421.032143E-3,283.270454E-3
420.860481E-3,282.920265E-3
421.059608E-3,283.308220E-3
420.734596E-3,283.090782E-3
420.680809E-3,283.028984E-3
421.487617E-3,283.880997E-3
421.215820E-3,283.879280E-3
421.649551E-3,284.563637E-3
421.547127E-3,284.474373E-3
421.857834E-3,284.602547E-3
421.631813E-3,285.362434E-3
421.579170E-3,285.348129E-3
422.187424E-3,286.263657E-3
422.060966E-3,286.318588E-3
422.031212E-3,286.941147E-3
421.482468E-3,287.345123E-3
421.255875E-3,286.998940E-3
421.610641E-3,287.426376E-3
421.414375E-3,287.055016E-3
421.010971E-3,285.988998E-3
420.613289E-3,284.398842E-3
419.015694E-3,280.969620E-3
417.510796E-3,277.070618E-3
415.462875E-3,272.312164E-3
413.686180E-3,268.069839E-3
412.227058E-3,263.869858E-3
411.128426E-3,260.674667E-3
410.727310E-3,258.983803E-3
410.296440E-3,257.933235E-3
410.570526E-3,258.188438E-3
410.772514E-3,258.410454E-3
410.959053E-3,259.145164E-3
411.990166E-3,260.854340E-3
412.677383E-3,262.259674E-3
413.152885E-3,263.394356E-3
414.242935E-3,265.197372E-3
414.494705E-3,265.733528E-3
414.820290E-3,266.139221E-3
414.508438E-3,266.172981E-3
414.681244E-3,266.555786E-3
414.796257E-3,266.540337E-3
414.430618E-3,266.123772E-3
414.757919E-3,266.345787E-3
414.563370E-3,265.806198E-3
414.875221E-3,265.621948E-3
414.767647E-3,265.578461E-3
414.764786E-3,265.945244E-3
415.216827E-3,266.604424E-3
415.590477E-3,267.387199E-3
415.859413E-3,268.231201E-3
416.570091E-3,269.480896E-3
416.658783E-3,270.117760E-3
416.983223E-3,270.881081E-3
416.502571E-3,270.703697E-3
416.794395E-3,270.261955E-3
416.749191E-3,270.725441E-3
416.413879E-3,269.971848E-3
416.825867E-3,270.282555E-3
416.651344E-3,269.779015E-3
416.348648E-3,269.882584E-3
416.425896E-3,269.705772E-3
416.288567E-3,269.610214E-3
416.447639E-3,270.091438E-3
416.473961E-3,270.240784E-3
416.313171E-3,270.649338E-3
416.985512E-3,271.785164E-3
417.095375E-3,272.023201E-3
417.378044E-3,272.737312E-3
417.521095E-3,273.278046E-3
418.024063E-3,274.031067E-3
418.211746E-3,274.532318E-3
418.083572E-3,274.822998E-3
418.882942E-3,275.757408E-3
418.858910E-3,276.153374E-3
418.948746E-3,276.211739E-3
419.295502E-3,277.083778E-3
419.312096E-3,277.298355E-3
419.491196E-3,277.654839E-3
419.317245E-3,277.861977E-3
419.582748E-3,278.191566E-3
419.829369E-3,278.845596E-3
419.725227E-3,278.833008E-3
420.143509E-3,279.494476E-3
420.215607E-3,279.521370E-3
420.085144E-3,279.614639E-3
420.372963E-3,280.034637E-3
420.053673E-3,279.736519E-3
420.308304E-3,279.846954E-3
420.115471E-3,279.840088E-3
420.014191E-3,280.324173E-3
420.528603E-3,280.519867E-3
420.355797E-3,280.219460E-3
420.870781E-3,280.900383E-3
420.597267E-3,280.856895E-3
420.636177E-3,281.090355E-3
420.730019E-3,281.031990E-3
420.457649E-3,280.852318E-3
420.669937E-3,281.322670E-3
420.479393E-3,281.275177E-3
420.305443E-3,281.534386E-3
420.692253E-3,281.875992E-3
420.700836E-3,281.863403E-3
421.007538E-3,282.263374E-3
420.895386E-3,282.214737E-3
421.182632E-3,282.433891E-3
421.147156E-3,282.751465E-3
421.051025E-3,282.764053E-3
421.487617E-3,283.185768E-3
421.561432E-3,283.543968E-3
421.511078E-3,283.404350E-3
421.960258E-3,284.201431E-3
421.647835E-3,284.401703E-3
421.804047E-3,284.947586E-3
421.727371E-3,285.230827E-3
421.816635E-3,285.474586E-3
421.960258E-3,286.398697E-3
421.982002E-3,286.129761E-3
422.420311E-3,286.925697E-3
422.286415E-3,287.004662E-3
422.286987E-3,286.652184E-3
422.014618E-3,286.238480E-3
420.936012E-3,284.136772E-3
419.963264E-3,281.431961E-3
418.171692E-3,277.625084E-3
416.320610E-3,272.947311E-3
414.791679E-3,268.918419E-3
413.087654E-3,265.018272E-3
412.194443E-3,262.121773E-3
411.629105E-3,260.183144E-3
411.648560E-3,259.364891E-3
411.845970E-3,259.363747E-3
411.868858E-3,259.604645E-3
412.504578E-3,261.161041E-3
413.093948E-3,262.494278E-3
413.604927E-3,264.033508E-3
414.643478E-3,265.489769E-3
415.100098E-3,266.582680E-3
415.794754E-3,267.755127E-3
416.112900E-3,268.457794E-3
416.725731E-3,268.862343E-3
416.828728E-3,269.345284E-3
416.456223E-3,269.008255E-3
416.820145E-3,269.055748E-3
416.563225E-3,268.810844E-3
416.434479E-3,268.303871E-3
416.582108E-3,268.652916E-3
416.439629E-3,268.632317E-3
416.841316E-3,269.250870E-3
416.994095E-3,269.982719E-3
417.753983E-3,271.074486E-3
418.043518E-3,272.205162E-3
417.847252E-3,272.581100E-3
418.282700E-3,273.471451E-3
417.964554E-3,273.460579E-3
417.741394E-3,273.156166E-3
417.652702E-3,272.626305E-3
417.272758E-3,271.745682E-3
417.010117E-3,270.984650E-3
416.718864E-3,270.409584E-3
416.341209E-3,270.262527E-3
416.437340E-3,270.491409E-3
416.279984E-3,270.580673E-3
416.617584E-3,271.272469E-3
416.853905E-3,271.409798E-3
416.920853E-3,271.844101E-3
417.300224E-3,272.519302E-3
417.305946E-3,273.080063E-3
417.912483E-3,274.155235E-3
418.019485E-3,274.451065E-3
418.195152E-3,274.955750E-3
418.574524E-3,275.627518E-3
418.242645E-3,275.915909E-3
418.465805E-3,276.389694E-3
418.507576E-3,276.769066E-3
418.614006E-3,277.029419E-3
419.214821E-3,277.922630E-3
419.075775E-3,278.136635E-3
419.397354E-3,279.067612E-3
419.325829E-3,279.030991E-3
419.280624E-3,279.523659E-3
419.395065E-3,279.910469E-3
419.317245E-3,279.693031E-3
419.607925E-3,280.394554E-3
419.760704E-3,280.460358E-3
419.543839E-3,280.626869E-3
419.868851E-3,280.978775E-3
419.756126E-3,280.905533E-3
419.792747E-3,281.135559E-3
419.687462E-3,280.989647E-3
419.983864E-3,281.066895E-3
420.171547E-3,281.415367E-3
419.865417E-3,281.215096E-3
420.158958E-3,281.783295E-3
419.938087E-3,281.781578E-3
419.900322E-3,281.873131E-3
420.236778E-3,281.959534E-3
419.958115E-3,281.808472E-3
420.144081E-3,281.857109E-3
420.093155E-3,281.834221E-3
419.921494E-3,281.983566E-3
420.172119E-3,282.341766E-3
419.907188E-3,282.314301E-3
420.057678E-3,282.733154E-3
420.033646E-3,282.818413E-3
420.065117E-3,283.000374E-3
420.466805E-3,283.748817E-3
420.288277E-3,283.895874E-3
421.043015E-3,284.745026E-3
421.018410E-3,285.071754E-3
421.118546E-3,285.376740E-3
421.286201E-3,285.948944E-3
421.214104E-3,286.045647E-3
421.236992E-3,286.346054E-3
421.252441E-3,286.573792E-3
421.167755E-3,286.645317E-3
421.092224E-3,286.410141E-3
420.276833E-3,285.016823E-3
419.511795E-3,283.256721E-3
417.894173E-3,279.796028E-3
416.221619E-3,276.002884E-3
414.993095E-3,271.908188E-3
412.899971E-3,267.183495E-3
412.124634E-3,264.117622E-3
411.132431E-3,261.257172E-3
410.815430E-3,259.208107E-3
410.511017E-3,258.793831E-3
410.297585E-3,258.456230E-3
410.893822E-3,259.529114E-3
411.579323E-3,260.489273E-3
412.363243E-3,262.146378E-3
413.226700E-3,263.839531E-3
413.733101E-3,265.125275E-3
414.590263E-3,266.323471E-3
414.633179E-3,267.102814E-3
414.987946E-3,267.632675E-3
415.560150E-3,268.194008E-3
415.349579E-3,267.897606E-3
415.715218E-3,268.141937E-3
415.443993E-3,267.953682E-3
415.386772E-3,267.455292E-3
415.524101E-3,267.372322E-3
415.152740E-3,267.073059E-3
415.162468E-3,267.067909E-3
415.221405E-3,267.436981E-3
415.431404E-3,268.042374E-3
416.341782E-3,269.496918E-3
416.417313E-3,270.461655E-3
417.110252E-3,271.762276E-3
416.983795E-3,272.373390E-3
416.894531E-3,272.358513E-3
417.054749E-3,272.552490E-3
416.706276E-3,271.885300E-3
417.125130E-3,271.971130E-3
416.871071E-3,271.550560E-3
416.465950E-3,271.084785E-3
416.503716E-3,270.983505E-3
415.997314E-3,270.840454E-3
416.082573E-3,270.619011E-3
415.902328E-3,270.855904E-3
416.219330E-3,271.474457E-3
416.645050E-3,271.949959E-3
416.756058E-3,272.196007E-3
417.326546E-3,272.947311E-3
417.398643E-3,273.909187E-3
417.580032E-3,274.070549E-3
417.954254E-3,274.818993E-3
417.795753E-3,275.320816E-3
418.289566E-3,276.075554E-3
418.532753E-3,276.401711E-3
418.754768E-3,277.254868E-3
419.054604E-3,277.622795E-3
418.912697E-3,277.833366E-3
418.712425E-3,278.011322E-3
418.978500E-3,278.500557E-3
419.004822E-3,278.795815E-3
419.233131E-3,279.503059E-3
419.196510E-3,279.533958E-3
419.823647E-3,280.245781E-3
419.874573E-3,280.599403E-3
419.471741E-3,280.348206E-3
420.075989E-3,280.952454E-3
419.996452E-3,280.971909E-3
420.171547E-3,281.282043E-3
419.950676E-3,281.290054E-3
420.217323E-3,281.585884E-3
420.334625E-3,281.772423E-3
420.237923E-3,281.182480E-3
420.054817E-3,281.490326E-3
420.409584E-3,281.595612E-3
420.174980E-3,281.750107E-3
420.513153E-3,282.246208E-3
420.372391E-3,281.996155E-3
420.772934E-3,282.673073E-3
420.938301E-3,283.007240E-3
420.459366E-3,282.723427E-3
420.783806E-3,283.315086E-3
420.596123E-3,283.510780E-3
421.003532E-3,283.598328E-3
