Notes :


2023-11-23 ¿ÀÈÄ 10:58:53
Volts
Ch : LED 2,Ch : LED 3,
374.007225E-3,206.901169E-3
374.317932E-3,207.797813E-3
374.427223E-3,207.822990E-3
374.560547E-3,207.904243E-3
374.661827E-3,207.886505E-3
374.362564E-3,207.423592E-3
374.340820E-3,207.162666E-3
374.291611E-3,207.012177E-3
374.406624E-3,206.819344E-3
374.573135E-3,207.454491E-3
374.594307E-3,207.580948E-3
374.991989E-3,208.321953E-3
375.252914E-3,208.744812E-3
375.225449E-3,209.255791E-3
375.623703E-3,209.661484E-3
375.025177E-3,209.347916E-3
375.352478E-3,209.541321E-3
375.341606E-3,209.252357E-3
375.326729E-3,209.001732E-3
375.425720E-3,208.984566E-3
374.826050E-3,208.554840E-3
375.452614E-3,208.662987E-3
375.148201E-3,208.930779E-3
375.250053E-3,208.582878E-3
375.641441E-3,209.309578E-3
375.524712E-3,209.480667E-3
376.035690E-3,210.344696E-3
375.987053E-3,211.148071E-3
376.052856E-3,210.923195E-3
376.801300E-3,212.045288E-3
376.970673E-3,212.627792E-3
377.474213E-3,213.463211E-3
377.675056E-3,213.983917E-3
377.584076E-3,214.350128E-3
377.962875E-3,214.880562E-3
377.819824E-3,215.107155E-3
378.369141E-3,215.654182E-3
378.738213E-3,215.776062E-3
378.191185E-3,215.696526E-3
378.765106E-3,216.190910E-3
378.535652E-3,216.283035E-3
378.790855E-3,216.693878E-3
378.826904E-3,216.540527E-3
378.645515E-3,216.661263E-3
378.857231E-3,217.019463E-3
378.760529E-3,216.826057E-3
379.070663E-3,217.234039E-3
379.215431E-3,216.865540E-3
378.753090E-3,217.008591E-3
379.155922E-3,217.264366E-3
378.903580E-3,217.021751E-3
378.697014E-3,217.447472E-3
378.980255E-3,217.511559E-3
378.697014E-3,217.401695E-3
379.134750E-3,217.708397E-3
378.909302E-3,217.570496E-3
379.045486E-3,217.747307E-3
379.099846E-3,217.993927E-3
379.380798E-3,218.368721E-3
379.531288E-3,218.790436E-3
379.159355E-3,218.403625E-3
379.324722E-3,218.756676E-3
379.508400E-3,219.130898E-3
379.456329E-3,219.138908E-3
380.064011E-3,219.783783E-3
379.658318E-3,219.618988E-3
379.893494E-3,219.931984E-3
379.899788E-3,220.366287E-3
380.132103E-3,220.222092E-3
380.330658E-3,220.858383E-3
379.947853E-3,220.426369E-3
380.348396E-3,220.851517E-3
380.181313E-3,221.044350E-3
380.241966E-3,221.157646E-3
380.807877E-3,221.677208E-3
380.349541E-3,221.526718E-3
380.496025E-3,221.640015E-3
380.554962E-3,221.746445E-3
380.302048E-3,221.900368E-3
380.826759E-3,222.313499E-3
380.323792E-3,222.144127E-3
380.635071E-3,222.504616E-3
380.719185E-3,222.850800E-3
380.614471E-3,223.033333E-3
381.125450E-3,223.528862E-3
380.841637E-3,223.318291E-3
380.830193E-3,223.571205E-3
381.158066E-3,223.954010E-3
380.996704E-3,223.772049E-3
381.443024E-3,224.379158E-3
380.896568E-3,223.799515E-3
381.094551E-3,223.492813E-3
380.740929E-3,222.598457E-3
379.701805E-3,220.422363E-3
378.758812E-3,217.959023E-3
376.784706E-3,213.870621E-3
375.126457E-3,210.321236E-3
373.376083E-3,206.712914E-3
371.944427E-3,203.274536E-3
371.285820E-3,201.464653E-3
370.445251E-3,199.853897E-3
370.713043E-3,199.503708E-3
371.030045E-3,199.758911E-3
371.250343E-3,200.568581E-3
372.360420E-3,202.166176E-3
372.982407E-3,203.674507E-3
373.961449E-3,205.476952E-3
374.769974E-3,207.110596E-3
375.207710E-3,208.110237E-3
376.131821E-3,209.593391E-3
376.433372E-3,210.068321E-3
376.761246E-3,210.841370E-3
376.761246E-3,211.067390E-3
376.566696E-3,211.014748E-3
376.638222E-3,211.012459E-3
376.516914E-3,210.652542E-3
376.532936E-3,210.713768E-3
376.424217E-3,210.504913E-3
376.416779E-3,210.357285E-3
376.971245E-3,210.927200E-3
376.774406E-3,211.414146E-3
377.121735E-3,212.065887E-3
377.221870E-3,212.429237E-3
377.073669E-3,212.411499E-3
377.384377E-3,212.564850E-3
377.118301E-3,212.127113E-3
376.931763E-3,211.652184E-3
376.852798E-3,211.195564E-3
376.409912E-3,210.714340E-3
376.648521E-3,210.575294E-3
376.234245E-3,210.278893E-3
376.266289E-3,210.534096E-3
376.458549E-3,210.626793E-3
376.569557E-3,210.874557E-3
376.960945E-3,211.307144E-3
376.943207E-3,211.708260E-3
377.323723E-3,212.460136E-3
377.594376E-3,213.283539E-3
377.835846E-3,213.939285E-3
378.515625E-3,214.474869E-3
378.157425E-3,214.805031E-3
378.419495E-3,215.484810E-3
378.727913E-3,216.011810E-3
378.619766E-3,216.486168E-3
379.072952E-3,216.926765E-3
378.893852E-3,216.814613E-3
378.963661E-3,217.214584E-3
379.134750E-3,217.508125E-3
379.083252E-3,217.308426E-3
379.372787E-3,217.938423E-3
379.072952E-3,217.832565E-3
379.126740E-3,217.947006E-3
379.316139E-3,218.286896E-3
379.206848E-3,218.022537E-3
379.514694E-3,218.898582E-3
379.277229E-3,218.505478E-3
379.549026E-3,218.712616E-3
379.478073E-3,218.562126E-3
379.095268E-3,218.219948E-3
379.668617E-3,218.925476E-3
379.248047E-3,218.807602E-3
379.482651E-3,218.972397E-3
379.442596E-3,219.110298E-3
379.265213E-3,218.666840E-3
379.602242E-3,219.337463E-3
379.575920E-3,219.243622E-3
379.363060E-3,219.532585E-3
379.573059E-3,219.638443E-3
379.239464E-3,219.550896E-3
379.915810E-3,220.322227E-3
379.738426E-3,220.063591E-3
379.865456E-3,220.232964E-3
379.999924E-3,220.598030E-3
379.648018E-3,220.578575E-3
380.338669E-3,221.368790E-3
380.206490E-3,221.315002E-3
380.295753E-3,221.967316E-3
380.037689E-3,221.899223E-3
380.038834E-3,221.728134E-3
380.651665E-3,222.311783E-3
380.461693E-3,222.160149E-3
380.560112E-3,222.330093E-3
380.597305E-3,222.512627E-3
380.122375E-3,222.566414E-3
380.821609E-3,222.962952E-3
380.501175E-3,222.901154E-3
380.840492E-3,223.227882E-3
381.172371E-3,223.618126E-3
380.696297E-3,223.638725E-3
381.401253E-3,224.366570E-3
381.159210E-3,224.395180E-3
381.544304E-3,224.589729E-3
381.362915E-3,225.005722E-3
381.061935E-3,224.968529E-3
381.516266E-3,225.219727E-3
381.315422E-3,225.158501E-3
381.290817E-3,225.323296E-3
381.184387E-3,225.216293E-3
380.407906E-3,223.574638E-3
379.966736E-3,221.885490E-3
378.485298E-3,218.826485E-3
377.161217E-3,215.373230E-3
375.399399E-3,211.679077E-3
373.412704E-3,207.619858E-3
372.465134E-3,204.713058E-3
371.451759E-3,202.243423E-3
370.773697E-3,200.977707E-3
370.808601E-3,200.608063E-3
370.841789E-3,200.716209E-3
371.710968E-3,201.707268E-3
372.223663E-3,202.800179E-3
373.241615E-3,204.393196E-3
374.148560E-3,206.192207E-3
374.599457E-3,207.464218E-3
375.500107E-3,209.050369E-3
375.735283E-3,209.966469E-3
376.238823E-3,210.942078E-3
376.725769E-3,211.947441E-3
376.560402E-3,211.901093E-3
376.865959E-3,212.148857E-3
376.588440E-3,211.937714E-3
376.473427E-3,211.715698E-3
376.714325E-3,211.648178E-3
376.261139E-3,211.530876E-3
376.448822E-3,211.707687E-3
376.373291E-3,211.760902E-3
376.534653E-3,212.207222E-3
376.831627E-3,213.164520E-3
377.071953E-3,213.226318E-3
377.372932E-3,213.755035E-3
377.151489E-3,213.424873E-3
376.845932E-3,213.107872E-3
377.169228E-3,212.950516E-3
376.795006E-3,212.521362E-3
376.876259E-3,212.297630E-3
376.368141E-3,211.733437E-3
376.083183E-3,211.176682E-3
376.385307E-3,211.489677E-3
376.309776E-3,211.442757E-3
376.846504E-3,211.758041E-3
376.632500E-3,212.248421E-3
376.829338E-3,212.483025E-3
377.122879E-3,213.273811E-3
377.378082E-3,213.603973E-3
378.027534E-3,214.625359E-3
378.281593E-3,215.037918E-3
378.680420E-3,216.050720E-3
378.750801E-3,216.660118E-3
378.770828E-3,216.864395E-3
379.353905E-3,217.704964E-3
379.177666E-3,217.843437E-3
379.318428E-3,218.438530E-3
379.623985E-3,218.929482E-3
379.449463E-3,218.860817E-3
379.990768E-3,219.494820E-3
379.686928E-3,219.404411E-3
379.640579E-3,219.317436E-3
379.947853E-3,219.779778E-3
379.673767E-3,219.671059E-3
380.164719E-3,220.095062E-3
379.782486E-3,219.752312E-3
379.966164E-3,220.304489E-3
379.850006E-3,220.417786E-3
379.562187E-3,220.018387E-3
380.311775E-3,220.390320E-3
379.851723E-3,220.381737E-3
379.836845E-3,220.572853E-3
379.797935E-3,220.423508E-3
379.591370E-3,220.204926E-3
380.294609E-3,220.587158E-3
379.713821E-3,220.502472E-3
380.009651E-3,220.652962E-3
380.116081E-3,220.979691E-3
379.809380E-3,220.602608E-3
380.363274E-3,221.150780E-3
379.939270E-3,220.943642E-3
379.938698E-3,221.111298E-3
380.339241E-3,221.308708E-3
380.040550E-3,221.412849E-3
380.468559E-3,222.056007E-3
380.292892E-3,221.969604E-3
380.324936E-3,222.058296E-3
380.602455E-3,222.804451E-3
380.560112E-3,222.828484E-3
380.772972E-3,223.333740E-3
380.598450E-3,223.106575E-3
380.799294E-3,223.330879E-3
380.958366E-3,223.967171E-3
380.788994E-3,223.886490E-3
381.112862E-3,224.107933E-3
380.907440E-3,224.010658E-3
381.188965E-3,224.087906E-3
381.086540E-3,224.491882E-3
380.894852E-3,224.411201E-3
381.210136E-3,224.745369E-3
380.890846E-3,224.406052E-3
381.140327E-3,224.654388E-3
381.457329E-3,225.091553E-3
381.373215E-3,225.073814E-3
381.439590E-3,225.207138E-3
381.285095E-3,225.289536E-3
381.186676E-3,225.668335E-3
381.801224E-3,226.424789E-3
381.596375E-3,226.142120E-3
381.646156E-3,226.420212E-3
381.492805E-3,226.328659E-3
381.539154E-3,226.239395E-3
381.722832E-3,226.120377E-3
380.747795E-3,224.705887E-3
380.047417E-3,222.249985E-3
378.367996E-3,218.788719E-3
376.583290E-3,215.115738E-3
375.237465E-3,211.304283E-3
373.578644E-3,207.467651E-3
372.873116E-3,204.969978E-3
372.133827E-3,202.770996E-3
372.047997E-3,201.753044E-3
372.207069E-3,201.420593E-3
372.336960E-3,201.597404E-3
373.288536E-3,202.989578E-3
373.836708E-3,203.926849E-3
374.695015E-3,205.567360E-3
375.784492E-3,206.954384E-3
376.276588E-3,208.137703E-3
376.919746E-3,209.991074E-3
377.046204E-3,210.584450E-3
377.405548E-3,211.622429E-3
377.780914E-3,212.283897E-3
377.636147E-3,212.048721E-3
377.628708E-3,212.038422E-3
377.420425E-3,211.506271E-3
377.444458E-3,211.270523E-3
377.728271E-3,211.494255E-3
377.283096E-3,210.997581E-3
377.091980E-3,210.946655E-3
377.050209E-3,210.961533E-3
377.395248E-3,211.601257E-3
378.072166E-3,212.318230E-3
377.874184E-3,212.697029E-3
378.441238E-3,213.205147E-3
378.438950E-3,213.553047E-3
378.493881E-3,213.605118E-3
378.594017E-3,213.597679E-3
378.208923E-3,212.981415E-3
378.522491E-3,213.171959E-3
378.175163E-3,212.656975E-3
378.135109E-3,212.329102E-3
377.889061E-3,212.351418E-3
377.744293E-3,212.223244E-3
378.400040E-3,212.767982E-3
378.270721E-3,212.912750E-3
378.291893E-3,213.245201E-3
378.561401E-3,213.652039E-3
378.494453E-3,214.070892E-3
379.249191E-3,215.205574E-3
379.352188E-3,215.195274E-3
379.735565E-3,216.095352E-3
380.013084E-3,216.746521E-3
379.911804E-3,217.026901E-3
380.292320E-3,217.921257E-3
380.097771E-3,218.050003E-3
380.349541E-3,218.091774E-3
380.902863E-3,218.758392E-3
380.707741E-3,219.029045E-3
380.940628E-3,219.465065E-3
380.795288E-3,219.279671E-3
380.839348E-3,219.340897E-3
381.135178E-3,219.763184E-3
381.020737E-3,219.709969E-3
381.324005E-3,220.292473E-3
380.932617E-3,220.097923E-3
380.672836E-3,220.067024E-3
381.515121E-3,220.381737E-3
381.098557E-3,220.439529E-3
381.183815E-3,220.468712E-3
380.985260E-3,220.373726E-3
381.152916E-3,219.962311E-3
381.536293E-3,220.519066E-3
381.325150E-3,220.351410E-3
381.442451E-3,220.729637E-3
381.449890E-3,220.552826E-3
381.309128E-3,220.876694E-3
381.650734E-3,221.325874E-3
381.428146E-3,221.109581E-3
381.881332E-3,221.540451E-3
381.871605E-3,221.600533E-3
381.957436E-3,222.078323E-3
382.000923E-3,222.247696E-3
381.876755E-3,222.113228E-3
382.371140E-3,222.858238E-3
382.117081E-3,222.748375E-3
382.382584E-3,222.934914E-3
382.427788E-3,223.287392E-3
382.254410E-3,223.115158E-3
382.588577E-3,223.654747E-3
382.354546E-3,223.539162E-3
382.622910E-3,223.760033E-3
382.827759E-3,224.115372E-3
382.695007E-3,224.199486E-3
382.793999E-3,224.735069E-3
382.578278E-3,224.366570E-3
382.607460E-3,224.203491E-3
383.062363E-3,224.815750E-3
382.744789E-3,224.628067E-3
382.989693E-3,225.018883E-3
382.905579E-3,224.729919E-3
383.315849E-3,225.224876E-3
383.412552E-3,225.747871E-3
383.308983E-3,225.426292E-3
383.388519E-3,225.850296E-3
383.163071E-3,225.950432E-3
383.226585E-3,226.116371E-3
383.541298E-3,226.558685E-3
383.326149E-3,226.449394E-3
383.727264E-3,227.063370E-3
383.597946E-3,226.800156E-3
383.432579E-3,227.210426E-3
383.678627E-3,227.049065E-3
383.155060E-3,226.052284E-3
382.965660E-3,225.145340E-3
381.691360E-3,222.355843E-3
380.142403E-3,219.328308E-3
378.812027E-3,215.658760E-3
376.642227E-3,211.536598E-3
375.549889E-3,208.545685E-3
374.205208E-3,205.431175E-3
373.663330E-3,203.835297E-3
373.564339E-3,203.442192E-3
373.347473E-3,202.907753E-3
374.179459E-3,203.914833E-3
374.755096E-3,204.936790E-3
375.503540E-3,206.157303E-3
376.387024E-3,207.974052E-3
376.793861E-3,209.143066E-3
378.084755E-3,211.168671E-3
378.384018E-3,212.361717E-3
378.963661E-3,212.893867E-3
379.388237E-3,213.912392E-3
378.997993E-3,214.059448E-3
379.607391E-3,214.773560E-3
379.179382E-3,214.423370E-3
379.026604E-3,214.386177E-3
379.246902E-3,214.109802E-3
378.761673E-3,213.461494E-3
379.176521E-3,213.887787E-3
378.827477E-3,213.669205E-3
379.007721E-3,214.014244E-3
379.637718E-3,214.681435E-3
379.669762E-3,214.559555E-3
379.938698E-3,215.231323E-3
379.668045E-3,214.990425E-3
379.364204E-3,214.711189E-3
379.522133E-3,214.686012E-3
378.975677E-3,213.959885E-3
378.943634E-3,213.466072E-3
378.482437E-3,212.888718E-3
378.420067E-3,212.625504E-3
378.620338E-3,213.062668E-3
378.155708E-3,212.801743E-3
378.574562E-3,213.068962E-3
378.567123E-3,213.236618E-3
378.753090E-3,213.747597E-3
379.236031E-3,214.470863E-3
379.384232E-3,214.756966E-3
379.852867E-3,215.475655E-3
380.063438E-3,216.018677E-3
380.255699E-3,216.823769E-3
380.822754E-3,217.511559E-3
380.557823E-3,217.860603E-3
381.151199E-3,218.515778E-3
380.948639E-3,218.933487E-3
381.215286E-3,219.364929E-3
381.318283E-3,219.747162E-3
381.130028E-3,219.605255E-3
381.727982E-3,220.170593E-3
381.471062E-3,220.181465E-3
381.760025E-3,220.440674E-3
381.915665E-3,220.539093E-3
381.455612E-3,220.429802E-3
381.924820E-3,220.871544E-3
381.603813E-3,220.890999E-3
381.500244E-3,220.916176E-3
381.769180E-3,221.195984E-3
381.386375E-3,220.676994E-3
381.818390E-3,220.976830E-3
381.523705E-3,221.049500E-3
381.296539E-3,220.528793E-3
381.738281E-3,221.142769E-3
381.355476E-3,220.852661E-3
381.563187E-3,221.087265E-3
381.323433E-3,221.124458E-3
380.984116E-3,221.495247E-3
381.430435E-3,221.743011E-3
381.330299E-3,221.225739E-3
381.403542E-3,221.603394E-3
381.222153E-3,221.581078E-3
381.646729E-3,221.574783E-3
381.931114E-3,222.081184E-3
381.569481E-3,222.153854E-3
381.642151E-3,222.446823E-3
381.748581E-3,222.742653E-3
381.706238E-3,223.123169E-3
382.066154E-3,223.370934E-3
381.886482E-3,223.390388E-3
381.970596E-3,223.443604E-3
382.049561E-3,223.766899E-3
381.895638E-3,223.839569E-3
382.255554E-3,224.233246E-3
381.955147E-3,224.065018E-3
382.213211E-3,224.275017E-3
382.434082E-3,224.174309E-3
382.449532E-3,224.575424E-3
382.574844E-3,225.166512E-3
382.252121E-3,225.028038E-3
382.777977E-3,225.524139E-3
382.803154E-3,225.965309E-3
382.739639E-3,226.032257E-3
383.004570E-3,226.397324E-3
382.585144E-3,226.269722E-3
383.044052E-3,226.939774E-3
383.012009E-3,226.936340E-3
383.434296E-3,226.620483E-3
383.189392E-3,226.683998E-3
382.364845E-3,225.472069E-3
382.256699E-3,224.334526E-3
380.953789E-3,221.789360E-3
379.443741E-3,218.203354E-3
378.037262E-3,214.776993E-3
375.901222E-3,210.603333E-3
374.989128E-3,208.110809E-3
373.777771E-3,205.610847E-3
372.942924E-3,203.666496E-3
373.058510E-3,203.425598E-3
372.821617E-3,203.009033E-3
373.657036E-3,204.396629E-3
374.363136E-3,204.973984E-3
375.054359E-3,206.440544E-3
376.027107E-3,208.098793E-3
376.371002E-3,209.202576E-3
377.604103E-3,211.090851E-3
377.901649E-3,211.895943E-3
378.307343E-3,212.857819E-3
378.661537E-3,213.674355E-3
378.287888E-3,213.783073E-3
378.809166E-3,214.347267E-3
378.559685E-3,214.260292E-3
377.945137E-3,214.004517E-3
378.292465E-3,213.733292E-3
377.996063E-3,213.312721E-3
378.227806E-3,213.740730E-3
378.416061E-3,213.859749E-3
378.566551E-3,213.972473E-3
379.130173E-3,214.832497E-3
379.128456E-3,215.140343E-3
379.292679E-3,215.353775E-3
379.191399E-3,215.141487E-3
379.152489E-3,215.079689E-3
378.989983E-3,215.095139E-3
378.441238E-3,214.329529E-3
378.519630E-3,213.820267E-3
378.123665E-3,213.245201E-3
377.899361E-3,213.419151E-3
378.299332E-3,213.291550E-3
377.980614E-3,212.970543E-3
378.337097E-3,213.229179E-3
378.361702E-3,213.431168E-3
378.759384E-3,214.007378E-3
379.123878E-3,214.782143E-3
379.081535E-3,215.110016E-3
379.504967E-3,215.904236E-3
379.602814E-3,216.367149E-3
380.034828E-3,217.204857E-3
380.390167E-3,217.921829E-3
380.372429E-3,218.064308E-3
380.661392E-3,218.876839E-3
380.685425E-3,219.087982E-3
380.896568E-3,219.677353E-3
381.212425E-3,220.112228E-3
381.100845E-3,220.149994E-3
381.305695E-3,220.446396E-3
381.203270E-3,220.491600E-3
381.369209E-3,220.703316E-3
381.487083E-3,221.108437E-3
381.358337E-3,221.159935E-3
381.425858E-3,221.174240E-3
381.431007E-3,220.955086E-3
381.369209E-3,221.114731E-3
381.663322E-3,221.488380E-3
381.464195E-3,221.399689E-3
381.543159E-3,221.368217E-3
381.616974E-3,221.222305E-3
381.665039E-3,221.236610E-3
381.828117E-3,221.543312E-3
381.671333E-3,221.345901E-3
381.714821E-3,221.461487E-3
381.534576E-3,221.749306E-3
381.586075E-3,221.705246E-3
382.022667E-3,221.948433E-3
381.638718E-3,221.873474E-3
381.848145E-3,221.985054E-3
381.849861E-3,221.991920E-3
381.851006E-3,222.088623E-3
382.156563E-3,222.814178E-3
381.918526E-3,222.790146E-3
382.149696E-3,223.205566E-3
382.165718E-3,223.221016E-3
382.047844E-3,223.207283E-3
382.431221E-3,223.801231E-3
382.168579E-3,223.915672E-3
382.585716E-3,224.345398E-3
382.217216E-3,224.284172E-3
382.308769E-3,224.271011E-3
382.662964E-3,224.954796E-3
382.396317E-3,224.351692E-3
382.610321E-3,224.705887E-3
382.601738E-3,224.471283E-3
382.463837E-3,225.027466E-3
382.879257E-3,225.173950E-3
382.392311E-3,224.813461E-3
382.744789E-3,225.395393E-3
382.870674E-3,225.349617E-3
382.991982E-3,225.897789E-3
383.322716E-3,226.196480E-3
382.871246E-3,225.954437E-3
383.179092E-3,226.394463E-3
383.326721E-3,226.595879E-3
383.585358E-3,227.054787E-3
383.576775E-3,227.376938E-3
383.470917E-3,227.252197E-3
383.560181E-3,227.331161E-3
383.480644E-3,227.367210E-3
382.973671E-3,226.870537E-3
382.745361E-3,225.381088E-3
381.393814E-3,222.247696E-3
380.099487E-3,219.264793E-3
378.287315E-3,215.410995E-3
376.457405E-3,211.371231E-3
375.179100E-3,208.179474E-3
373.686218E-3,205.348778E-3
373.318291E-3,203.517151E-3
373.000145E-3,202.647400E-3
372.754097E-3,202.667999E-3
373.333740E-3,202.942657E-3
373.689079E-3,203.670502E-3
374.737358E-3,205.209160E-3
375.577927E-3,206.613350E-3
376.201630E-3,207.934570E-3
377.077675E-3,209.616852E-3
377.227592E-3,210.491753E-3
377.937698E-3,211.667633E-3
378.296471E-3,212.213516E-3
378.063583E-3,212.003517E-3
378.323364E-3,212.460709E-3
378.068733E-3,212.258148E-3
377.998924E-3,211.990356E-3
377.493668E-3,211.712265E-3
377.701950E-3,211.377525E-3
377.668190E-3,211.161232E-3
377.463341E-3,210.970688E-3
377.908516E-3,211.259079E-3
377.985764E-3,211.836433E-3
378.044128E-3,212.236404E-3
378.454399E-3,212.962532E-3
378.590012E-3,213.177681E-3
378.972816E-3,213.722992E-3
378.895569E-3,213.546753E-3
378.079033E-3,212.833786E-3
378.471565E-3,212.943649E-3
378.247833E-3,212.713623E-3
378.592873E-3,212.651253E-3
378.404045E-3,212.426376E-3
378.208351E-3,212.231827E-3
378.460121E-3,212.519073E-3
378.307343E-3,212.729073E-3
378.892708E-3,213.268661E-3
379.096413E-3,213.636017E-3
379.106712E-3,213.586807E-3
379.360199E-3,214.386749E-3
379.510689E-3,214.954948E-3
380.212212E-3,215.925407E-3
380.561829E-3,216.165161E-3
380.041122E-3,216.100502E-3
380.445671E-3,217.091560E-3
380.475998E-3,217.597389E-3
381.130600E-3,218.470001E-3
381.011581E-3,218.587303E-3
380.914307E-3,218.672562E-3
381.238174E-3,219.049644E-3
381.293106E-3,218.999290E-3
381.687355E-3,219.656181E-3
381.604385E-3,219.364357E-3
381.475639E-3,219.375801E-3
381.615829E-3,219.692230E-3
381.464195E-3,219.982910E-3
381.764030E-3,220.198631E-3
381.661034E-3,220.092773E-3
381.584358E-3,219.864464E-3
381.723404E-3,220.239258E-3
381.477356E-3,220.080757E-3
381.750298E-3,220.489311E-3
381.522560E-3,220.447540E-3
381.677628E-3,220.289040E-3
381.800079E-3,220.584297E-3
381.704521E-3,220.431519E-3
381.942558E-3,220.710182E-3
381.881905E-3,220.753098E-3
381.758881E-3,220.826340E-3
382.119370E-3,221.186256E-3
381.639290E-3,221.068954E-3
381.936264E-3,221.234894E-3
382.123375E-3,221.615982E-3
382.046127E-3,221.576500E-3
382.478142E-3,222.076607E-3
382.384300E-3,222.174454E-3
382.645798E-3,222.764969E-3
382.526779E-3,223.038483E-3
382.538795E-3,222.889709E-3
382.804871E-3,223.434448E-3
382.720184E-3,223.506546E-3
383.016014E-3,224.055290E-3
382.937050E-3,223.925972E-3
382.808876E-3,224.019241E-3
383.171082E-3,224.225807E-3
383.022881E-3,224.277306E-3
383.234024E-3,224.648666E-3
383.474350E-3,224.657822E-3
382.826042E-3,224.479866E-3
383.231163E-3,224.826622E-3
383.161926E-3,224.646378E-3
383.477783E-3,225.042343E-3
383.364487E-3,224.928474E-3
383.381081E-3,224.991989E-3
383.746719E-3,225.661469E-3
383.561897E-3,225.521851E-3
383.782768E-3,226.110077E-3
383.777618E-3,225.977898E-3
383.753586E-3,226.105499E-3
384.002495E-3,226.345825E-3
383.732986E-3,226.559258E-3
384.102058E-3,226.889992E-3
384.154701E-3,226.778412E-3
383.936119E-3,226.839066E-3
384.100342E-3,226.878548E-3
383.530998E-3,226.309776E-3
383.064651E-3,225.268936E-3
382.301903E-3,223.104286E-3
380.834770E-3,219.872475E-3
379.650307E-3,216.721344E-3
377.711105E-3,212.763977E-3
376.445961E-3,209.678650E-3
375.116158E-3,206.825066E-3
374.184608E-3,204.660988E-3
374.157715E-3,204.051590E-3
373.856163E-3,203.386116E-3
374.438095E-3,204.136848E-3
375.091553E-3,205.019760E-3
375.632858E-3,205.980492E-3
376.491737E-3,207.868767E-3
376.959801E-3,208.980560E-3
378.021240E-3,210.422516E-3
378.466415E-3,211.723709E-3
378.804016E-3,212.191200E-3
379.323578E-3,213.274384E-3
379.161072E-3,213.466072E-3
379.469490E-3,213.708687E-3
378.883553E-3,213.732147E-3
378.630066E-3,213.166237E-3
379.048920E-3,213.253212E-3
378.539085E-3,212.509346E-3
378.717613E-3,212.575722E-3
378.802299E-3,212.460709E-3
378.756523E-3,212.736511E-3
379.325867E-3,213.660622E-3
379.279518E-3,213.771629E-3
379.547882E-3,214.421654E-3
379.529572E-3,214.762688E-3
379.200554E-3,214.061165E-3
379.862022E-3,214.589882E-3
379.319000E-3,213.695526E-3
379.296112E-3,213.455200E-3
379.188538E-3,213.185692E-3
378.733063E-3,212.471581E-3
378.866959E-3,212.586594E-3
378.222656E-3,212.267303E-3
378.652382E-3,212.495613E-3
378.826904E-3,212.643814E-3
378.868103E-3,213.109589E-3
379.468918E-3,213.991928E-3
379.253197E-3,214.152145E-3
379.591942E-3,214.862823E-3
380.087471E-3,215.583801E-3
380.043411E-3,216.043854E-3
380.499458E-3,217.021179E-3
380.402184E-3,217.167091E-3
381.004143E-3,217.765617E-3
380.890274E-3,218.124390E-3
380.875969E-3,218.190193E-3
381.340027E-3,218.993568E-3
381.088257E-3,218.933487E-3
381.344032E-3,219.355202E-3
381.495094E-3,219.647598E-3
381.251907E-3,219.477654E-3
381.642723E-3,219.874763E-3
381.182098E-3,219.653893E-3
381.392097E-3,219.963455E-3
381.341171E-3,220.020103E-3
381.244469E-3,219.883919E-3
381.722832E-3,220.504761E-3
381.309128E-3,219.989204E-3
381.466484E-3,220.048141E-3
381.423569E-3,220.355988E-3
381.257057E-3,220.127106E-3
381.619263E-3,220.478439E-3
381.435585E-3,220.289612E-3
381.471062E-3,220.313644E-3
381.454468E-3,220.533371E-3
381.345177E-3,220.390320E-3
381.863594E-3,220.967102E-3
381.239319E-3,220.654106E-3
381.320000E-3,220.903587E-3
381.667900E-3,221.344185E-3
381.306267E-3,221.095276E-3
382.031822E-3,221.789360E-3
381.481361E-3,221.596527E-3
381.725121E-3,221.885490E-3
381.892776E-3,221.959877E-3
381.801796E-3,221.969604E-3
382.478142E-3,222.848511E-3
382.124519E-3,222.827339E-3
382.350540E-3,222.902298E-3
382.440948E-3,223.385811E-3
382.027245E-3,223.178673E-3
382.549667E-3,223.832703E-3
382.314491E-3,223.786926E-3
382.669830E-3,224.012947E-3
382.681847E-3,224.164581E-3
382.374573E-3,223.968315E-3
382.758522E-3,224.660110E-3
382.677841E-3,224.843216E-3
382.992554E-3,225.170517E-3
383.034325E-3,225.132179E-3
383.073807E-3,224.974823E-3
382.946777E-3,225.612831E-3
383.076668E-3,225.592232E-3
383.377647E-3,225.778198E-3
383.360481E-3,226.231956E-3
383.276939E-3,226.195908E-3
383.533287E-3,226.555824E-3
383.337021E-3,226.198769E-3
383.405685E-3,226.253700E-3
382.945061E-3,225.936699E-3
382.573700E-3,224.703026E-3
382.010078E-3,223.028183E-3
380.359268E-3,219.764328E-3
379.045486E-3,216.148567E-3
377.522278E-3,212.627220E-3
375.849152E-3,209.328461E-3
375.013733E-3,207.023048E-3
373.572922E-3,204.645538E-3
373.273087E-3,203.579521E-3
373.419571E-3,203.311157E-3
373.371506E-3,203.256798E-3
374.432373E-3,204.720497E-3
374.952507E-3,205.711555E-3
375.909233E-3,207.180977E-3
376.696587E-3,208.469582E-3
376.974106E-3,209.563637E-3
378.077888E-3,211.223030E-3
378.251839E-3,212.151146E-3
378.584290E-3,212.914467E-3
378.586006E-3,213.239479E-3
378.527641E-3,213.246918E-3
378.830338E-3,213.304710E-3
378.650093E-3,213.123894E-3
378.710175E-3,212.979698E-3
378.542519E-3,212.462997E-3
378.304482E-3,212.109947E-3
378.622627E-3,212.629509E-3
378.407478E-3,212.860107E-3
378.967667E-3,213.569069E-3
379.108429E-3,213.987350E-3
379.230881E-3,214.126968E-3
379.503250E-3,214.734650E-3
379.010582E-3,214.197350E-3
379.160500E-3,214.382744E-3
379.301834E-3,214.227104E-3
378.693008E-3,213.650322E-3
378.761101E-3,213.181114E-3
378.321648E-3,212.505341E-3
378.475571E-3,212.583160E-3
378.535080E-3,212.745667E-3
378.273010E-3,212.565422E-3
378.720474E-3,213.260078E-3
378.574562E-3,213.365936E-3
379.103279E-3,213.598824E-3
379.352188E-3,214.415932E-3
379.477501E-3,214.855385E-3
380.055428E-3,215.626144E-3
380.068588E-3,216.042137E-3
380.172157E-3,216.652107E-3
380.557823E-3,217.344475E-3
380.669403E-3,217.716980E-3
380.994987E-3,218.245125E-3
380.869675E-3,218.155289E-3
380.983543E-3,218.591881E-3
381.172371E-3,219.318581E-3
381.179237E-3,219.167519E-3
381.592369E-3,219.717979E-3
381.197548E-3,219.470787E-3
381.166649E-3,219.743156E-3
381.303406E-3,219.865036E-3
381.432724E-3,219.850731E-3
381.719398E-3,219.982910E-3
381.380081E-3,219.765472E-3
381.476784E-3,219.796944E-3
381.584930E-3,220.085907E-3
381.533432E-3,220.057297E-3
381.744576E-3,220.367432E-3
381.253052E-3,220.219231E-3
381.085396E-3,220.087624E-3
381.576920E-3,220.323372E-3
381.500244E-3,220.564842E-3
381.532288E-3,220.802307E-3
381.495667E-3,220.470428E-3
381.592941E-3,220.665550E-3
381.847000E-3,221.149635E-3
381.715393E-3,221.182251E-3
382.023239E-3,221.493530E-3
381.840134E-3,221.327591E-3
381.744003E-3,221.476936E-3
382.143974E-3,221.791077E-3
382.105064E-3,221.920395E-3
382.186890E-3,222.422791E-3
382.143402E-3,222.506332E-3
382.256699E-3,222.617912E-3
382.333946E-3,223.282814E-3
382.362556E-3,223.182678E-3
382.843781E-3,223.769760E-3
382.491875E-3,223.483086E-3
382.478142E-3,223.541451E-3
382.669830E-3,224.151421E-3
382.600594E-3,224.079895E-3
382.749939E-3,224.298477E-3
382.478142E-3,223.984909E-3
382.411194E-3,224.138832E-3
382.740784E-3,224.630928E-3
382.695007E-3,224.472427E-3
382.970238E-3,224.720192E-3
382.539940E-3,224.611473E-3
382.807732E-3,224.665260E-3
383.042336E-3,225.320435E-3
382.922745E-3,225.126457E-3
383.415413E-3,225.579643E-3
383.022308E-3,225.443459E-3
383.240891E-3,225.675774E-3
383.691216E-3,226.271439E-3
383.437729E-3,226.352119E-3
383.657455E-3,226.512909E-3
383.298111E-3,226.336098E-3
383.096123E-3,226.183319E-3
383.143616E-3,226.029968E-3
382.452965E-3,224.390602E-3
381.717682E-3,222.523499E-3
380.112076E-3,218.898010E-3
378.461838E-3,215.324593E-3
377.217865E-3,212.093925E-3
375.385666E-3,208.427811E-3
374.396896E-3,205.860329E-3
373.538017E-3,203.798103E-3
373.104286E-3,202.944374E-3
373.235893E-3,202.952957E-3
373.453903E-3,203.136063E-3
374.586868E-3,204.264450E-3
374.894142E-3,205.400848E-3
376.110077E-3,206.996727E-3
376.460266E-3,208.352852E-3
376.836205E-3,209.285545E-3
378.042984E-3,210.638809E-3
378.063583E-3,211.160660E-3
378.469276E-3,212.206078E-3
378.607178E-3,212.189484E-3
378.659821E-3,211.966324E-3
378.832054E-3,212.069321E-3
378.357697E-3,211.628723E-3
378.218079E-3,211.166382E-3
378.212929E-3,211.026764E-3
377.818108E-3,210.597610E-3
377.968597E-3,210.862541E-3
377.760315E-3,211.087418E-3
377.991486E-3,211.462212E-3
378.742218E-3,212.187767E-3
378.940773E-3,212.615776E-3
379.513550E-3,213.178825E-3
379.181099E-3,213.147926E-3
379.318428E-3,213.571930E-3
379.415131E-3,213.311005E-3
378.973961E-3,212.690163E-3
379.071808E-3,212.829208E-3
378.779984E-3,212.298775E-3
378.660393E-3,211.912537E-3
378.971672E-3,212.151718E-3
378.718185E-3,212.269020E-3
379.137611E-3,212.351990E-3
378.776550E-3,212.393761E-3
378.907013E-3,213.255501E-3
379.654312E-3,213.799095E-3
379.524994E-3,214.015388E-3
380.319786E-3,215.091705E-3
380.331230E-3,215.428734E-3
380.703735E-3,215.666199E-3
381.060219E-3,216.368866E-3
380.866814E-3,216.721916E-3
381.374931E-3,217.560196E-3
381.275940E-3,217.712402E-3
381.739426E-3,218.147850E-3
381.580925E-3,218.526077E-3
381.305695E-3,218.618202E-3
381.735992E-3,219.160652E-3
381.730843E-3,219.054794E-3
381.796646E-3,219.188118E-3
381.970024E-3,219.605255E-3
381.794930E-3,219.260788E-3
382.115936E-3,219.181824E-3
381.699944E-3,219.461060E-3
