Notes :


2023-11-23 ¿ÀÈÄ 10:46:01
Volts
Ch : LED 2,Ch : LED 3,
384.799004E-3,225.244331E-3
385.503960E-3,225.854301E-3
385.193825E-3,225.580215E-3
385.834694E-3,226.097488E-3
385.908508E-3,226.310349E-3
385.815811E-3,226.333809E-3
386.299896E-3,226.831627E-3
386.293602E-3,226.726341E-3
386.511040E-3,227.207565E-3
386.541367E-3,227.565193E-3
386.735344E-3,227.641296E-3
387.299538E-3,228.095055E-3
387.289238E-3,228.261566E-3
387.673759E-3,228.847504E-3
387.834549E-3,228.981400E-3
387.721825E-3,229.241753E-3
388.295746E-3,230.092621E-3
388.210487E-3,230.260849E-3
388.691711E-3,230.482292E-3
388.750076E-3,230.544090E-3
388.894272E-3,230.373001E-3
388.997841E-3,230.980110E-3
388.520050E-3,230.696869E-3
388.443947E-3,230.267715E-3
387.771034E-3,228.814888E-3
386.473846E-3,226.465988E-3
385.109711E-3,223.471642E-3
383.119583E-3,219.868469E-3
381.344604E-3,216.192055E-3
379.443169E-3,212.733650E-3
378.065872E-3,209.595680E-3
377.313423E-3,207.880211E-3
376.798439E-3,206.815338E-3
377.090263E-3,206.917763E-3
377.421570E-3,207.352638E-3
378.049850E-3,208.561134E-3
379.530144E-3,210.433388E-3
380.236816E-3,211.823273E-3
381.390953E-3,213.787079E-3
382.011223E-3,215.132904E-3
382.393456E-3,216.515350E-3
383.386230E-3,217.647171E-3
383.214569E-3,217.880058E-3
383.509827E-3,218.298340E-3
383.562469E-3,218.650246E-3
383.474350E-3,218.433380E-3
383.539009E-3,218.292618E-3
382.925606E-3,217.781067E-3
382.888412E-3,217.587090E-3
383.121872E-3,217.615700E-3
382.880402E-3,217.503548E-3
383.502960E-3,218.550682E-3
383.566475E-3,219.158936E-3
383.639145E-3,219.736290E-3
383.976173E-3,219.885063E-3
384.018517E-3,219.862747E-3
383.897781E-3,219.961166E-3
383.529854E-3,219.364357E-3
383.373070E-3,218.857384E-3
383.141327E-3,218.102074E-3
382.523346E-3,217.529297E-3
382.791710E-3,217.650032E-3
382.419205E-3,217.395401E-3
382.390022E-3,217.649460E-3
382.613754E-3,217.821693E-3
382.724762E-3,217.873764E-3
383.319855E-3,218.784142E-3
382.858658E-3,219.272232E-3
383.341599E-3,220.329094E-3
383.877182E-3,220.697594E-3
383.840561E-3,221.113014E-3
384.550095E-3,222.253990E-3
384.394455E-3,222.545242E-3
384.681702E-3,223.361206E-3
385.224152E-3,223.809242E-3
384.879684E-3,223.895073E-3
385.201836E-3,224.590874E-3
385.209846E-3,224.471283E-3
385.527992E-3,224.613190E-3
385.835838E-3,225.013161E-3
385.453033E-3,224.931908E-3
385.856438E-3,225.592804E-3
385.652733E-3,225.371933E-3
385.825539E-3,225.819397E-3
385.902214E-3,225.921822E-3
385.593796E-3,225.776482E-3
385.927963E-3,226.133537E-3
385.880470E-3,226.195908E-3
386.030960E-3,226.262856E-3
386.071014E-3,226.400757E-3
385.798073E-3,226.257706E-3
386.295319E-3,226.803589E-3
386.085320E-3,226.693153E-3
386.275291E-3,226.690292E-3
386.414337E-3,226.793861E-3
386.364555E-3,226.880836E-3
386.875534E-3,227.168083E-3
386.667824E-3,226.795578E-3
386.881256E-3,227.165794E-3
386.881828E-3,227.484512E-3
386.644363E-3,227.656746E-3
386.798859E-3,227.811813E-3
386.905289E-3,227.644730E-3
387.076950E-3,227.840424E-3
387.206841E-3,228.263283E-3
387.166786E-3,228.402901E-3
387.561607E-3,228.858948E-3
387.466049E-3,228.563118E-3
387.787628E-3,229.091835E-3
388.021660E-3,229.829979E-3
388.016510E-3,229.990768E-3
388.665962E-3,230.838776E-3
388.036537E-3,230.672836E-3
388.158417E-3,230.994987E-3
388.303185E-3,231.344032E-3
388.280869E-3,231.444740E-3
388.787270E-3,232.074738E-3
388.450813E-3,232.027817E-3
388.399887E-3,231.868172E-3
388.244820E-3,230.629921E-3
387.026596E-3,228.635216E-3
386.346817E-3,226.507187E-3
384.318924E-3,222.651100E-3
382.519913E-3,218.928337E-3
380.810738E-3,215.353203E-3
379.053497E-3,211.752892E-3
378.071594E-3,209.436607E-3
376.995277E-3,207.443619E-3
376.788712E-3,207.090569E-3
377.365494E-3,207.289696E-3
377.718544E-3,207.889938E-3
378.779411E-3,209.419441E-3
379.191399E-3,210.418510E-3
380.522346E-3,212.337112E-3
381.616974E-3,214.477158E-3
382.216072E-3,215.650749E-3
383.272934E-3,217.115021E-3
383.454895E-3,217.561913E-3
383.711243E-3,218.304062E-3
383.895493E-3,218.550110E-3
384.060860E-3,218.410492E-3
384.257698E-3,218.571854E-3
383.993340E-3,218.229675E-3
383.822823E-3,218.212509E-3
383.561325E-3,217.960167E-3
383.555031E-3,217.675209E-3
384.009933E-3,218.056870E-3
383.937263E-3,218.567276E-3
384.576988E-3,219.259071E-3
385.071945E-3,219.987488E-3
384.903717E-3,220.194054E-3
385.053635E-3,220.430374E-3
384.800148E-3,220.109940E-3
384.701729E-3,220.061302E-3
384.772110E-3,219.755173E-3
384.274864E-3,219.295692E-3
384.076881E-3,219.054794E-3
383.572769E-3,218.407059E-3
383.426285E-3,218.447113E-3
383.671761E-3,218.828201E-3
383.712959E-3,218.595886E-3
384.039116E-3,219.059944E-3
383.980751E-3,219.295692E-3
384.267998E-3,219.528580E-3
384.872246E-3,220.829201E-3
384.823608E-3,221.102142E-3
385.372353E-3,221.748161E-3
385.222435E-3,222.194481E-3
385.652733E-3,223.064232E-3
385.929108E-3,223.873329E-3
386.007500E-3,224.118233E-3
386.581993E-3,225.043488E-3
386.646080E-3,225.135040E-3
386.707878E-3,225.457191E-3
386.960793E-3,225.738716E-3
386.831474E-3,225.841713E-3
387.332726E-3,226.407623E-3
387.127876E-3,226.222229E-3
387.479782E-3,226.622772E-3
387.442017E-3,226.655388E-3
387.290382E-3,226.667976E-3
387.809372E-3,227.302551E-3
387.737274E-3,227.078247E-3
387.882042E-3,227.133179E-3
388.011360E-3,227.243614E-3
387.799644E-3,227.168083E-3
387.862587E-3,227.171516E-3
387.678909E-3,227.190971E-3
387.868309E-3,227.391243E-3
388.249397E-3,227.701950E-3
388.035965E-3,227.618408E-3
388.024521E-3,227.873611E-3
388.078880E-3,227.720261E-3
388.207054E-3,228.065300E-3
388.338089E-3,228.307343E-3
388.110352E-3,228.451538E-3
388.641930E-3,228.933907E-3
388.304329E-3,228.886986E-3
388.601303E-3,228.917313E-3
388.467979E-3,228.900146E-3
388.445091E-3,228.874397E-3
388.837051E-3,229.498672E-3
388.629913E-3,229.426003E-3
388.778114E-3,229.730415E-3
389.298248E-3,229.827118E-3
388.898849E-3,229.790497E-3
388.834763E-3,230.232239E-3
388.860512E-3,230.348396E-3
389.106560E-3,230.495453E-3
389.184380E-3,231.313133E-3
388.998413E-3,231.290817E-3
389.782333E-3,232.199478E-3
389.587212E-3,232.220650E-3
389.802361E-3,232.440376E-3
389.695358E-3,232.783127E-3
389.439583E-3,232.646370E-3
389.688492E-3,232.895851E-3
389.690208E-3,232.559967E-3
389.356041E-3,232.293892E-3
388.962936E-3,231.044769E-3
387.460899E-3,228.555679E-3
385.695648E-3,225.306702E-3
384.020233E-3,221.189690E-3
381.796074E-3,217.385674E-3
380.497742E-3,214.065742E-3
378.981972E-3,210.404205E-3
378.246117E-3,208.780289E-3
377.672768E-3,207.457924E-3
377.727127E-3,207.259941E-3
378.205490E-3,208.079338E-3
378.612328E-3,208.736801E-3
380.118370E-3,210.672569E-3
380.902863E-3,212.384033E-3
381.912231E-3,213.822556E-3
382.846642E-3,215.421867E-3
383.296394E-3,216.591454E-3
384.040260E-3,217.440033E-3
384.221077E-3,218.401337E-3
384.428215E-3,218.847656E-3
384.657097E-3,219.045639E-3
384.350967E-3,218.624496E-3
384.439087E-3,218.302917E-3
384.073448E-3,218.010521E-3
384.125519E-3,217.609978E-3
384.348106E-3,217.679214E-3
383.988190E-3,217.625999E-3
384.849930E-3,218.508339E-3
384.858513E-3,218.836212E-3
385.237885E-3,219.712257E-3
385.515976E-3,220.096207E-3
385.049629E-3,220.025253E-3
385.594940E-3,220.612907E-3
385.657310E-3,220.516205E-3
385.386658E-3,220.351410E-3
385.516548E-3,220.259285E-3
385.213280E-3,219.499397E-3
384.839058E-3,219.071388E-3
384.621048E-3,218.774414E-3
384.346390E-3,218.837929E-3
384.900856E-3,219.432449E-3
384.873390E-3,219.410133E-3
385.122871E-3,219.604111E-3
385.082245E-3,219.976616E-3
385.550308E-3,220.676994E-3
386.147690E-3,221.680641E-3
386.133957E-3,221.718407E-3
386.432076E-3,222.585297E-3
386.618614E-3,223.158073E-3
387.027740E-3,223.930550E-3
387.261772E-3,224.640656E-3
387.359047E-3,224.647522E-3
387.993622E-3,225.458908E-3
387.943268E-3,225.421143E-3
387.981606E-3,225.849152E-3
388.173294E-3,226.251411E-3
388.186455E-3,226.151848E-3
388.327217E-3,226.576424E-3
388.382149E-3,226.510048E-3
388.450241E-3,226.960373E-3
388.649368E-3,227.180672E-3
388.291168E-3,226.806450E-3
388.509750E-3,227.193832E-3
388.515472E-3,227.275085E-3
388.552094E-3,227.096558E-3
388.750076E-3,227.592087E-3
388.635063E-3,227.382088E-3
388.559532E-3,227.296257E-3
388.405037E-3,227.309418E-3
388.476563E-3,227.359772E-3
388.538933E-3,227.773476E-3
388.407898E-3,227.585793E-3
388.307762E-3,227.828407E-3
388.502884E-3,228.138542E-3
388.486862E-3,228.093338E-3
388.997269E-3,228.438950E-3
388.621902E-3,228.428650E-3
389.201546E-3,228.852654E-3
389.163780E-3,228.904724E-3
389.180946E-3,228.799438E-3
389.552879E-3,229.136467E-3
389.071083E-3,229.037476E-3
389.566040E-3,229.783058E-3
389.520264E-3,230.029106E-3
389.703369E-3,229.560471E-3
389.933968E-3,230.136681E-3
389.548874E-3,230.187607E-3
390.102768E-3,230.782127E-3
390.189171E-3,231.083679E-3
390.153122E-3,231.133461E-3
390.297318E-3,231.761742E-3
390.154839E-3,231.768036E-3
390.325356E-3,232.167435E-3
390.488434E-3,232.383156E-3
390.614891E-3,232.655525E-3
390.759659E-3,233.246040E-3
390.649796E-3,233.247185E-3
390.364838E-3,233.331299E-3
390.414047E-3,233.225441E-3
390.223503E-3,232.759094E-3
389.789772E-3,231.310844E-3
388.171577E-3,228.742790E-3
387.019730E-3,225.835419E-3
384.998703E-3,221.938133E-3
382.836914E-3,218.001366E-3
381.441879E-3,214.593315E-3
379.439163E-3,211.337471E-3
378.667831E-3,210.001373E-3
378.381157E-3,209.119606E-3
378.392601E-3,208.557129E-3
379.209137E-3,209.676933E-3
379.596519E-3,210.589027E-3
381.080818E-3,212.693024E-3
382.094765E-3,214.152718E-3
382.914162E-3,215.781784E-3
383.799934E-3,217.525291E-3
384.148979E-3,218.737793E-3
384.731483E-3,219.986343E-3
385.026741E-3,220.389175E-3
385.494232E-3,221.000290E-3
385.511398E-3,221.277237E-3
385.193825E-3,220.679855E-3
385.075951E-3,220.754242E-3
384.906578E-3,220.368576E-3
384.884262E-3,220.161438E-3
385.077667E-3,220.222664E-3
384.790993E-3,220.216942E-3
385.372925E-3,221.215439E-3
385.460472E-3,221.568489E-3
385.456467E-3,221.646309E-3
385.874176E-3,222.404480E-3
385.510826E-3,222.338676E-3
385.912514E-3,222.287750E-3
385.501671E-3,221.531296E-3
384.903145E-3,220.578003E-3
384.825325E-3,220.409775E-3
384.234810E-3,219.793510E-3
384.437370E-3,219.760895E-3
384.171867E-3,219.748306E-3
384.201622E-3,219.618416E-3
384.354401E-3,220.082474E-3
384.273148E-3,220.119667E-3
384.742355E-3,220.836639E-3
385.271072E-3,221.671486E-3
385.260201E-3,222.268295E-3
385.697937E-3,223.061371E-3
385.655022E-3,223.388100E-3
386.138535E-3,223.877335E-3
386.406326E-3,224.735641E-3
386.536789E-3,225.141907E-3
386.902428E-3,225.862312E-3
386.766243E-3,226.239395E-3
387.165642E-3,226.824188E-3
387.227440E-3,227.142334E-3
386.807442E-3,226.830482E-3
387.269211E-3,227.328300E-3
387.359619E-3,227.146912E-3
387.554169E-3,227.945709E-3
387.290382E-3,227.810097E-3
387.172508E-3,227.628708E-3
387.369347E-3,227.975464E-3
387.116432E-3,227.632141E-3
387.299538E-3,227.575493E-3
387.157631E-3,227.779770E-3
387.221146E-3,227.957153E-3
387.352753E-3,228.139687E-3
387.032890E-3,227.910233E-3
387.171364E-3,228.041840E-3
387.035751E-3,228.076744E-3
386.983681E-3,227.660751E-3
387.237167E-3,228.311348E-3
386.820030E-3,228.350258E-3
387.448311E-3,228.695869E-3
387.304687E-3,228.742790E-3
387.507248E-3,228.758240E-3
387.702942E-3,228.964233E-3
387.729263E-3,229.010582E-3
387.962151E-3,229.515839E-3
387.905502E-3,229.680061E-3
387.564468E-3,229.304695E-3
387.796211E-3,229.716110E-3
387.657738E-3,229.536438E-3
387.902069E-3,229.961586E-3
387.931252E-3,230.281448E-3
388.082314E-3,230.501175E-3
388.556099E-3,231.314278E-3
388.353539E-3,231.380653E-3
388.841629E-3,231.920815E-3
388.845634E-3,232.074165E-3
388.794708E-3,232.331657E-3
389.278221E-3,232.981682E-3
389.048195E-3,233.175087E-3
389.352608E-3,233.521843E-3
389.394379E-3,233.576202E-3
389.301682E-3,233.236885E-3
388.824463E-3,232.509041E-3
387.621117E-3,230.188751E-3
386.384010E-3,227.469635E-3
384.703445E-3,223.934555E-3
382.663536E-3,220.097923E-3
381.093979E-3,216.541672E-3
379.072380E-3,212.796593E-3
377.925682E-3,210.375595E-3
377.409554E-3,208.745956E-3
377.017021E-3,208.266449E-3
377.803230E-3,209.076118E-3
378.172874E-3,209.465218E-3
379.141617E-3,211.018181E-3
380.234528E-3,212.592316E-3
381.170654E-3,214.089203E-3
382.368279E-3,216.175461E-3
383.135033E-3,217.411423E-3
383.882332E-3,218.977547E-3
384.248543E-3,219.474220E-3
384.012794E-3,219.725990E-3
384.455681E-3,220.303917E-3
384.367561E-3,220.184326E-3
384.129524E-3,220.116234E-3
383.997917E-3,219.938278E-3
383.787346E-3,219.382095E-3
384.024811E-3,219.636154E-3
383.785057E-3,219.295120E-3
384.048843E-3,219.854164E-3
384.564400E-3,220.566559E-3
384.718323E-3,220.931053E-3
385.470200E-3,221.824837E-3
384.959221E-3,222.110939E-3
385.346603E-3,222.173882E-3
385.541153E-3,222.173882E-3
385.195541E-3,221.500969E-3
385.233879E-3,221.590233E-3
384.852219E-3,220.857811E-3
384.913445E-3,220.761681E-3
384.580421E-3,220.061874E-3
384.243965E-3,219.932556E-3
384.579849E-3,220.298767E-3
384.427643E-3,220.269012E-3
384.744644E-3,220.703316E-3
384.922600E-3,221.129608E-3
385.169792E-3,221.483231E-3
385.737419E-3,222.536087E-3
385.701942E-3,222.774696E-3
386.014938E-3,223.602676E-3
386.455536E-3,224.675560E-3
386.452675E-3,224.794579E-3
387.096977E-3,225.371933E-3
387.332726E-3,225.741005E-3
387.483788E-3,226.458549E-3
387.821960E-3,226.726913E-3
387.751007E-3,227.071953E-3
388.018799E-3,227.631569E-3
387.680054E-3,227.508545E-3
387.761307E-3,227.774048E-3
388.044548E-3,227.914810E-3
388.062286E-3,228.102493E-3
388.235664E-3,228.564262E-3
387.932968E-3,228.357124E-3
388.061142E-3,228.394890E-3
388.209343E-3,228.426361E-3
387.981606E-3,228.485298E-3
388.434792E-3,229.006577E-3
388.367271E-3,228.702736E-3
388.489151E-3,228.844643E-3
388.479996E-3,228.821182E-3
388.302040E-3,228.853226E-3
388.481712E-3,229.211426E-3
388.415909E-3,228.973389E-3
388.433075E-3,229.046631E-3
388.308334E-3,229.383087E-3
388.250542E-3,229.335022E-3
388.481140E-3,229.464912E-3
388.055420E-3,229.335022E-3
388.265991E-3,229.702377E-3
388.445663E-3,230.077744E-3
388.242531E-3,230.056572E-3
388.826180E-3,230.531502E-3
388.579559E-3,230.427361E-3
388.740349E-3,230.760384E-3
388.827324E-3,231.065369E-3
388.642502E-3,231.020164E-3
389.081955E-3,231.459045E-3
388.881683E-3,231.481934E-3
389.173508E-3,231.593513E-3
389.090538E-3,231.937408E-3
389.095116E-3,231.997490E-3
389.313126E-3,232.406044E-3
389.010429E-3,232.322502E-3
389.030457E-3,232.481003E-3
389.056778E-3,233.122444E-3
389.214134E-3,233.125305E-3
389.867592E-3,233.775902E-3
389.502525E-3,233.845711E-3
389.693069E-3,234.006500E-3
389.786339E-3,234.292603E-3
389.550018E-3,234.421349E-3
390.101051E-3,234.813881E-3
389.770317E-3,234.254837E-3
389.168358E-3,232.878113E-3
387.987900E-3,230.395317E-3
386.349106E-3,226.898003E-3
384.745216E-3,223.180962E-3
382.221794E-3,218.484306E-3
380.603600E-3,214.621925E-3
379.361916E-3,211.803246E-3
378.081894E-3,209.366798E-3
377.855301E-3,208.550835E-3
377.648163E-3,208.161736E-3
377.964592E-3,208.778572E-3
378.889275E-3,210.147858E-3
379.729843E-3,211.331177E-3
381.168938E-3,213.450623E-3
382.244682E-3,215.005875E-3
383.166504E-3,216.777992E-3
383.861732E-3,218.205643E-3
384.091187E-3,219.117165E-3
384.702873E-3,220.090485E-3
384.861946E-3,220.166016E-3
384.995270E-3,220.523643E-3
384.749794E-3,220.606041E-3
384.490585E-3,219.958305E-3
384.563828E-3,219.807816E-3
384.116364E-3,219.192123E-3
384.045410E-3,219.071388E-3
384.186745E-3,219.189835E-3
384.102058E-3,219.116020E-3
384.558678E-3,219.613838E-3
384.580421E-3,219.941711E-3
384.975243E-3,220.450974E-3
385.411263E-3,221.182251E-3
385.214424E-3,221.259499E-3
385.503387E-3,221.479225E-3
385.280800E-3,221.197128E-3
385.057068E-3,220.964813E-3
385.211563E-3,220.646095E-3
384.801865E-3,220.188904E-3
384.832191E-3,220.380020E-3
384.806442E-3,220.152283E-3
384.900856E-3,220.281029E-3
385.004425E-3,220.545387E-3
384.940910E-3,220.911598E-3
385.623550E-3,221.604538E-3
385.652733E-3,221.929550E-3
385.735703E-3,222.629929E-3
386.332512E-3,223.398972E-3
386.431503E-3,223.795509E-3
387.038040E-3,224.261856E-3
386.998558E-3,224.772263E-3
387.279510E-3,224.929047E-3
387.754440E-3,226.116943E-3
387.686920E-3,226.442528E-3
388.187599E-3,226.391602E-3
387.790489E-3,226.509476E-3
388.174438E-3,227.003288E-3
388.600731E-3,227.590942E-3
388.285446E-3,227.699661E-3
388.633347E-3,227.991486E-3
388.559532E-3,227.824974E-3
388.628197E-3,228.113937E-3
388.694572E-3,228.251266E-3
388.549232E-3,228.135681E-3
389.140892E-3,228.596306E-3
388.829041E-3,228.672409E-3
389.047050E-3,228.763390E-3
389.139748E-3,229.022026E-3
388.689423E-3,228.789139E-3
389.083099E-3,229.049492E-3
389.136887E-3,228.983116E-3
389.175797E-3,229.084969E-3
389.149475E-3,229.344177E-3
388.866234E-3,229.045486E-3
389.335442E-3,229.470062E-3
389.045906E-3,229.557037E-3
389.290237E-3,229.634857E-3
389.457321E-3,229.510689E-3
389.218140E-3,229.607964E-3
389.359474E-3,229.995918E-3
389.176369E-3,230.110359E-3
389.227295E-3,230.227661E-3
389.538574E-3,230.535507E-3
389.440727E-3,230.678558E-3
389.761162E-3,231.120872E-3
389.441299E-3,230.988121E-3
389.232445E-3,231.126022E-3
389.726830E-3,231.560326E-3
389.590645E-3,231.610107E-3
389.725685E-3,231.744576E-3
389.554596E-3,231.748009E-3
389.917374E-3,232.196617E-3
390.784264E-3,232.937050E-3
390.217781E-3,232.825470E-3
390.316772E-3,233.148766E-3
390.266991E-3,233.074951E-3
390.397453E-3,233.638573E-3
390.780258E-3,234.100342E-3
390.669823E-3,234.357834E-3
390.995407E-3,234.556961E-3
390.677834E-3,234.432220E-3
390.328789E-3,234.586143E-3
390.713882E-3,234.288597E-3
390.063286E-3,232.824326E-3
389.334297E-3,231.302261E-3
387.789345E-3,227.794647E-3
385.923386E-3,224.106216E-3
384.329796E-3,220.480156E-3
382.402611E-3,216.478729E-3
381.174660E-3,213.880920E-3
380.009079E-3,211.898232E-3
379.674911E-3,210.523224E-3
379.909515E-3,210.428810E-3
380.179024E-3,210.701752E-3
381.237602E-3,212.168312E-3
381.912231E-3,213.432884E-3
382.980537E-3,215.328026E-3
383.876038E-3,217.271233E-3
384.627914E-3,218.611336E-3
385.899925E-3,220.477295E-3
386.270714E-3,221.312714E-3
386.434937E-3,222.079468E-3
386.712456E-3,222.738647E-3
386.557388E-3,222.652817E-3
386.583138E-3,222.668839E-3
386.293030E-3,222.328377E-3
386.141396E-3,222.074890E-3
386.212921E-3,221.959305E-3
386.104774E-3,221.641731E-3
386.216354E-3,221.886635E-3
386.076164E-3,221.988487E-3
386.508751E-3,222.603035E-3
387.066650E-3,223.405838E-3
386.753082E-3,223.328590E-3
386.789131E-3,223.644447E-3
386.371422E-3,223.402977E-3
386.164284E-3,222.916031E-3
386.287308E-3,222.699738E-3
385.647583E-3,221.737862E-3
385.732269E-3,221.729851E-3
385.227013E-3,221.330452E-3
385.030746E-3,220.869827E-3
385.243034E-3,221.035194E-3
385.321999E-3,221.106148E-3
385.770607E-3,221.533012E-3
385.708237E-3,221.825981E-3
386.007500E-3,222.394753E-3
386.344528E-3,223.120880E-3
386.022949E-3,223.364067E-3
386.619186E-3,224.296761E-3
386.883545E-3,224.892426E-3
387.082672E-3,225.381660E-3
387.318420E-3,226.282310E-3
387.456894E-3,226.423073E-3
387.519836E-3,226.914024E-3
387.567329E-3,227.284241E-3
387.509537E-3,227.703667E-3
388.028526E-3,227.958298E-3
387.821960E-3,228.091049E-3
388.271713E-3,228.539658E-3
388.222504E-3,228.520775E-3
388.030243E-3,228.638077E-3
388.324356E-3,229.016304E-3
388.066292E-3,228.832626E-3
388.625336E-3,229.238319E-3
388.246536E-3,229.107285E-3
388.189316E-3,229.181099E-3
388.576698E-3,229.462051E-3
387.945557E-3,229.177094E-3
388.507462E-3,229.522705E-3
388.339806E-3,229.536438E-3
388.137817E-3,229.586220E-3
388.002777E-3,229.519844E-3
387.752151E-3,229.252625E-3
387.959290E-3,229.313850E-3
388.049698E-3,229.167366E-3
388.069153E-3,229.353905E-3
388.250542E-3,229.946136E-3
388.186455E-3,229.790497E-3
388.123512E-3,230.036545E-3
388.120079E-3,229.977036E-3
388.070297E-3,230.067444E-3
388.395309E-3,230.439949E-3
388.438225E-3,230.007935E-3
388.871956E-3,230.940628E-3
388.915443E-3,231.242180E-3
388.940620E-3,231.277084E-3
389.019585E-3,231.737709E-3
388.530350E-3,231.587791E-3
388.928032E-3,232.170296E-3
388.886833E-3,232.612610E-3
389.023018E-3,232.668114E-3
389.225578E-3,233.306122E-3
389.241028E-3,233.180237E-3
389.447021E-3,233.718109E-3
389.221001E-3,233.943558E-3
389.354897E-3,233.957863E-3
389.440155E-3,234.210777E-3
389.113998E-3,234.153557E-3
389.101410E-3,233.603096E-3
388.756943E-3,232.959366E-3
387.999344E-3,230.973816E-3
386.709595E-3,228.298187E-3
384.799576E-3,224.516487E-3
383.233452E-3,220.818901E-3
381.398392E-3,217.058372E-3
379.846001E-3,213.761902E-3
378.830910E-3,211.623001E-3
377.887917E-3,209.841728E-3
378.180313E-3,209.744453E-3
378.448105E-3,210.105515E-3
378.943062E-3,210.876274E-3
379.986763E-3,212.477875E-3
380.450249E-3,213.750458E-3
381.480217E-3,215.637016E-3
382.590866E-3,217.096138E-3
383.185387E-3,218.408775E-3
384.102631E-3,219.953728E-3
384.211349E-3,220.417213E-3
384.567833E-3,221.095848E-3
384.848213E-3,221.371651E-3
384.807014E-3,221.210289E-3
384.803009E-3,221.338463E-3
384.240532E-3,220.836639E-3
384.500313E-3,221.105003E-3
384.405327E-3,220.806313E-3
384.373283E-3,220.678711E-3
384.688568E-3,221.157646E-3
384.792709E-3,221.150208E-3
385.096550E-3,221.765327E-3
385.326576E-3,222.359276E-3
385.529137E-3,222.799873E-3
385.455894E-3,222.949219E-3
385.182381E-3,222.710609E-3
385.221863E-3,222.037125E-3
384.966087E-3,221.645164E-3
384.370422E-3,221.131897E-3
384.659958E-3,221.090698E-3
383.922386E-3,220.676994E-3
384.219360E-3,220.690155E-3
384.120941E-3,220.821190E-3
384.184456E-3,220.905304E-3
384.734344E-3,221.518135E-3
384.618759E-3,221.642303E-3
385.402107E-3,222.375870E-3
385.386658E-3,223.104858E-3
385.368919E-3,223.567200E-3
385.977745E-3,224.433517E-3
385.805511E-3,224.535370E-3
386.771393E-3,225.663185E-3
386.765671E-3,225.969887E-3
386.826324E-3,226.380730E-3
387.256050E-3,226.820183E-3
387.108994E-3,226.974106E-3
387.579346E-3,227.953148E-3
387.585068E-3,228.079605E-3
387.710381E-3,228.076172E-3
388.130951E-3,228.405762E-3
387.728691E-3,228.067589E-3
387.979317E-3,228.708458E-3
388.199615E-3,228.792000E-3
387.681198E-3,228.752518E-3
387.975311E-3,229.043198E-3
387.815666E-3,228.821182E-3
388.142395E-3,229.309273E-3
388.120651E-3,229.391098E-3
387.788200E-3,229.344177E-3
388.105774E-3,229.316139E-3
387.809944E-3,228.953934E-3
388.082314E-3,229.353905E-3
388.288879E-3,229.690933E-3
387.926674E-3,229.672623E-3
388.252831E-3,229.767609E-3
387.910080E-3,229.521561E-3
388.285446E-3,229.726982E-3
388.316917E-3,230.068588E-3
388.130379E-3,230.121231E-3
388.432503E-3,230.391312E-3
388.274574E-3,230.232239E-3
388.348389E-3,230.539513E-3
388.494873E-3,230.712318E-3
388.540649E-3,230.813599E-3
388.656235E-3,231.197548E-3
388.549805E-3,231.179237E-3
388.576698E-3,231.427574E-3
388.546371E-3,231.665611E-3
388.614464E-3,231.480789E-3
389.225578E-3,231.949425E-3
389.028740E-3,231.912231E-3
389.318848E-3,232.466698E-3
389.323425E-3,232.586861E-3
388.977242E-3,232.535362E-3
389.480782E-3,233.117294E-3
389.127731E-3,233.113861E-3
389.899063E-3,233.997917E-3
389.967155E-3,234.167290E-3
389.734840E-3,234.073448E-3
389.777756E-3,234.537506E-3
389.544296E-3,234.434509E-3
390.110207E-3,234.780693E-3
389.654160E-3,234.148407E-3
388.928604E-3,232.967377E-3
387.921524E-3,230.576134E-3
386.054420E-3,226.986694E-3
384.167290E-3,223.089981E-3
382.303619E-3,219.156647E-3
380.458260E-3,215.332031E-3
379.310417E-3,212.606049E-3
378.079605E-3,210.015678E-3
377.837563E-3,209.394264E-3
378.048706E-3,209.362793E-3
378.242111E-3,209.855461E-3
379.279518E-3,211.212730E-3
379.960442E-3,212.293053E-3
381.560326E-3,214.382744E-3
382.485580E-3,216.003227E-3
383.045197E-3,217.398834E-3
383.735275E-3,218.732071E-3
384.265137E-3,219.669914E-3
384.551811E-3,220.236397E-3
384.744644E-3,220.484161E-3
384.708023E-3,220.739365E-3
384.712029E-3,220.727348E-3
384.092903E-3,219.947433E-3
384.244537E-3,219.684219E-3
384.124947E-3,219.357491E-3
384.030533E-3,219.129181E-3
384.248543E-3,219.297409E-3
384.037971E-3,219.384384E-3
384.837914E-3,220.274162E-3
384.988403E-3,220.689583E-3
385.086823E-3,221.355057E-3
385.474777E-3,221.924400E-3
385.368919E-3,222.161293E-3
385.677338E-3,222.456551E-3
385.358047E-3,221.969032E-3
385.475349E-3,221.481514E-3
385.360909E-3,221.318436E-3
384.869385E-3,220.835495E-3
385.073090E-3,220.884705E-3
384.887695E-3,220.759964E-3
384.855080E-3,220.535088E-3
385.215569E-3,221.065521E-3
385.213280E-3,220.968246E-3
385.473633E-3,221.706963E-3
385.878181E-3,222.410774E-3
386.093903E-3,222.982979E-3
386.487579E-3,223.654747E-3
386.408043E-3,223.837852E-3
386.892128E-3,224.472427E-3
387.172508E-3,224.998856E-3
387.322426E-3,225.610542E-3
387.755013E-3,226.322937E-3
387.421989E-3,226.741219E-3
388.141823E-3,227.190399E-3
388.118935E-3,227.370071E-3
388.189316E-3,227.471352E-3
388.541794E-3,228.044128E-3
388.556099E-3,227.896500E-3
388.871956E-3,228.348541E-3
388.874245E-3,228.524780E-3
388.737488E-3,228.317070E-3
388.986969E-3,228.569412E-3
388.863945E-3,228.424644E-3
388.883972E-3,228.560829E-3
389.135170E-3,228.739357E-3
388.990402E-3,228.863525E-3
389.275932E-3,229.230881E-3
388.929749E-3,228.788567E-3
389.048195E-3,228.940773E-3
389.406395E-3,229.191971E-3
389.134026E-3,228.941345E-3
389.544868E-3,229.269791E-3
389.314842E-3,229.226303E-3
389.552879E-3,229.475784E-3
389.428711E-3,229.767609E-3
389.428139E-3,229.955864E-3
389.912796E-3,230.342102E-3
389.871597E-3,230.558968E-3
389.809799E-3,230.966949E-3
390.078163E-3,230.912590E-3
389.911652E-3,230.803299E-3
390.166283E-3,231.415558E-3
389.999771E-3,231.083679E-3
390.276146E-3,231.443024E-3
390.270424E-3,231.469345E-3
390.176010E-3,231.489944E-3
390.483284E-3,232.275009E-3
390.183449E-3,231.986046E-3
390.321922E-3,232.181740E-3
390.480995E-3,232.343674E-3
390.448952E-3,232.196617E-3
390.840340E-3,232.935333E-3
390.716743E-3,232.604599E-3
390.794563E-3,233.322144E-3
391.267204E-3,233.576202E-3
391.139603E-3,233.435440E-3
391.397095E-3,234.096336E-3
391.205406E-3,234.268570E-3
391.415405E-3,234.877968E-3
391.617966E-3,235.053062E-3
391.511536E-3,235.139465E-3
391.734123E-3,235.376930E-3
391.337013E-3,235.059357E-3
391.403389E-3,234.772682E-3
390.746498E-3,233.564186E-3
389.501381E-3,231.454468E-3
388.389015E-3,228.942490E-3
386.285019E-3,224.878120E-3
384.452248E-3,220.940781E-3
382.996559E-3,217.409134E-3
381.473923E-3,214.314079E-3
380.904579E-3,212.670708E-3
380.302620E-3,211.253357E-3
380.158997E-3,211.091423E-3
380.691719E-3,211.902809E-3
381.342316E-3,212.868690E-3
382.581139E-3,214.556694E-3
383.374214E-3,216.081047E-3
384.675407E-3,218.096924E-3
385.378647E-3,219.442177E-3
385.672760E-3,220.650101E-3
386.640358E-3,222.016525E-3
386.774254E-3,222.423363E-3
387.118721E-3,223.087692E-3
387.221718E-3,223.246193E-3
387.008858E-3,223.072815E-3
386.856651E-3,223.202133E-3
386.576843E-3,222.550964E-3
386.371994E-3,222.127533E-3
386.456108E-3,222.100067E-3
386.270714E-3,221.994209E-3
386.928749E-3,222.568130E-3
386.861801E-3,222.537231E-3
387.005424E-3,223.158646E-3
387.464905E-3,223.674202E-3
387.167358E-3,223.756599E-3
387.454605E-3,223.727417E-3
386.794281E-3,223.185539E-3
386.961937E-3,223.158646E-3
386.813164E-3,222.791862E-3
386.420059E-3,222.188187E-3
386.382866E-3,222.195053E-3
386.256409E-3,221.862030E-3
386.250114E-3,221.947861E-3
386.428642E-3,222.057724E-3
386.500168E-3,222.204208E-3
386.989975E-3,222.899437E-3
386.940765E-3,223.273659E-3
387.178802E-3,223.891640E-3
387.359047E-3,224.538231E-3
387.281799E-3,224.925613E-3
387.888336E-3,225.841713E-3
387.738991E-3,225.799942E-3
388.035393E-3,226.534653E-3
388.486290E-3,227.114296E-3
388.330078E-3,226.939201E-3
388.744926E-3,227.772903E-3
388.798714E-3,228.161430E-3
389.148903E-3,228.682137E-3
389.091682E-3,228.676987E-3
389.167213E-3,228.671837E-3
389.291954E-3,229.167366E-3
388.828468E-3,229.036903E-3
388.850784E-3,229.097557E-3
388.835335E-3,229.400253E-3
388.971519E-3,229.131889E-3
389.422417E-3,229.590797E-3
389.045906E-3,229.294968E-3
389.180374E-3,229.588509E-3
389.250755E-3,229.800224E-3
388.913155E-3,229.477501E-3
389.399529E-3,229.941559E-3
389.279938E-3,229.815102E-3
389.333153E-3,229.958153E-3
389.340019E-3,230.153275E-3
389.175224E-3,230.010796E-3
389.314842E-3,230.315208E-3
389.112282E-3,229.827118E-3
389.195824E-3,230.066299E-3
389.354324E-3,230.332947E-3
389.003563E-3,230.062866E-3
389.427567E-3,230.748367E-3
388.799858E-3,230.659103E-3
389.097404E-3,230.637932E-3
389.334869E-3,231.025314E-3
389.033318E-3,230.867386E-3
389.493370E-3,231.529427E-3
389.431000E-3,231.564331E-3
389.478493E-3,231.756592E-3
389.381790E-3,232.000923E-3
389.500809E-3,232.338524E-3
389.849854E-3,232.725906E-3
389.624977E-3,232.491875E-3
389.788628E-3,232.731056E-3
390.019226E-3,233.525276E-3
389.661026E-3,233.509827E-3
390.256119E-3,233.667183E-3
390.138817E-3,233.819389E-3
390.292740E-3,234.457970E-3
390.237236E-3,234.584999E-3
390.194321E-3,234.701729E-3
390.419197E-3,234.986687E-3
390.214920E-3,234.542656E-3
389.836693E-3,234.263992E-3
389.631271E-3,233.507538E-3
388.159561E-3,231.071091E-3
387.266350E-3,228.536224E-3
385.404396E-3,224.429512E-3
