Notes :


2023-11-26 ¿ÀÀü 12:18:19
Volts
Ch : LED 2,Ch : LED 3,
175.665092E-3,305.533218E-3
175.657654E-3,305.684280E-3
176.093674E-3,306.028748E-3
175.900841E-3,305.838776E-3
175.972939E-3,305.586433E-3
175.625038E-3,304.809380E-3
174.564171E-3,303.095627E-3
173.523331E-3,300.983620E-3
171.941185E-3,298.150635E-3
170.627403E-3,295.311356E-3
169.309044E-3,292.416000E-3
168.199539E-3,289.922905E-3
167.753220E-3,288.364220E-3
167.249107E-3,287.105370E-3
167.308044E-3,286.898804E-3
167.419624E-3,287.042999E-3
167.558098E-3,287.485886E-3
168.240738E-3,288.622856E-3
168.418694E-3,289.597893E-3
168.979454E-3,290.891647E-3
169.452095E-3,291.867256E-3
169.648361E-3,292.659187E-3
170.115852E-3,293.429375E-3
170.185661E-3,293.802452E-3
170.217133E-3,293.847084E-3
170.187378E-3,293.764687E-3
169.986534E-3,293.502045E-3
170.163918E-3,293.498611E-3
169.968224E-3,293.027115E-3
170.070076E-3,293.041992E-3
170.325851E-3,293.352127E-3
170.466042E-3,293.654823E-3
170.993614E-3,294.580650E-3
171.059990E-3,295.135117E-3
171.339798E-3,295.703888E-3
171.413040E-3,296.096420E-3
171.350098E-3,295.925903E-3
171.474838E-3,296.128464E-3
171.366119E-3,295.555115E-3
171.054268E-3,295.211220E-3
170.923233E-3,295.102501E-3
170.817947E-3,294.690514E-3
170.956993E-3,294.967461E-3
170.872307E-3,294.748306E-3
170.950127E-3,295.008087E-3
171.029663E-3,295.232391E-3
170.979309E-3,295.442963E-3
171.362114E-3,296.101570E-3
171.603584E-3,296.607399E-3
171.847343E-3,297.080040E-3
172.046471E-3,297.619629E-3
172.032738E-3,297.900009E-3
172.392654E-3,298.498535E-3
172.415543E-3,298.831558E-3
172.700500E-3,299.234962E-3
172.919655E-3,299.664116E-3
173.022652E-3,299.812317E-3
173.246384E-3,300.108719E-3
173.332214E-3,300.235748E-3
173.406601E-3,300.600815E-3
173.596001E-3,300.747871E-3
173.400307E-3,300.655174E-3
173.799706E-3,300.928688E-3
173.624039E-3,300.825691E-3
173.712730E-3,300.946999E-3
173.761940E-3,301.122665E-3
173.704147E-3,301.290894E-3
174.032021E-3,301.425934E-3
173.949623E-3,301.336098E-3
174.125862E-3,301.461983E-3
174.274063E-3,301.729202E-3
174.259758E-3,301.745224E-3
174.511528E-3,302.105141E-3
174.385643E-3,302.000427E-3
174.583054E-3,302.149200E-3
174.662590E-3,302.382660E-3
174.582481E-3,302.393532E-3
174.886894E-3,302.663040E-3
174.755859E-3,302.729988E-3
174.952698E-3,302.845573E-3
175.025940E-3,303.220940E-3
174.910355E-3,303.166008E-3
175.028801E-3,303.545380E-3
175.021362E-3,303.462982E-3
175.086594E-3,303.628349E-3
175.232506E-3,303.861809E-3
175.214195E-3,303.845215E-3
175.465965E-3,304.163933E-3
175.397301E-3,304.053497E-3
175.528908E-3,304.301834E-3
175.740623E-3,304.577637E-3
175.710869E-3,304.642868E-3
175.997543E-3,305.001068E-3
175.919724E-3,305.076599E-3
176.157761E-3,305.459976E-3
176.436424E-3,305.623627E-3
176.531982E-3,305.696869E-3
176.868439E-3,306.258202E-3
176.937103E-3,306.345749E-3
177.088165E-3,306.630135E-3
177.233505E-3,306.994057E-3
177.312469E-3,306.949997E-3
177.551079E-3,307.240105E-3
177.393150E-3,307.265854E-3
177.466393E-3,307.273865E-3
177.512169E-3,307.291603E-3
177.216911E-3,306.845856E-3
177.029228E-3,306.268501E-3
175.946045E-3,304.741859E-3
174.628830E-3,302.677917E-3
173.313332E-3,300.143623E-3
171.658516E-3,296.906662E-3
170.490074E-3,294.365501E-3
169.280434E-3,291.837502E-3
168.610954E-3,290.087128E-3
168.327713E-3,289.227676E-3
168.138313E-3,288.820839E-3
168.412971E-3,289.144707E-3
168.628693E-3,289.736938E-3
169.212341E-3,290.879059E-3
169.806290E-3,292.058945E-3
170.178795E-3,293.300629E-3
170.856285E-3,294.526291E-3
171.084595E-3,295.171738E-3
171.433067E-3,295.909882E-3
171.582413E-3,296.290398E-3
171.540642E-3,296.383667E-3
171.787834E-3,296.650887E-3
171.536064E-3,296.365929E-3
171.483994E-3,296.308708E-3
171.576691E-3,296.419144E-3
171.546364E-3,296.338463E-3
171.869659E-3,296.969604E-3
172.058487E-3,297.298050E-3
172.364044E-3,297.686577E-3
172.417259E-3,298.261642E-3
172.214699E-3,298.310852E-3
172.261047E-3,298.274803E-3
171.871948E-3,297.673988E-3
171.740913E-3,297.332954E-3
171.613884E-3,296.978188E-3
171.188736E-3,296.339607E-3
171.209908E-3,296.063232E-3
170.831680E-3,295.841789E-3
170.890617E-3,295.764542E-3
171.045685E-3,296.103287E-3
171.007347E-3,296.101570E-3
171.375847E-3,296.709251E-3
171.451950E-3,297.069740E-3
171.850204E-3,297.689438E-3
172.209549E-3,298.473358E-3
172.341156E-3,298.882484E-3
172.814369E-3,299.691010E-3
172.845840E-3,299.941063E-3
173.226357E-3,300.583076E-3
173.575974E-3,301.023102E-3
173.571968E-3,301.297188E-3
173.922729E-3,301.678848E-3
173.857498E-3,301.823044E-3
173.822594E-3,302.005005E-3
174.074364E-3,302.295113E-3
173.780823E-3,302.189827E-3
174.070930E-3,302.469635E-3
173.951340E-3,302.306557E-3
174.035454E-3,302.419281E-3
174.197388E-3,302.429008E-3
173.968506E-3,302.316856E-3
174.205399E-3,302.502251E-3
174.061203E-3,302.516556E-3
174.031448E-3,302.443314E-3
174.162483E-3,302.535439E-3
174.040031E-3,302.400970E-3
174.219131E-3,302.634430E-3
174.131012E-3,302.730560E-3
174.173355E-3,302.828979E-3
174.361610E-3,303.097916E-3
174.254608E-3,302.908516E-3
174.636841E-3,303.301620E-3
174.550438E-3,303.357124E-3
174.664307E-3,303.669548E-3
174.842262E-3,303.790283E-3
174.786186E-3,303.763390E-3
175.143242E-3,304.131889E-3
175.118637E-3,304.324722E-3
175.135803E-3,304.455185E-3
175.441933E-3,304.820824E-3
175.359535E-3,304.734993E-3
175.648499E-3,305.144691E-3
175.530052E-3,305.087471E-3
175.671387E-3,305.377007E-3
175.914574E-3,305.510902E-3
175.845909E-3,305.567551E-3
176.050758E-3,305.841064E-3
176.140022E-3,305.771828E-3
176.268768E-3,306.007576E-3
176.454735E-3,306.407547E-3
176.336861E-3,306.388092E-3
176.666451E-3,306.921959E-3
176.568604E-3,307.077026E-3
176.726532E-3,307.284737E-3
176.937675E-3,307.458687E-3
176.744270E-3,307.241821E-3
176.866150E-3,307.367706E-3
176.673889E-3,307.034683E-3
176.354027E-3,306.472778E-3
175.806999E-3,305.322647E-3
174.461746E-3,303.113937E-3
173.143387E-3,300.615692E-3
171.403313E-3,297.558403E-3
169.907570E-3,294.504547E-3
168.729973E-3,291.848946E-3
167.752075E-3,289.259148E-3
167.368126E-3,288.047791E-3
167.076874E-3,287.194061E-3
167.144966E-3,287.168312E-3
167.414474E-3,287.654686E-3
167.549515E-3,288.301277E-3
168.272781E-3,289.587021E-3
168.676186E-3,290.544319E-3
169.140244E-3,291.765404E-3
169.616890E-3,292.879486E-3
169.723892E-3,293.483734E-3
170.106697E-3,294.047928E-3
170.042038E-3,294.237900E-3
170.047188E-3,294.191551E-3
170.112419E-3,294.293404E-3
169.862366E-3,293.887711E-3
169.814873E-3,293.748665E-3
169.684982E-3,293.391037E-3
169.778252E-3,293.484306E-3
170.104408E-3,293.889999E-3
170.215988E-3,294.239044E-3
170.765305E-3,295.299911E-3
170.835686E-3,295.670128E-3
171.048546E-3,296.125603E-3
171.175003E-3,296.309280E-3
170.915222E-3,296.098137E-3
170.970154E-3,295.989990E-3
170.692062E-3,295.615768E-3
170.593071E-3,295.318222E-3
170.507812E-3,295.071030E-3
170.188522E-3,294.655037E-3
170.388794E-3,294.742012E-3
170.331001E-3,294.713402E-3
170.464325E-3,294.940567E-3
170.545006E-3,295.390892E-3
170.597649E-3,295.610046E-3
171.105194E-3,296.249199E-3
171.221352E-3,296.670914E-3
171.581841E-3,297.373009E-3
171.961212E-3,297.961807E-3
171.957207E-3,298.332024E-3
172.348022E-3,298.870468E-3
172.426414E-3,299.220085E-3
172.690201E-3,299.737358E-3
173.000336E-3,300.077820E-3
172.906494E-3,300.196838E-3
173.256683E-3,300.542450E-3
173.228645E-3,300.653458E-3
173.398590E-3,300.794220E-3
173.436356E-3,300.963593E-3
173.336792E-3,300.730705E-3
173.535347E-3,300.952721E-3
173.371124E-3,300.924110E-3
173.498154E-3,300.961304E-3
173.596573E-3,301.285172E-3
173.438644E-3,301.044846E-3
173.678970E-3,301.447678E-3
173.587990E-3,301.325798E-3
173.676682E-3,301.431656E-3
173.613739E-3,301.661110E-3
173.520470E-3,301.437950E-3
173.747063E-3,301.913452E-3
173.792267E-3,301.888847E-3
173.914719E-3,302.062225E-3
174.167061E-3,302.217865E-3
174.035454E-3,302.290535E-3
174.305534E-3,302.503967E-3
174.294662E-3,302.664185E-3
174.389648E-3,302.942276E-3
174.685478E-3,303.119659E-3
174.551582E-3,303.149414E-3
174.832535E-3,303.528214E-3
174.807358E-3,303.554535E-3
174.967003E-3,303.808594E-3
175.157547E-3,304.037476E-3
175.035095E-3,303.977966E-3
175.310898E-3,304.195976E-3
175.409317E-3,304.477501E-3
175.358391E-3,304.470062E-3
175.482559E-3,304.621124E-3
175.276566E-3,304.417992E-3
175.584412E-3,304.760742E-3
175.554085E-3,304.771614E-3
175.674820E-3,304.980469E-3
175.792122E-3,305.030823E-3
175.594711E-3,305.229950E-3
175.982094E-3,305.533218E-3
175.978661E-3,305.748367E-3
176.206970E-3,305.965805E-3
176.416969E-3,306.190681E-3
176.263618E-3,306.308556E-3
176.526260E-3,306.622696E-3
176.487350E-3,306.574059E-3
176.558304E-3,306.786919E-3
176.535988E-3,306.591225E-3
176.105690E-3,305.944061E-3
175.685692E-3,305.052567E-3
174.431419E-3,303.123093E-3
173.025513E-3,300.702667E-3
171.609306E-3,297.784424E-3
169.826317E-3,294.433594E-3
168.823814E-3,291.922188E-3
167.625046E-3,289.267159E-3
167.161560E-3,287.875557E-3
167.134094E-3,287.037277E-3
166.874886E-3,286.600685E-3
167.251968E-3,287.279892E-3
167.531204E-3,287.920761E-3
167.944908E-3,288.915825E-3
168.696213E-3,290.168381E-3
168.886757E-3,290.967178E-3
169.535065E-3,292.128754E-3
169.862366E-3,292.988205E-3
170.107269E-3,293.553543E-3
170.368767E-3,293.977547E-3
170.179367E-3,293.865967E-3
170.458603E-3,293.828201E-3
170.251465E-3,293.575287E-3
170.238304E-3,293.252563E-3
170.321846E-3,293.123817E-3
169.980812E-3,292.944145E-3
170.282364E-3,293.421364E-3
170.386505E-3,293.771553E-3
170.760155E-3,294.598389E-3
171.010208E-3,295.355988E-3
170.988464E-3,295.442963E-3
171.270561E-3,295.704460E-3
171.200752E-3,295.755386E-3
171.110344E-3,295.500183E-3
171.055984E-3,295.528793E-3
170.657730E-3,294.870758E-3
170.724678E-3,294.803810E-3
170.535851E-3,294.457054E-3
170.607948E-3,294.399261E-3
170.823097E-3,294.696236E-3
170.684052E-3,294.571495E-3
171.091461E-3,295.248413E-3
171.257401E-3,295.484161E-3
171.469688E-3,296.038628E-3
171.917725E-3,296.758461E-3
171.916008E-3,297.064018E-3
172.383499E-3,297.755241E-3
172.488785E-3,298.142624E-3
172.772598E-3,298.669624E-3
173.086739E-3,299.208069E-3
172.923088E-3,299.298477E-3
173.400307E-3,299.783707E-3
173.478127E-3,300.190544E-3
173.659515E-3,300.290108E-3
173.842049E-3,300.666046E-3
173.670387E-3,300.389671E-3
173.831749E-3,300.601959E-3
173.763084E-3,300.575066E-3
173.800278E-3,300.636292E-3
173.942184E-3,300.844002E-3
173.739052E-3,300.569916E-3
173.915863E-3,300.830841E-3
173.894691E-3,300.828552E-3
173.989105E-3,300.952721E-3
174.174500E-3,301.187325E-3
174.012566E-3,301.001930E-3
174.077225E-3,301.338387E-3
174.145317E-3,301.394463E-3
174.319839E-3,301.514626E-3
174.646568E-3,301.835632E-3
174.483490E-3,301.730919E-3
174.720955E-3,302.130890E-3
174.757004E-3,302.129745E-3
174.831963E-3,302.359772E-3
175.176430E-3,302.616119E-3
174.965858E-3,302.617264E-3
175.285721E-3,303.008080E-3
175.172424E-3,303.028107E-3
175.364113E-3,303.355980E-3
175.693703E-3,303.626633E-3
175.547218E-3,303.493309E-3
175.793839E-3,303.816605E-3
175.757790E-3,303.933907E-3
175.873375E-3,304.034615E-3
176.026154E-3,304.282951E-3
175.768089E-3,304.159927E-3
175.975800E-3,304.433441E-3
175.948334E-3,304.460907E-3
176.087952E-3,304.635429E-3
176.403236E-3,304.998779E-3
176.159477E-3,304.970169E-3
176.511955E-3,305.446243E-3
176.562309E-3,305.514336E-3
176.808357E-3,305.833626E-3
177.080154E-3,306.149483E-3
176.819801E-3,306.126022E-3
177.121353E-3,306.426430E-3
177.159119E-3,306.478500E-3
177.248383E-3,306.639290E-3
177.428055E-3,306.832695E-3
177.061844E-3,306.677628E-3
177.305031E-3,306.883621E-3
177.053261E-3,306.485367E-3
176.669312E-3,305.724907E-3
175.943184E-3,304.159355E-3
174.323273E-3,301.675987E-3
173.112488E-3,299.146271E-3
171.635628E-3,296.242332E-3
170.443726E-3,293.613625E-3
169.622612E-3,291.768837E-3
168.742561E-3,289.883995E-3
168.617249E-3,289.027405E-3
168.554306E-3,288.840866E-3
168.724251E-3,289.052582E-3
169.164276E-3,289.825058E-3
169.342232E-3,290.657043E-3
170.060349E-3,292.080116E-3
170.534706E-3,293.088913E-3
170.858574E-3,294.103432E-3
171.473694E-3,295.090485E-3
171.479988E-3,295.535660E-3
171.828461E-3,296.059227E-3
171.813011E-3,296.256638E-3
171.754646E-3,296.151924E-3
171.837044E-3,296.140480E-3
171.547508E-3,295.763397E-3
171.752357E-3,296.064949E-3
171.707726E-3,296.180534E-3
171.999550E-3,296.573639E-3
172.383499E-3,297.323227E-3
172.316551E-3,297.636795E-3
172.507668E-3,297.985840E-3
172.389793E-3,297.856522E-3
172.290230E-3,297.705460E-3
172.270775E-3,297.362709E-3
171.746063E-3,296.678925E-3
171.553230E-3,296.426582E-3
171.288872E-3,295.850945E-3
171.169281E-3,295.554543E-3
171.224785E-3,295.458984E-3
170.971870E-3,295.416641E-3
171.282578E-3,295.629501E-3
171.358681E-3,296.058655E-3
171.418762E-3,296.446609E-3
171.968079E-3,297.054863E-3
172.044182E-3,297.471428E-3
172.445297E-3,298.238754E-3
172.638702E-3,298.750877E-3
172.913933E-3,299.246979E-3
173.235512E-3,299.967957E-3
173.193741E-3,300.090981E-3
173.613167E-3,300.675774E-3
173.549652E-3,300.835419E-3
173.741913E-3,301.037407E-3
174.026299E-3,301.297760E-3
173.812866E-3,301.365280E-3
174.057198E-3,301.773834E-3
174.028015E-3,301.632500E-3
174.040604E-3,301.758385E-3
174.118423E-3,301.903152E-3
173.913002E-3,301.602173E-3
174.295807E-3,301.861954E-3
174.055481E-3,301.827621E-3
174.015999E-3,301.685715E-3
174.163055E-3,302.005005E-3
173.926163E-3,301.725769E-3
174.089241E-3,302.045631E-3
174.102974E-3,302.014160E-3
174.021721E-3,302.011299E-3
174.176788E-3,302.271652E-3
174.070358E-3,302.257919E-3
174.315834E-3,302.639008E-3
174.256325E-3,302.701950E-3
174.350166E-3,302.726555E-3
174.571037E-3,302.989769E-3
174.493217E-3,302.951431E-3
174.740410E-3,303.274155E-3
174.803352E-3,303.429794E-3
174.816513E-3,303.595161E-3
175.127792E-3,303.895569E-3
174.977303E-3,303.787422E-3
175.267982E-3,304.174232E-3
175.187874E-3,304.159927E-3
175.332642E-3,304.257202E-3
175.519180E-3,304.502106E-3
175.353813E-3,304.576492E-3
175.827026E-3,304.986763E-3
175.674248E-3,305.092049E-3
175.667953E-3,305.105782E-3
175.936890E-3,305.599022E-3
175.968933E-3,305.573845E-3
176.208115E-3,305.909729E-3
176.257896E-3,306.073952E-3
176.317406E-3,306.141472E-3
176.484489E-3,306.664467E-3
176.395798E-3,306.623840E-3
176.659584E-3,306.842995E-3
176.634407E-3,306.731987E-3
176.515388E-3,306.638145E-3
176.406097E-3,306.366920E-3
175.841904E-3,305.510902E-3
175.126648E-3,304.249191E-3
173.849487E-3,301.959801E-3
172.306252E-3,299.090767E-3
170.948982E-3,296.138763E-3
169.385719E-3,293.027115E-3
168.437004E-3,290.665627E-3
167.620468E-3,288.577080E-3
167.105484E-3,287.247849E-3
167.174721E-3,286.831856E-3
167.100334E-3,286.661339E-3
167.407036E-3,287.384033E-3
167.768669E-3,288.153076E-3
168.079948E-3,289.244270E-3
168.731117E-3,290.469360E-3
169.009209E-3,291.522217E-3
169.590569E-3,292.464066E-3
169.813156E-3,293.167877E-3
169.892120E-3,293.373299E-3
170.086670E-3,293.849945E-3
169.997406E-3,293.437958E-3
170.002556E-3,293.581009E-3
169.806290E-3,293.203354E-3
169.714165E-3,292.920113E-3
169.814873E-3,293.037987E-3
169.757080E-3,293.150711E-3
170.124435E-3,293.692589E-3
170.352173E-3,294.241905E-3
170.636559E-3,294.855881E-3
170.947266E-3,295.399475E-3
170.825958E-3,295.643806E-3
171.038246E-3,295.992279E-3
170.939255E-3,295.824623E-3
170.740128E-3,295.322227E-3
170.813370E-3,295.157433E-3
170.440865E-3,294.685936E-3
170.536423E-3,294.475365E-3
170.372200E-3,294.372368E-3
170.129585E-3,294.207573E-3
170.448875E-3,294.646454E-3
170.469475E-3,294.577217E-3
170.773888E-3,295.183754E-3
170.932961E-3,295.481873E-3
171.019363E-3,295.928192E-3
171.455383E-3,296.597672E-3
171.542358E-3,297.024536E-3
171.938324E-3,297.585297E-3
172.103119E-3,298.086548E-3
172.162056E-3,298.553467E-3
172.571182E-3,298.990631E-3
172.560883E-3,299.309349E-3
172.933960E-3,299.763680E-3
172.970009E-3,299.959373E-3
172.907639E-3,299.922180E-3
173.287582E-3,300.274086E-3
173.043823E-3,300.279808E-3
173.177719E-3,300.381088E-3
173.107910E-3,300.350189E-3
173.045540E-3,300.402832E-3
173.265266E-3,300.557327E-3
173.131371E-3,300.380516E-3
173.221779E-3,300.533295E-3
173.257256E-3,300.589371E-3
173.222923E-3,300.667191E-3
173.468399E-3,300.909805E-3
173.353958E-3,300.770760E-3
173.531914E-3,301.122093E-3
173.525047E-3,301.105499E-3
173.495293E-3,301.161575E-3
173.753929E-3,301.456261E-3
173.742485E-3,301.404762E-3
173.982811E-3,301.692009E-3
174.039459E-3,301.808739E-3
174.036026E-3,301.934624E-3
174.335861E-3,302.232742E-3
174.208260E-3,302.411270E-3
174.509239E-3,302.619553E-3
174.616241E-3,302.918243E-3
174.564171E-3,302.938843E-3
174.791336E-3,303.374290E-3
174.735260E-3,303.260422E-3
174.997330E-3,303.516769E-3
174.969864E-3,303.607178E-3
174.945259E-3,303.614044E-3
175.198174E-3,303.939629E-3
175.067711E-3,303.820038E-3
175.332642E-3,303.985405E-3
175.346375E-3,304.109001E-3
175.421333E-3,304.276657E-3
175.652504E-3,304.700661E-3
175.461388E-3,304.637146E-3
175.758934E-3,304.859161E-3
175.736046E-3,305.018806E-3
175.787544E-3,305.110931E-3
176.078796E-3,305.509758E-3
175.921440E-3,305.574989E-3
176.058769E-3,305.859375E-3
176.131439E-3,306.094551E-3
176.061630E-3,305.943489E-3
176.189804E-3,306.211853E-3
176.085091E-3,305.766106E-3
175.976372E-3,305.513763E-3
175.292587E-3,304.413986E-3
174.128723E-3,302.382660E-3
172.970009E-3,300.056648E-3
171.296310E-3,296.944427E-3
169.976807E-3,294.008446E-3
168.614388E-3,291.086769E-3
167.544937E-3,288.430023E-3
167.032242E-3,287.045860E-3
166.589928E-3,285.830498E-3
166.660309E-3,285.662270E-3
166.819954E-3,285.846519E-3
166.997910E-3,286.476517E-3
167.615891E-3,287.838364E-3
168.025017E-3,288.654900E-3
168.582344E-3,290.003586E-3
169.032097E-3,291.014671E-3
169.233513E-3,291.708755E-3
169.727325E-3,292.703247E-3
169.671249E-3,292.734146E-3
169.843483E-3,293.054581E-3
169.676971E-3,292.913246E-3
169.597435E-3,292.536163E-3
169.671249E-3,292.478371E-3
169.353104E-3,291.945648E-3
169.445229E-3,292.133904E-3
169.551086E-3,292.236900E-3
169.718170E-3,292.617416E-3
170.189667E-3,293.425941E-3
170.225143E-3,293.883705E-3
170.503235E-3,294.510841E-3
170.676613E-3,294.661331E-3
170.518112E-3,294.621849E-3
170.795631E-3,294.799232E-3
170.488930E-3,294.495392E-3
170.435715E-3,294.265938E-3
170.272636E-3,293.892860E-3
170.110130E-3,293.710899E-3
170.282364E-3,293.764687E-3
170.092964E-3,293.607903E-3
170.394516E-3,294.001007E-3
170.564461E-3,294.093132E-3
170.624542E-3,294.492531E-3
171.147537E-3,295.265007E-3
171.245384E-3,295.723343E-3
171.605873E-3,296.383667E-3
171.893120E-3,296.846581E-3
172.017288E-3,297.362137E-3
172.473335E-3,297.863388E-3
172.544289E-3,298.189545E-3
172.947121E-3,298.875046E-3
173.043823E-3,299.110222E-3
173.000336E-3,299.354553E-3
173.356819E-3,299.735641E-3
173.281288E-3,299.798012E-3
173.513603E-3,299.965668E-3
173.587418E-3,300.044632E-3
173.419189E-3,299.973679E-3
173.680687E-3,300.282669E-3
173.514175E-3,300.314140E-3
173.826599E-3,300.474930E-3
173.738480E-3,300.495529E-3
173.644066E-3,300.417709E-3
173.917007E-3,300.639725E-3
173.630905E-3,300.354767E-3
173.858070E-3,300.749016E-3
173.935318E-3,300.779915E-3
173.922729E-3,300.817680E-3
174.223709E-3,301.286316E-3
174.086952E-3,301.255417E-3
174.291229E-3,301.453400E-3
174.309540E-3,301.631355E-3
174.267769E-3,301.530647E-3
174.584198E-3,301.867104E-3
174.548149E-3,302.013588E-3
174.739838E-3,302.237892E-3
174.835968E-3,302.380371E-3
174.829102E-3,302.412415E-3
175.134087E-3,302.899361E-3
175.090599E-3,302.840424E-3
175.321198E-3,303.166008E-3
175.379562E-3,303.267860E-3
175.246811E-3,303.301048E-3
175.567818E-3,303.730774E-3
175.499153E-3,303.746796E-3
175.745201E-3,303.852654E-3
175.691414E-3,303.983688E-3
175.680542E-3,303.923607E-3
175.986671E-3,304.400253E-3
175.772095E-3,304.348183E-3
176.034737E-3,304.627419E-3
176.157761E-3,304.645729E-3
176.151466E-3,304.749870E-3
176.477623E-3,305.459404E-3
176.418114E-3,305.336952E-3
176.613235E-3,305.700874E-3
176.642990E-3,305.782127E-3
176.619530E-3,305.760956E-3
176.897049E-3,306.212425E-3
176.740265E-3,306.062508E-3
176.865578E-3,306.138611E-3
176.775169E-3,306.051636E-3
176.494217E-3,305.628204E-3
176.294518E-3,305.069733E-3
175.193024E-3,303.202629E-3
173.950195E-3,300.891495E-3
172.492790E-3,298.160934E-3
170.990181E-3,295.152855E-3
170.021439E-3,292.552185E-3
168.751144E-3,290.021324E-3
168.260765E-3,288.437462E-3
167.950630E-3,287.548256E-3
167.849922E-3,287.056732E-3
168.240166E-3,287.632370E-3
168.340302E-3,288.266945E-3
168.969727E-3,289.335823E-3
169.205475E-3,290.460205E-3
169.718170E-3,291.438675E-3
170.448303E-3,292.876053E-3
170.594788E-3,293.439102E-3
171.095467E-3,294.172096E-3
171.216774E-3,294.686508E-3
171.122932E-3,294.590950E-3
171.303749E-3,294.923973E-3
171.145248E-3,294.522285E-3
171.113777E-3,294.523430E-3
171.106339E-3,294.577217E-3
171.117783E-3,294.418716E-3
171.524620E-3,295.125961E-3
171.655083E-3,295.592880E-3
172.073936E-3,296.218300E-3
172.137451E-3,296.647453E-3
172.081947E-3,296.640015E-3
172.257042E-3,296.923828E-3
171.887970E-3,296.561623E-3
171.842766E-3,296.125031E-3
171.636200E-3,295.590019E-3
171.178436E-3,295.039558E-3
171.292305E-3,294.961166E-3
170.947838E-3,294.532585E-3
171.057701E-3,294.568062E-3
170.925522E-3,294.806671E-3
170.904350E-3,294.840431E-3
171.326065E-3,295.556259E-3
171.366119E-3,295.717049E-3
171.791267E-3,296.397400E-3
172.085381E-3,297.047424E-3
172.204971E-3,297.463417E-3
172.725677E-3,298.282814E-3
172.668457E-3,298.573494E-3
173.070717E-3,299.123383E-3
173.185158E-3,299.479294E-3
173.275566E-3,299.708176E-3
173.638916E-3,300.346184E-3
173.571968E-3,300.363350E-3
173.659515E-3,300.522995E-3
173.688126E-3,300.737000E-3
173.567963E-3,300.605392E-3
173.891830E-3,300.896645E-3
173.682976E-3,300.834846E-3
173.695564E-3,300.769043E-3
173.541069E-3,300.767899E-3
173.378563E-3,300.579071E-3
173.708153E-3,300.855446E-3
173.467827E-3,300.832558E-3
173.478127E-3,300.955009E-3
173.363113E-3,300.879478E-3
173.369980E-3,300.852585E-3
173.742485E-3,301.173019E-3
173.605156E-3,301.096916E-3
173.681831E-3,301.298332E-3
173.753929E-3,301.342964E-3
173.619461E-3,301.443672E-3
173.936462E-3,301.837921E-3
173.819160E-3,301.721764E-3
173.937607E-3,302.037621E-3
173.975945E-3,302.090836E-3
173.957634E-3,302.145767E-3
174.326706E-3,302.604675E-3
174.260330E-3,302.633858E-3
174.406242E-3,302.739143E-3
174.377060E-3,302.848434E-3
174.342728E-3,302.888489E-3
174.774170E-3,303.308487E-3
174.641418E-3,303.309059E-3
174.879456E-3,303.483009E-3
175.020790E-3,303.747368E-3
175.043678E-3,303.982544E-3
175.456810E-3,304.336166E-3
175.438499E-3,304.357338E-3
175.653076E-3,304.588509E-3
175.827026E-3,304.870033E-3
175.857925E-3,305.089760E-3
176.424408E-3,305.591011E-3
176.195526E-3,305.577278E-3
176.100540E-3,305.709457E-3
176.142883E-3,305.874825E-3
176.124001E-3,305.814171E-3
176.244736E-3,305.925751E-3
175.892830E-3,305.467987E-3
175.698853E-3,304.957581E-3
174.789047E-3,303.788567E-3
173.565102E-3,301.729202E-3
172.366905E-3,299.089622E-3
170.707512E-3,295.923615E-3
169.416046E-3,292.901802E-3
168.362045E-3,290.291977E-3
167.378426E-3,287.988281E-3
167.088890E-3,286.744881E-3
166.582489E-3,285.711479E-3
166.920090E-3,285.900879E-3
167.034531E-3,286.466217E-3
167.205620E-3,287.164307E-3
167.893982E-3,288.344765E-3
168.222427E-3,289.421654E-3
168.782616E-3,290.522003E-3
169.080734E-3,291.522217E-3
169.173431E-3,291.970253E-3
169.575119E-3,292.422867E-3
169.520187E-3,292.601395E-3
169.587708E-3,292.691803E-3
169.516754E-3,292.654037E-3
169.259262E-3,292.242622E-3
169.452667E-3,292.167664E-3
169.199181E-3,291.969681E-3
169.411469E-3,292.143631E-3
169.568253E-3,292.627716E-3
169.725037E-3,293.182755E-3
170.278931E-3,294.128609E-3
170.277214E-3,294.457626E-3
170.318413E-3,294.698524E-3
170.301819E-3,294.820404E-3
170.183945E-3,294.592094E-3
170.313263E-3,294.467926E-3
170.004272E-3,294.008446E-3
169.882965E-3,293.642235E-3
169.737625E-3,293.528366E-3
169.517326E-3,293.284607E-3
169.713020E-3,293.368721E-3
169.578552E-3,293.270302E-3
169.747353E-3,293.686867E-3
169.945908E-3,294.077110E-3
170.105553E-3,294.391251E-3
170.537567E-3,295.016098E-3
170.720100E-3,295.429230E-3
170.991325E-3,296.218300E-3
171.302605E-3,296.829987E-3
171.508026E-3,297.140121E-3
171.855354E-3,297.751808E-3
171.883965E-3,297.972679E-3
172.122002E-3,298.496246E-3
172.289658E-3,298.793793E-3
172.430420E-3,298.900223E-3
172.602081E-3,299.350548E-3
172.443581E-3,299.347115E-3
172.498512E-3,299.386597E-3
172.674751E-3,299.489021E-3
172.503090E-3,299.395752E-3
172.771454E-3,299.598312E-3
172.560883E-3,299.614906E-3
172.587204E-3,299.602318E-3
172.848701E-3,299.854088E-3
172.746277E-3,299.688721E-3
172.817230E-3,299.937057E-3
172.683907E-3,299.773979E-3
172.744560E-3,299.928474E-3
172.909927E-3,300.096703E-3
172.753143E-3,300.076675E-3
173.006630E-3,300.349617E-3
172.846413E-3,300.292969E-3
173.059845E-3,300.369644E-3
173.161125E-3,300.657463E-3
173.137665E-3,300.621986E-3
173.435211E-3,301.120949E-3
173.343086E-3,301.272011E-3
173.620605E-3,301.407623E-3
173.725319E-3,301.834488E-3
173.744202E-3,301.894569E-3
174.049187E-3,302.173805E-3
173.965073E-3,302.212715E-3
174.074936E-3,302.448463E-3
174.200249E-3,302.632713E-3
174.172783E-3,302.674484E-3
174.389648E-3,302.925682E-3
174.308968E-3,302.936554E-3
174.414253E-3,302.969170E-3
174.676895E-3,303.405190E-3
174.539566E-3,303.125381E-3
174.853706E-3,303.470421E-3
174.670029E-3,303.514481E-3
174.860573E-3,303.780556E-3
175.061417E-3,303.993988E-3
175.029945E-3,303.915024E-3
175.267982E-3,304.440880E-3
175.253677E-3,304.451180E-3
175.543213E-3,304.740143E-3
175.693130E-3,304.982185E-3
175.536346E-3,305.018806E-3
175.807571E-3,305.310059E-3
175.691986E-3,305.244827E-3
175.722885E-3,305.374146E-3
175.702858E-3,305.270576E-3
175.159836E-3,304.353333E-3
174.632263E-3,303.355980E-3
173.323631E-3,301.234818E-3
171.994972E-3,298.605537E-3
170.613670E-3,295.521927E-3
169.046402E-3,292.133904E-3
167.964363E-3,289.656830E-3
166.888618E-3,287.198639E-3
166.458321E-3,285.704041E-3
166.259193E-3,284.860039E-3
166.142464E-3,284.761047E-3
166.509819E-3,285.372162E-3
166.648293E-3,285.878563E-3
167.067146E-3,287.091064E-3
167.647934E-3,288.137627E-3
167.891121E-3,289.031982E-3
168.404388E-3,290.022469E-3
168.439865E-3,290.530586E-3
168.828392E-3,291.035843E-3
168.878174E-3,291.357994E-3
168.570328E-3,291.028404E-3
168.735123E-3,291.039276E-3
168.400383E-3,290.620422E-3
168.383789E-3,290.271378E-3
168.367195E-3,290.307999E-3
168.150330E-3,290.069962E-3
168.595505E-3,290.587234E-3
168.622971E-3,291.069603E-3
169.061852E-3,291.816330E-3
169.570541E-3,292.687798E-3
169.457817E-3,293.222237E-3
169.798851E-3,293.645096E-3
169.728470E-3,293.495178E-3
169.802856E-3,293.507195E-3
169.860649E-3,293.465424E-3
169.454384E-3,293.015099E-3
169.597435E-3,292.798233E-3
169.403458E-3,292.519569E-3
169.447517E-3,292.574501E-3
169.640350E-3,292.743301E-3
169.514465E-3,292.770767E-3
169.837189E-3,293.295479E-3
169.884109E-3,293.565559E-3
170.120430E-3,294.122314E-3
170.578766E-3,294.750023E-3
170.606232E-3,295.212936E-3
171.069145E-3,296.006584E-3
171.184158E-3,296.149063E-3
171.487427E-3,296.669197E-3
171.798706E-3,297.274590E-3
171.815300E-3,297.560120E-3
172.162056E-3,298.081398E-3
171.984100E-3,298.128319E-3
172.329140E-3,298.341179E-3
172.532272E-3,298.697662E-3
172.557449E-3,298.711395E-3
172.848701E-3,298.987770E-3
172.709084E-3,299.043274E-3
172.823524E-3,299.186897E-3
173.102188E-3,299.289322E-3
172.893333E-3,299.176598E-3
173.063278E-3,299.463844E-3
173.014641E-3,299.368286E-3
173.124504E-3,299.495888E-3
173.289871E-3,299.695015E-3
173.083305E-3,299.708748E-3
173.409462E-3,299.881554E-3
173.323631E-3,299.784851E-3
173.365402E-3,299.942780E-3
173.529053E-3,300.223160E-3
173.464966E-3,300.242043E-3
173.704147E-3,300.547600E-3
173.698997E-3,300.577927E-3
173.818588E-3,300.939560E-3
174.036026E-3,301.194191E-3
174.011421E-3,301.245689E-3
174.335861E-3,301.626205E-3
174.483490E-3,301.735497E-3
174.529266E-3,301.870537E-3
174.633408E-3,302.216721E-3
174.613380E-3,302.179527E-3
174.873734E-3,302.574348E-3
174.792480E-3,302.625275E-3
175.018501E-3,302.854156E-3
175.174141E-3,303.115082E-3
175.083733E-3,303.004646E-3
175.165558E-3,303.080177E-3
175.129509E-3,303.247833E-3
175.209045E-3,303.435516E-3
175.390434E-3,303.640938E-3
175.365829E-3,303.506470E-3
175.650215E-3,303.964233E-3
175.630760E-3,303.963661E-3
175.762367E-3,304.161072E-3
176.073074E-3,304.536438E-3
175.978088E-3,304.399681E-3
176.208687E-3,304.906082E-3
176.158333E-3,304.883766E-3
176.214981E-3,305.094910E-3
176.404381E-3,305.348396E-3
176.305389E-3,305.208206E-3
176.582909E-3,305.536652E-3
176.363754E-3,305.477142E-3
176.241302E-3,305.151558E-3
175.878525E-3,304.163933E-3
174.540710E-3,301.999855E-3
173.387146E-3,299.666977E-3
171.885109E-3,296.907234E-3
170.538139E-3,294.076538E-3
169.501877E-3,291.491890E-3
168.527985E-3,289.170456E-3
168.364334E-3,287.953949E-3
167.928886E-3,287.189484E-3
167.984390E-3,287.063599E-3
168.243599E-3,287.750816E-3
