Notes :


2023-11-23 ¿ÀÈÄ 10:42:08
Volts
Ch : LED 2,Ch : LED 3,
387.528992E-3,223.748016E-3
388.513184E-3,224.803734E-3
388.719177E-3,224.999428E-3
389.682198E-3,226.456261E-3
389.686203E-3,226.764679E-3
389.763451E-3,227.260780E-3
389.773750E-3,227.408409E-3
389.423561E-3,227.026176E-3
389.212418E-3,226.675415E-3
389.143753E-3,226.404762E-3
389.079094E-3,226.079750E-3
389.544296E-3,226.239395E-3
389.027596E-3,225.929260E-3
389.338875E-3,226.362991E-3
389.282799E-3,226.342392E-3
389.299965E-3,226.471710E-3
389.945412E-3,227.247620E-3
389.876175E-3,227.244759E-3
390.742493E-3,228.305626E-3
390.744781E-3,228.823471E-3
391.092682E-3,229.388809E-3
391.330719E-3,229.992485E-3
391.236305E-3,229.926109E-3
391.513824E-3,230.599594E-3
391.613960E-3,231.134605E-3
391.817093E-3,231.311989E-3
392.262268E-3,231.872177E-3
392.049408E-3,231.989479E-3
391.946983E-3,232.409477E-3
392.152405E-3,232.443237E-3
392.284012E-3,232.555962E-3
392.838478E-3,233.159065E-3
392.398453E-3,233.104706E-3
392.798424E-3,233.758163E-3
392.819595E-3,233.774185E-3
393.006134E-3,233.949852E-3
393.481636E-3,234.392166E-3
392.873955E-3,234.126091E-3
393.483925E-3,234.786987E-3
393.363762E-3,234.700584E-3
393.708801E-3,234.584999E-3
393.859291E-3,234.835625E-3
393.259621E-3,234.667969E-3
393.299103E-3,234.769249E-3
393.189812E-3,234.858513E-3
392.887115E-3,235.170937E-3
393.251038E-3,235.336304E-3
393.174934E-3,235.157204E-3
393.442726E-3,235.602951E-3
393.245316E-3,235.697937E-3
393.195534E-3,235.799789E-3
393.794060E-3,236.203194E-3
393.510246E-3,235.901642E-3
394.079590E-3,236.513329E-3
393.939400E-3,236.569977E-3
393.957710E-3,236.563110E-3
394.298172E-3,236.890411E-3
393.800354E-3,236.993980E-3
393.980598E-3,236.989975E-3
393.785477E-3,237.446022E-3
393.891907E-3,237.367058E-3
394.322777E-3,237.969589E-3
393.983459E-3,237.800217E-3
394.262123E-3,238.322067E-3
394.434929E-3,238.712883E-3
394.321060E-3,238.482285E-3
394.796562E-3,239.158058E-3
394.331932E-3,239.148903E-3
395.268631E-3,239.798355E-3
395.091820E-3,240.139389E-3
394.882393E-3,240.078735E-3
394.856644E-3,240.192604E-3
394.364548E-3,239.629555E-3
393.865585E-3,238.814735E-3
392.753220E-3,236.864662E-3
391.573906E-3,234.045410E-3
390.075302E-3,231.091690E-3
388.127518E-3,227.009010E-3
386.572266E-3,224.185753E-3
385.659027E-3,221.500969E-3
385.014153E-3,219.551468E-3
384.333801E-3,218.640518E-3
384.020233E-3,217.741585E-3
384.317207E-3,218.015099E-3
384.515190E-3,218.528938E-3
385.485649E-3,219.256783E-3
386.777115E-3,221.582794E-3
387.162781E-3,222.341537E-3
388.392448E-3,224.420929E-3
388.779259E-3,225.508690E-3
389.138031E-3,226.255417E-3
389.473343E-3,227.089119E-3
389.502525E-3,227.301407E-3
389.514542E-3,227.590942E-3
389.358902E-3,227.357483E-3
389.387512E-3,227.299118E-3
389.500809E-3,227.607536E-3
388.992691E-3,227.042198E-3
389.258194E-3,227.437019E-3
389.296532E-3,227.553749E-3
389.119148E-3,227.644730E-3
389.832115E-3,228.602028E-3
389.657021E-3,228.536224E-3
390.365410E-3,229.405403E-3
390.296173E-3,229.456329E-3
390.063858E-3,229.430008E-3
389.987755E-3,229.375076E-3
389.645004E-3,228.756523E-3
389.286804E-3,228.274155E-3
389.130020E-3,227.857590E-3
388.953209E-3,227.331161E-3
389.088821E-3,227.469635E-3
388.691139E-3,227.176094E-3
389.199829E-3,227.643013E-3
389.180374E-3,227.730560E-3
388.901711E-3,227.742004E-3
389.507103E-3,228.576851E-3
389.644432E-3,228.920746E-3
390.335655E-3,230.077744E-3
390.565109E-3,230.478859E-3
390.563965E-3,231.180954E-3
390.937614E-3,231.896210E-3
390.776825E-3,232.117653E-3
391.327858E-3,232.563400E-3
391.406822E-3,233.107567E-3
391.860008E-3,233.438873E-3
391.952705E-3,234.071732E-3
391.762161E-3,234.195900E-3
391.783905E-3,234.523773E-3
392.007065E-3,234.692001E-3
392.200470E-3,234.821892E-3
392.417336E-3,235.180092E-3
392.084885E-3,234.986115E-3
392.595863E-3,235.733414E-3
392.453384E-3,235.814095E-3
392.288589E-3,235.639572E-3
392.592430E-3,236.057854E-3
392.372131E-3,235.921669E-3
392.550087E-3,236.409760E-3
392.641640E-3,236.416626E-3
392.574692E-3,236.496735E-3
392.721748E-3,236.529350E-3
392.564392E-3,236.330223E-3
392.587280E-3,236.325073E-3
392.682838E-3,236.202049E-3
392.698860E-3,236.101913E-3
392.855644E-3,236.582565E-3
392.578125E-3,236.371994E-3
393.245316E-3,237.040329E-3
392.905426E-3,237.252045E-3
392.359543E-3,237.139893E-3
392.811012E-3,237.362480E-3
392.586708E-3,237.196541E-3
393.010712E-3,237.871742E-3
393.134308E-3,238.048553E-3
392.870522E-3,237.862587E-3
392.955780E-3,238.322639E-3
392.970085E-3,238.157845E-3
392.994118E-3,238.415337E-3
392.983818E-3,238.494873E-3
393.127441E-3,238.801003E-3
393.282509E-3,239.082527E-3
393.214417E-3,239.234161E-3
393.550301E-3,239.686203E-3
393.499947E-3,239.614105E-3
393.105698E-3,239.582062E-3
393.665886E-3,240.238380E-3
393.479919E-3,240.553093E-3
394.128227E-3,241.005135E-3
394.194031E-3,241.156769E-3
394.147110E-3,241.528702E-3
394.211769E-3,241.825676E-3
393.847847E-3,241.199684E-3
393.666458E-3,240.953636E-3
393.071938E-3,239.741707E-3
391.807365E-3,237.445450E-3
390.741920E-3,234.625053E-3
388.826752E-3,230.498886E-3
387.551880E-3,227.526855E-3
385.719109E-3,223.730278E-3
384.301758E-3,220.701599E-3
383.541870E-3,218.774414E-3
382.810593E-3,217.263794E-3
382.804298E-3,216.869545E-3
383.159637E-3,217.199707E-3
384.017372E-3,218.078613E-3
384.916306E-3,219.343758E-3
385.495949E-3,219.895935E-3
386.700439E-3,221.803665E-3
387.432289E-3,223.201561E-3
387.450600E-3,224.028969E-3
388.451958E-3,225.226021E-3
388.247681E-3,225.887489E-3
388.934326E-3,226.323509E-3
389.134598E-3,226.450539E-3
388.801575E-3,226.032829E-3
388.841057E-3,226.068306E-3
388.204765E-3,225.411987E-3
388.355255E-3,225.362778E-3
388.257980E-3,225.312996E-3
388.399315E-3,225.171089E-3
388.636208E-3,225.508118E-3
388.715744E-3,225.375366E-3
389.069939E-3,226.136398E-3
389.443016E-3,227.158356E-3
389.707947E-3,227.437592E-3
389.888763E-3,228.149414E-3
389.531136E-3,228.242111E-3
389.956284E-3,228.597450E-3
389.782333E-3,228.212929E-3
389.614677E-3,227.762604E-3
389.680481E-3,227.760315E-3
388.903999E-3,227.389526E-3
389.360619E-3,227.519417E-3
389.072227E-3,227.380943E-3
388.918877E-3,227.171516E-3
389.381218E-3,227.663612E-3
389.204979E-3,227.538872E-3
390.134239E-3,228.540802E-3
390.257835E-3,229.106712E-3
390.193176E-3,229.508400E-3
390.757942E-3,230.002785E-3
390.701294E-3,230.416489E-3
391.048050E-3,230.812454E-3
391.160202E-3,231.574631E-3
391.310692E-3,231.896210E-3
391.800499E-3,232.485008E-3
391.565895E-3,232.699013E-3
392.111206E-3,233.323288E-3
392.044830E-3,233.567047E-3
392.103195E-3,233.789062E-3
392.377281E-3,234.203911E-3
392.205048E-3,234.072304E-3
392.424202E-3,234.508324E-3
392.551231E-3,234.764099E-3
392.329788E-3,234.573555E-3
392.627335E-3,235.010719E-3
392.354965E-3,234.908295E-3
392.472267E-3,235.141754E-3
392.711449E-3,235.457039E-3
392.688560E-3,235.018158E-3
392.815590E-3,235.655022E-3
392.528343E-3,235.702515E-3
393.073082E-3,236.006355E-3
393.093681E-3,236.017227E-3
393.167496E-3,236.178589E-3
393.221283E-3,236.259270E-3
393.008995E-3,236.077881E-3
393.235016E-3,236.130524E-3
393.168640E-3,236.400032E-3
392.883682E-3,236.203194E-3
393.321419E-3,237.059784E-3
393.071938E-3,236.648369E-3
393.285370E-3,237.200546E-3
393.423271E-3,237.584496E-3
392.960930E-3,237.279510E-3
393.432999E-3,237.951279E-3
393.420982E-3,237.726974E-3
393.394089E-3,237.969017E-3
393.462753E-3,238.184738E-3
393.757439E-3,238.582420E-3
393.930244E-3,238.787270E-3
393.749428E-3,238.596153E-3
394.236946E-3,239.222717E-3
394.264984E-3,239.296532E-3
393.829536E-3,239.204979E-3
394.132233E-3,239.701080E-3
393.883896E-3,239.398956E-3
394.157410E-3,239.632416E-3
394.093895E-3,240.111923E-3
394.369698E-3,240.316200E-3
394.547081E-3,240.884972E-3
394.161415E-3,240.634346E-3
394.268417E-3,241.016006E-3
394.331360E-3,241.286659E-3
394.214630E-3,241.347885E-3
394.572258E-3,241.682625E-3
394.084167E-3,240.812302E-3
393.934822E-3,239.551735E-3
392.381859E-3,237.008858E-3
390.637779E-3,233.404541E-3
389.177513E-3,230.088043E-3
387.360764E-3,226.226807E-3
386.067581E-3,222.993279E-3
384.792137E-3,220.776558E-3
384.330940E-3,218.800163E-3
383.879471E-3,217.898941E-3
383.464050E-3,216.974831E-3
383.926964E-3,217.591667E-3
384.638786E-3,218.563843E-3
385.714531E-3,219.951439E-3
386.790848E-3,221.697807E-3
387.276649E-3,222.779274E-3
388.729477E-3,224.341393E-3
389.081955E-3,225.326157E-3
389.550018E-3,225.916672E-3
389.715385E-3,226.533508E-3
389.864159E-3,226.793289E-3
390.006638E-3,226.921463E-3
390.065002E-3,227.034760E-3
390.061569E-3,226.560402E-3
389.884758E-3,226.300049E-3
389.343452E-3,225.631142E-3
389.186668E-3,225.658035E-3
389.382362E-3,225.810242E-3
389.489365E-3,226.111221E-3
390.234947E-3,227.161789E-3
390.253830E-3,227.490234E-3
390.989685E-3,228.502464E-3
391.086960E-3,228.945351E-3
390.980530E-3,228.874397E-3
391.247177E-3,229.200554E-3
390.885544E-3,228.754807E-3
390.791130E-3,228.705025E-3
390.822029E-3,228.510475E-3
390.804863E-3,227.968597E-3
390.925598E-3,228.210640E-3
390.531921E-3,227.910233E-3
390.500450E-3,228.010368E-3
390.672684E-3,228.269005E-3
390.580559E-3,228.141403E-3
391.130447E-3,228.951645E-3
391.288948E-3,229.344177E-3
391.669464E-3,230.171013E-3
391.938400E-3,230.766678E-3
391.762733E-3,231.078529E-3
392.207336E-3,231.710815E-3
392.318916E-3,231.907654E-3
392.548943E-3,232.395744E-3
392.827034E-3,232.938194E-3
392.859650E-3,232.994843E-3
393.374634E-3,233.799934E-3
393.029022E-3,233.954430E-3
393.325996E-3,234.714317E-3
393.394089E-3,234.722900E-3
393.297958E-3,234.983253E-3
393.753433E-3,235.295677E-3
393.773460E-3,235.416985E-3
393.989182E-3,235.609245E-3
393.861580E-3,235.597801E-3
393.839264E-3,235.851860E-3
394.038391E-3,236.322784E-3
393.687630E-3,235.913658E-3
393.798065E-3,235.954285E-3
393.881607E-3,236.119652E-3
393.776894E-3,236.115074E-3
394.081306E-3,236.531067E-3
393.829536E-3,236.389160E-3
394.061279E-3,236.451530E-3
394.190598E-3,236.623192E-3
393.839264E-3,236.684990E-3
394.255257E-3,236.940765E-3
394.165993E-3,236.928177E-3
394.273567E-3,237.154198E-3
394.265556E-3,237.316132E-3
394.280434E-3,237.023735E-3
394.347382E-3,237.555885E-3
394.243813E-3,237.541580E-3
394.428635E-3,237.965584E-3
394.352531E-3,238.039970E-3
394.191170E-3,238.018227E-3
394.805717E-3,238.525772E-3
394.482422E-3,238.359833E-3
394.956779E-3,238.909149E-3
394.794273E-3,239.004135E-3
394.705009E-3,239.142036E-3
395.121002E-3,239.693642E-3
394.889259E-3,239.441299E-3
395.372200E-3,239.699364E-3
395.198822E-3,240.266991E-3
394.985390E-3,240.254402E-3
395.555305E-3,240.788269E-3
395.331001E-3,240.650940E-3
395.569611E-3,241.279221E-3
396.002197E-3,241.751289E-3
395.942688E-3,241.667747E-3
396.385002E-3,242.099762E-3
396.263695E-3,242.290306E-3
396.244812E-3,242.282867E-3
396.153259E-3,242.292023E-3
395.395660E-3,240.724182E-3
394.857216E-3,239.258194E-3
393.193245E-3,236.054420E-3
391.369629E-3,232.640076E-3
389.852142E-3,229.214287E-3
388.247681E-3,225.651741E-3
387.332726E-3,223.346329E-3
386.200905E-3,221.235466E-3
385.843849E-3,220.181465E-3
385.778046E-3,219.905090E-3
386.259270E-3,220.040131E-3
387.048912E-3,221.252060E-3
387.574768E-3,222.196770E-3
388.482857E-3,223.664474E-3
389.284515E-3,224.908447E-3
389.718819E-3,226.339531E-3
390.654373E-3,227.839279E-3
390.787125E-3,228.335953E-3
391.291237E-3,229.234314E-3
391.422844E-3,229.765892E-3
391.109276E-3,229.734993E-3
391.440582E-3,230.161858E-3
391.090965E-3,229.938698E-3
391.084099E-3,229.793930E-3
390.856361E-3,229.642868E-3
390.762520E-3,229.340172E-3
391.181946E-3,229.970741E-3
390.899277E-3,229.828262E-3
391.396523E-3,230.452538E-3
391.725540E-3,231.100273E-3
391.401100E-3,231.279945E-3
391.691208E-3,231.554604E-3
391.345024E-3,231.376076E-3
391.468620E-3,231.324577E-3
391.254044E-3,230.825043E-3
390.828896E-3,230.150986E-3
390.873528E-3,230.080032E-3
390.117645E-3,229.356194E-3
390.076447E-3,228.953934E-3
390.078163E-3,229.018593E-3
389.794350E-3,229.060936E-3
390.530205E-3,229.721832E-3
390.520477E-3,230.086899E-3
390.945625E-3,230.716324E-3
391.102982E-3,231.162643E-3
391.080666E-3,231.477356E-3
391.596794E-3,232.198906E-3
391.424561E-3,232.476425E-3
391.825676E-3,233.009148E-3
392.116356E-3,233.612823E-3
392.107201E-3,233.798218E-3
392.523766E-3,234.662247E-3
392.196465E-3,234.780693E-3
392.447090E-3,235.382080E-3
392.753220E-3,235.816383E-3
392.514038E-3,235.792351E-3
392.960930E-3,236.442375E-3
392.968941E-3,236.404037E-3
393.331146E-3,236.688423E-3
393.101692E-3,236.759949E-3
392.972946E-3,236.682701E-3
393.325424E-3,237.064934E-3
392.961502E-3,236.912727E-3
393.068504E-3,237.130737E-3
393.223000E-3,237.393379E-3
393.065643E-3,237.383652E-3
393.551445E-3,237.765884E-3
393.027306E-3,237.275505E-3
393.113136E-3,237.362480E-3
393.510246E-3,237.825394E-3
393.061638E-3,237.513542E-3
393.552017E-3,237.944412E-3
393.292809E-3,237.756157E-3
393.533707E-3,238.160706E-3
393.390656E-3,238.166428E-3
393.364906E-3,238.152695E-3
393.656158E-3,238.764381E-3
393.515396E-3,238.616753E-3
393.855286E-3,238.787842E-3
393.671036E-3,238.842201E-3
393.522835E-3,238.652229E-3
393.740273E-3,238.929749E-3
393.277931E-3,238.831329E-3
393.390656E-3,239.268494E-3
393.573761E-3,239.478493E-3
393.551445E-3,239.546585E-3
393.904495E-3,240.063858E-3
393.588638E-3,240.038681E-3
393.943977E-3,240.485573E-3
393.929100E-3,240.835190E-3
393.762589E-3,240.993690E-3
394.266129E-3,241.613960E-3
394.321632E-3,241.905212E-3
394.481850E-3,242.179298E-3
394.700432E-3,242.396164E-3
394.558525E-3,242.431068E-3
394.636917E-3,242.768097E-3
394.409180E-3,242.336082E-3
394.072151E-3,241.262627E-3
393.116570E-3,239.364052E-3
391.655731E-3,236.301041E-3
390.043831E-3,232.898140E-3
388.041687E-3,228.988838E-3
386.397743E-3,225.607109E-3
385.338593E-3,222.530365E-3
384.160995E-3,219.992065E-3
383.814240E-3,219.202423E-3
383.444595E-3,218.350983E-3
383.696365E-3,218.817329E-3
384.435081E-3,219.519424E-3
384.863091E-3,220.283890E-3
386.147118E-3,222.066879E-3
387.046623E-3,223.289108E-3
388.073730E-3,224.597168E-3
388.584709E-3,225.730133E-3
389.097404E-3,226.575851E-3
389.610672E-3,227.729988E-3
389.476204E-3,227.660751E-3
389.534569E-3,227.797508E-3
389.618111E-3,227.793503E-3
389.332008E-3,227.403259E-3
389.501953E-3,227.794075E-3
388.950348E-3,227.150345E-3
388.787270E-3,226.844215E-3
388.918304E-3,227.035904E-3
388.864517E-3,226.888275E-3
389.702225E-3,228.051567E-3
390.034676E-3,228.638077E-3
390.443230E-3,229.465485E-3
390.654373E-3,229.961586E-3
390.436935E-3,229.945564E-3
390.647507E-3,230.169868E-3
390.312767E-3,229.856300E-3
390.250397E-3,229.666328E-3
390.124512E-3,229.226303E-3
389.666748E-3,228.755951E-3
389.950562E-3,229.020309E-3
389.562607E-3,228.623199E-3
389.694214E-3,228.412056E-3
389.693069E-3,228.509331E-3
389.503098E-3,228.564262E-3
390.059280E-3,229.321289E-3
390.237236E-3,229.417419E-3
390.827179E-3,230.233383E-3
390.904999E-3,230.653954E-3
390.776253E-3,231.071663E-3
391.410828E-3,231.948280E-3
391.228294E-3,232.339096E-3
391.626549E-3,232.850075E-3
391.805077E-3,233.462906E-3
391.792488E-3,233.870316E-3
392.267418E-3,234.578133E-3
392.000771E-3,234.464836E-3
392.107201E-3,234.667397E-3
392.349243E-3,235.072517E-3
392.146111E-3,234.972382E-3
392.619896E-3,235.715103E-3
392.623901E-3,235.577202E-3
392.838478E-3,236.072731E-3
392.808151E-3,236.112213E-3
392.460823E-3,235.873032E-3
393.049622E-3,236.449242E-3
392.816162E-3,236.584282E-3
393.062210E-3,236.794853E-3
393.156624E-3,236.699867E-3
393.033028E-3,236.630058E-3
393.134308E-3,237.064362E-3
392.850494E-3,236.848068E-3
393.022156E-3,236.628342E-3
393.193245E-3,236.912727E-3
392.976379E-3,236.844635E-3
393.380356E-3,237.282372E-3
393.158340E-3,236.987114E-3
393.136597E-3,237.052917E-3
393.134308E-3,237.312126E-3
392.924309E-3,237.301254E-3
393.536568E-3,238.123512E-3
393.503380E-3,238.171005E-3
393.751144E-3,238.481140E-3
393.705368E-3,238.549232E-3
393.632126E-3,238.494873E-3
393.852997E-3,238.799858E-3
393.667603E-3,238.903427E-3
393.645859E-3,239.071083E-3
393.711090E-3,239.443016E-3
393.561172E-3,239.347458E-3
393.933105E-3,239.877319E-3
393.729973E-3,239.545441E-3
393.843842E-3,239.889336E-3
394.095039E-3,240.253830E-3
393.946266E-3,240.054131E-3
394.611740E-3,240.837479E-3
394.301033E-3,240.851784E-3
394.518471E-3,241.184807E-3
394.772530E-3,241.342163E-3
394.475555E-3,241.622543E-3
394.979668E-3,242.250824E-3
394.721603E-3,242.226219E-3
394.948196E-3,242.417908E-3
394.821167E-3,242.950058E-3
394.691277E-3,242.498016E-3
394.577408E-3,242.039108E-3
393.630981E-3,239.905930E-3
392.598152E-3,237.562752E-3
391.172791E-3,234.918594E-3
389.077950E-3,230.918884E-3
387.861443E-3,227.510262E-3
385.891914E-3,224.058151E-3
384.860229E-3,221.357918E-3
384.289169E-3,219.423866E-3
383.561897E-3,218.174171E-3
384.182167E-3,218.555260E-3
384.408760E-3,219.001579E-3
385.141182E-3,220.058441E-3
385.973167E-3,221.194267E-3
386.794853E-3,222.207642E-3
387.905502E-3,223.982620E-3
388.418198E-3,225.028038E-3
389.106560E-3,226.288033E-3
389.925957E-3,226.920891E-3
389.722252E-3,227.196121E-3
389.833260E-3,227.760887E-3
389.580917E-3,227.519417E-3
389.479065E-3,227.521133E-3
389.638710E-3,227.135468E-3
389.273643E-3,226.409340E-3
389.453316E-3,226.807022E-3
389.321136E-3,226.530075E-3
389.437294E-3,226.689720E-3
389.484787E-3,227.088547E-3
389.745140E-3,227.307701E-3
390.468407E-3,228.512764E-3
390.635490E-3,228.823471E-3
390.835762E-3,229.133606E-3
391.204834E-3,229.934692E-3
390.895271E-3,229.674339E-3
391.081810E-3,229.685211E-3
390.432930E-3,229.152489E-3
390.373993E-3,228.699303E-3
390.628624E-3,228.806305E-3
390.091324E-3,228.512192E-3
390.067863E-3,228.608322E-3
389.829826E-3,228.107071E-3
389.850998E-3,228.305626E-3
390.398026E-3,228.764534E-3
390.387726E-3,228.765106E-3
391.145897E-3,229.871178E-3
390.925026E-3,229.896927E-3
391.278076E-3,230.782127E-3
391.468048E-3,231.188393E-3
391.593361E-3,231.586647E-3
392.387581E-3,232.626343E-3
392.136955E-3,232.876396E-3
392.413902E-3,233.302116E-3
392.448807E-3,233.954430E-3
392.704010E-3,234.103203E-3
393.282509E-3,234.694862E-3
393.267059E-3,234.894562E-3
393.319702E-3,235.089111E-3
393.417549E-3,235.530281E-3
393.387222E-3,235.604095E-3
393.687057E-3,236.145401E-3
393.613243E-3,236.048698E-3
393.784904E-3,236.249542E-3
393.873596E-3,236.699867E-3
393.777466E-3,236.384010E-3
394.148254E-3,236.765671E-3
393.814659E-3,236.372566E-3
393.787766E-3,236.605453E-3
394.058990E-3,237.112999E-3
393.894196E-3,236.931038E-3
394.207764E-3,237.197685E-3
393.972588E-3,236.928177E-3
394.065285E-3,236.812592E-3
394.131088E-3,237.300682E-3
394.104195E-3,237.156487E-3
394.473839E-3,237.611389E-3
394.506454E-3,237.607956E-3
394.549370E-3,238.082886E-3
394.655228E-3,238.116646E-3
394.416618E-3,237.873459E-3
394.989395E-3,238.689995E-3
394.634628E-3,238.538933E-3
394.630623E-3,238.574409E-3
395.246887E-3,239.202118E-3
394.913292E-3,239.136314E-3
395.174217E-3,239.457893E-3
394.700432E-3,238.943481E-3
394.729042E-3,239.230156E-3
395.154762E-3,239.870453E-3
394.869232E-3,239.748573E-3
395.487213E-3,240.344238E-3
395.265770E-3,240.303040E-3
395.428276E-3,240.693283E-3
395.594788E-3,240.899849E-3
395.334435E-3,240.776825E-3
395.764732E-3,241.355896E-3
395.531845E-3,241.409111E-3
395.795059E-3,241.781616E-3
396.147537E-3,242.152977E-3
395.970726E-3,242.218208E-3
396.082878E-3,242.721748E-3
396.007919E-3,242.598152E-3
396.071434E-3,242.782402E-3
396.335793E-3,242.837906E-3
395.952415E-3,242.503738E-3
395.639420E-3,241.863441E-3
394.181442E-3,239.638710E-3
393.073082E-3,236.936760E-3
391.682053E-3,233.991051E-3
389.795494E-3,230.165863E-3
388.669395E-3,227.167511E-3
387.140465E-3,224.083900E-3
386.176872E-3,222.035980E-3
385.720825E-3,221.075249E-3
385.437584E-3,220.347404E-3
386.476135E-3,221.026039E-3
386.881256E-3,221.773911E-3
387.775040E-3,222.807312E-3
388.996696E-3,224.154854E-3
389.189529E-3,225.390816E-3
390.045547E-3,226.992416E-3
390.587997E-3,227.767181E-3
390.886116E-3,228.894424E-3
391.652298E-3,230.038261E-3
391.537285E-3,230.306625E-3
392.092896E-3,230.794716E-3
391.784477E-3,230.515480E-3
391.660309E-3,230.697441E-3
391.473770E-3,230.446243E-3
391.390800E-3,230.203629E-3
391.797066E-3,230.591583E-3
391.706085E-3,230.679703E-3
391.737556E-3,231.006432E-3
391.970444E-3,231.496239E-3
392.173004E-3,231.899071E-3
392.593002E-3,232.274437E-3
392.376137E-3,232.301903E-3
391.961861E-3,232.314491E-3
392.092323E-3,231.864166E-3
391.387367E-3,231.350327E-3
391.669464E-3,230.908585E-3
391.136742E-3,230.334663E-3
390.887833E-3,229.874039E-3
391.053200E-3,230.073738E-3
390.661240E-3,229.515266E-3
390.874100E-3,229.733849E-3
390.592003E-3,229.989624E-3
390.650368E-3,230.239677E-3
390.938187E-3,230.789566E-3
390.790558E-3,231.214714E-3
391.483498E-3,232.249832E-3
391.584778E-3,232.670403E-3
391.746712E-3,233.212280E-3
391.909790E-3,233.600235E-3
392.079735E-3,233.639145E-3
392.529488E-3,234.559822E-3
392.360115E-3,234.923744E-3
392.718887E-3,235.112572E-3
393.004990E-3,235.792923E-3
392.781258E-3,235.836411E-3
393.098259E-3,236.317062E-3
392.945480E-3,236.031532E-3
393.071938E-3,236.448669E-3
393.254471E-3,237.173653E-3
393.034744E-3,236.971092E-3
393.283081E-3,237.712669E-3
392.994690E-3,237.380791E-3
393.285942E-3,237.487221E-3
393.143463E-3,237.751579E-3
393.093681E-3,237.483215E-3
393.739128E-3,237.868309E-3
393.436432E-3,237.947273E-3
393.478775E-3,238.022804E-3
393.449593E-3,238.113785E-3
393.339729E-3,237.970161E-3
393.423843E-3,238.101768E-3
393.207550E-3,237.883186E-3
393.255615E-3,237.924957E-3
393.513107E-3,238.034248E-3
393.136024E-3,238.124084E-3
393.412399E-3,238.489151E-3
393.004990E-3,238.098907E-3
393.089104E-3,238.285446E-3
393.510246E-3,238.796997E-3
393.275642E-3,238.627052E-3
393.629265E-3,239.107132E-3
393.315697E-3,238.819313E-3
393.276215E-3,239.079666E-3
393.490219E-3,239.374924E-3
393.293381E-3,239.431572E-3
393.933678E-3,239.968872E-3
393.791771E-3,240.000916E-3
394.065857E-3,240.369415E-3
394.104767E-3,240.735054E-3
393.981171E-3,240.772820E-3
394.202042E-3,241.671181E-3
394.032097E-3,241.599083E-3
394.171715E-3,241.689491E-3
394.528770E-3,242.128372E-3
394.341087E-3,242.209053E-3
394.596291E-3,242.525482E-3
394.178009E-3,242.319489E-3
394.079018E-3,241.916656E-3
394.109917E-3,241.880608E-3
393.008995E-3,239.936256E-3
391.980743E-3,237.521553E-3
390.247536E-3,233.924103E-3
388.550377E-3,230.481720E-3
386.951637E-3,227.017593E-3
385.298538E-3,223.706245E-3
384.772110E-3,221.866608E-3
383.912659E-3,220.067024E-3
383.728981E-3,219.371796E-3
383.841705E-3,219.454193E-3
384.175301E-3,219.786644E-3
385.191536E-3,221.056938E-3
385.761452E-3,222.105217E-3
386.909866E-3,223.318863E-3
387.520981E-3,224.983978E-3
387.921524E-3,225.757599E-3
388.314629E-3,226.551247E-3
388.198471E-3,227.128601E-3
388.818741E-3,227.695084E-3
389.376068E-3,228.482437E-3
389.118004E-3,228.122520E-3
389.285088E-3,228.406334E-3
388.846779E-3,227.819252E-3
388.771820E-3,227.762604E-3
388.848495E-3,227.719116E-3
388.710022E-3,227.660179E-3
389.180946E-3,228.032112E-3
389.313126E-3,228.359413E-3
389.757156E-3,229.052353E-3
389.796066E-3,229.672623E-3
389.788055E-3,229.872894E-3
390.166855E-3,230.189896E-3
390.129662E-3,230.056000E-3
389.980316E-3,229.844856E-3
390.254402E-3,230.028534E-3
389.665604E-3,229.423141E-3
389.427567E-3,229.237175E-3
388.890839E-3,228.757095E-3
388.915443E-3,228.484726E-3
389.382935E-3,229.013443E-3
389.002419E-3,228.590584E-3
389.251900E-3,228.824615E-3
389.164352E-3,228.863525E-3
389.577484E-3,229.292107E-3
390.019226E-3,230.268288E-3
389.925385E-3,230.707169E-3
390.571976E-3,231.647873E-3
390.541649E-3,232.000923E-3
390.931892E-3,232.567978E-3
391.230011E-3,233.109283E-3
391.304398E-3,233.482933E-3
391.668892E-3,233.965874E-3
391.701508E-3,234.358406E-3
391.774750E-3,234.645081E-3
391.932106E-3,235.089111E-3
391.847420E-3,235.074806E-3
391.940117E-3,235.290527E-3
391.882896E-3,235.189819E-3
392.122078E-3,235.687065E-3
392.486572E-3,236.105347E-3
392.311478E-3,235.955429E-3
392.395592E-3,236.518478E-3
392.334366E-3,236.489868E-3
392.284584E-3,236.629486E-3
392.593575E-3,236.750221E-3
392.219353E-3,236.529922E-3
392.618752E-3,237.071228E-3
392.367554E-3,236.915016E-3
392.640495E-3,237.356758E-3
392.462540E-3,237.272644E-3
392.319489E-3,236.907578E-3
392.878532E-3,237.228584E-3
392.940903E-3,237.353897E-3
392.860222E-3,237.695503E-3
392.808151E-3,237.664604E-3
392.794991E-3,237.432861E-3
392.970085E-3,237.504387E-3
392.593002E-3,237.395668E-3
392.824173E-3,237.533569E-3
393.014717E-3,238.146400E-3
392.971802E-3,238.105774E-3
393.128014E-3,238.609314E-3
392.892838E-3,238.338089E-3
393.261337E-3,238.871384E-3
393.433571E-3,239.222145E-3
393.203545E-3,239.099121E-3
393.718529E-3,239.541435E-3
393.567467E-3,239.400673E-3
393.585205E-3,239.620972E-3
393.534279E-3,239.845848E-3
393.410683E-3,239.891052E-3
393.937683E-3,240.690422E-3
393.816376E-3,240.724182E-3
393.730545E-3,240.884972E-3
393.949699E-3,241.179085E-3
394.034958E-3,241.260910E-3
393.973732E-3,241.676903E-3
393.822670E-3,241.760445E-3
393.910217E-3,241.751862E-3
394.028091E-3,242.099762E-3
393.796349E-3,241.722679E-3
393.505096E-3,240.805435E-3
392.514610E-3,238.997841E-3
391.243744E-3,236.174583E-3
390.082169E-3,233.310699E-3
387.899208E-3,229.067802E-3
386.440659E-3,225.739288E-3
384.837914E-3,222.355843E-3
383.781624E-3,220.107651E-3
383.712959E-3,219.338036E-3
383.173943E-3,218.207932E-3
383.559608E-3,218.396187E-3
384.043694E-3,218.888283E-3
384.811020E-3,219.951439E-3
385.648727E-3,221.297264E-3
386.255836E-3,222.375870E-3
387.372208E-3,224.181747E-3
387.713242E-3,225.008583E-3
388.362122E-3,225.986481E-3
388.649940E-3,226.773262E-3
388.746071E-3,226.635933E-3
389.623833E-3,227.264214E-3
389.642715E-3,227.164078E-3
389.557457E-3,227.308846E-3
389.167786E-3,226.821327E-3
388.968086E-3,226.504898E-3
389.196396E-3,226.278305E-3
388.940048E-3,226.268578E-3
389.083099E-3,226.326370E-3
389.412689E-3,226.974106E-3
389.787483E-3,227.414703E-3
389.981461E-3,228.063011E-3
389.919662E-3,228.679848E-3
390.071297E-3,228.931046E-3
390.573692E-3,229.465485E-3
390.526772E-3,229.031754E-3
390.585136E-3,229.300117E-3
390.344238E-3,228.960228E-3
390.373421E-3,228.992271E-3
390.090752E-3,228.578568E-3
389.850998E-3,228.106499E-3
390.276146E-3,228.525352E-3
390.224075E-3,228.281021E-3
390.346527E-3,228.428078E-3
390.530205E-3,228.795433E-3
390.366554E-3,228.995132E-3
390.693855E-3,229.567337E-3
390.723610E-3,229.957581E-3
391.144753E-3,230.405617E-3
391.612816E-3,231.425858E-3
391.701508E-3,231.757736E-3
391.930962E-3,232.185173E-3
392.024803E-3,232.722473E-3
392.163277E-3,233.190536E-3
392.617035E-3,233.607101E-3
392.562103E-3,233.813095E-3
393.085098E-3,234.639931E-3
393.085098E-3,234.769249E-3
393.153763E-3,235.043335E-3
393.071365E-3,235.178947E-3
393.128586E-3,235.048485E-3
393.850136E-3,235.847282E-3
393.787766E-3,235.670471E-3
393.713379E-3,235.867882E-3
393.694496E-3,236.137390E-3
393.568611E-3,235.902214E-3
393.873596E-3,236.297035E-3
393.933678E-3,236.148834E-3
393.735695E-3,236.572838E-3
394.144249E-3,236.520195E-3
393.707085E-3,236.552238E-3
393.912506E-3,236.698723E-3
393.794632E-3,236.643219E-3
393.936539E-3,236.567116E-3
394.204903E-3,236.898422E-3
394.029236E-3,236.787987E-3
394.115067E-3,237.023735E-3
394.192886E-3,236.936760E-3
394.075012E-3,237.233734E-3
394.485855E-3,237.700081E-3
394.128799E-3,237.775612E-3
394.215775E-3,237.735558E-3
394.264984E-3,237.791634E-3
394.378281E-3,237.970734E-3
394.831467E-3,238.584709E-3
394.566536E-3,238.390732E-3
394.743347E-3,238.553238E-3
394.616890E-3,238.570404E-3
394.820595E-3,238.744354E-3
395.179939E-3,239.239883E-3
394.973373E-3,239.145470E-3
395.049477E-3,239.845848E-3
395.011139E-3,239.810371E-3
395.182800E-3,239.876747E-3
395.465469E-3,240.515327E-3
395.297241E-3,240.459824E-3
395.469475E-3,241.308975E-3
395.506096E-3,241.318130E-3
395.660591E-3,241.842270E-3
396.022797E-3,242.061424E-3
395.685768E-3,241.778755E-3
396.212196E-3,242.252541E-3
395.953560E-3,241.955566E-3
395.724678E-3,241.340446E-3
395.036316E-3,239.975166E-3
393.446732E-3,237.223434E-3
392.384720E-3,234.389305E-3
390.575409E-3,230.525208E-3
388.920593E-3,227.210999E-3
387.553024E-3,224.395752E-3
386.312485E-3,221.987915E-3
385.664749E-3,220.589447E-3
385.216141E-3,219.985199E-3
385.503960E-3,219.973755E-3
386.536789E-3,220.850372E-3
387.126160E-3,221.468925E-3
387.920380E-3,223.288536E-3
388.583565E-3,224.432945E-3
389.114571E-3,225.343323E-3
390.069580E-3,227.217293E-3
390.356255E-3,227.655602E-3
391.129875E-3,228.722191E-3
390.788841E-3,229.003716E-3
390.904427E-3,229.174232E-3
391.209984E-3,229.491234E-3
391.005135E-3,229.210281E-3
390.996552E-3,229.422569E-3
391.074944E-3,228.688431E-3
390.790558E-3,228.635216E-3
391.055489E-3,228.949928E-3
391.029739E-3,229.042625E-3
391.572762E-3,230.220222E-3
391.806793E-3,230.463409E-3
391.914368E-3,230.992699E-3
391.808510E-3,231.203842E-3
391.662025E-3,230.897713E-3
391.888046E-3,230.982399E-3
391.346741E-3,230.392456E-3
391.045189E-3,230.039978E-3
