Notes :


2023-11-23 ¿ÀÈÄ 10:33:38
Volts
Ch : LED 2,Ch : LED 3,
419.981003E-3,282.862473E-3
418.187141E-3,278.905106E-3
417.210388E-3,275.543976E-3
415.938377E-3,271.917915E-3
414.752197E-3,268.945312E-3
414.301872E-3,266.816711E-3
413.749123E-3,265.159607E-3
413.734245E-3,264.873505E-3
413.754272E-3,265.078926E-3
414.333916E-3,265.687180E-3
415.165329E-3,267.138290E-3
415.597916E-3,268.160820E-3
416.431618E-3,269.716644E-3
416.718292E-3,270.773506E-3
417.471886E-3,271.806908E-3
418.050957E-3,272.622299E-3
418.073273E-3,272.938156E-3
418.531609E-3,273.680878E-3
418.374252E-3,273.676300E-3
417.957115E-3,273.548698E-3
417.801476E-3,273.443985E-3
417.641830E-3,273.185349E-3
417.882729E-3,273.166466E-3
417.841530E-3,273.157883E-3
417.954826E-3,273.706627E-3
418.244934E-3,274.211884E-3
418.366814E-3,275.053596E-3
418.884087E-3,276.361084E-3
419.200516E-3,277.000809E-3
419.023705E-3,277.330399E-3
419.040298E-3,277.306938E-3
418.512726E-3,276.765060E-3
418.518448E-3,276.258659E-3
418.260956E-3,275.916481E-3
417.691040E-3,275.770569E-3
418.068695E-3,275.390053E-3
417.946243E-3,274.831581E-3
418.195724E-3,275.192642E-3
418.065834E-3,275.079346E-3
418.134499E-3,275.285912E-3
418.284988E-3,275.492477E-3
418.030357E-3,275.608063E-3
418.264389E-3,276.232338E-3
418.353081E-3,276.785088E-3
418.665504E-3,276.910400E-3
419.103241E-3,278.002739E-3
419.240570E-3,278.370667E-3
419.341278E-3,279.275322E-3
419.432831E-3,279.734802E-3
419.617653E-3,280.096436E-3
419.897461E-3,280.561638E-3
419.855118E-3,280.808830E-3
419.914055E-3,281.296921E-3
419.807625E-3,281.760979E-3
420.112610E-3,281.726074E-3
420.339203E-3,282.485390E-3
420.145798E-3,282.366943E-3
420.463943E-3,283.086205E-3
420.366096E-3,283.173752E-3
420.169258E-3,283.602333E-3
420.410728E-3,283.802605E-3
420.243645E-3,283.695602E-3
420.133209E-3,283.625221E-3
419.943810E-3,283.794022E-3
419.782448E-3,284.291840E-3
420.247650E-3,284.473801E-3
420.136642E-3,284.225464E-3
420.560074E-3,284.750175E-3
420.211029E-3,284.516144E-3
420.077133E-3,284.739876E-3
420.232201E-3,284.888077E-3
419.874573E-3,284.455490E-3
420.025063E-3,284.551620E-3
420.145798E-3,284.708405E-3
420.039940E-3,284.478378E-3
420.273399E-3,284.931564E-3
420.014191E-3,284.606552E-3
420.138931E-3,285.103798E-3
420.146370E-3,285.185051E-3
420.259666E-3,285.733223E-3
420.556068E-3,286.235046E-3
420.166969E-3,286.165237E-3
420.743179E-3,286.941147E-3
420.798111E-3,287.206078E-3
421.289635E-3,287.037277E-3
421.356583E-3,287.699890E-3
420.838165E-3,287.904167E-3
420.819283E-3,288.135910E-3
420.712852E-3,287.988853E-3
420.583534E-3,287.350273E-3
420.596695E-3,286.676788E-3
419.276619E-3,284.180832E-3
418.266678E-3,281.550980E-3
416.664505E-3,277.483177E-3
414.979935E-3,273.447418E-3
413.888168E-3,270.055962E-3
412.633896E-3,266.588974E-3
411.823654E-3,264.808273E-3
411.376762E-3,263.135147E-3
410.928154E-3,262.654495E-3
411.469460E-3,263.040733E-3
411.557007E-3,263.304520E-3
412.419891E-3,264.919281E-3
412.847900E-3,265.751839E-3
413.576889E-3,266.797829E-3
414.295578E-3,268.085289E-3
414.314461E-3,268.741035E-3
414.967346E-3,269.585609E-3
415.195656E-3,269.822502E-3
415.000534E-3,270.293999E-3
415.508080E-3,270.510292E-3
415.232277E-3,270.070267E-3
415.750694E-3,270.314598E-3
415.449715E-3,269.863701E-3
415.378761E-3,269.807053E-3
415.532112E-3,269.878006E-3
415.135002E-3,269.592476E-3
415.482903E-3,270.151520E-3
415.809059E-3,270.979500E-3
416.135788E-3,271.650696E-3
416.541481E-3,273.219109E-3
416.619301E-3,273.687744E-3
417.194366E-3,274.683952E-3
416.974068E-3,274.527740E-3
416.992378E-3,274.909973E-3
417.005539E-3,274.592400E-3
416.527176E-3,273.730087E-3
416.970634E-3,273.878288E-3
416.807556E-3,273.557854E-3
416.556358E-3,273.571014E-3
416.512871E-3,273.645973E-3
416.281700E-3,273.294067E-3
416.341209E-3,273.259163E-3
416.361237E-3,273.624802E-3
416.322899E-3,274.267387E-3
416.924286E-3,274.848747E-3
416.855621E-3,275.046730E-3
417.624664E-3,276.128197E-3
417.980003E-3,276.666641E-3
418.191147E-3,277.622795E-3
418.351364E-3,277.911186E-3
418.329048E-3,277.911186E-3
418.517303E-3,278.430748E-3
418.545341E-3,278.766060E-3
418.248940E-3,279.387474E-3
418.934441E-3,280.230904E-3
418.895531E-3,280.265808E-3
419.264603E-3,280.773354E-3
419.197655E-3,280.954170E-3
419.472885E-3,280.991936E-3
419.685745E-3,281.665993E-3
419.263458E-3,281.560707E-3
419.729233E-3,282.307434E-3
419.475746E-3,282.553482E-3
419.517517E-3,282.964897E-3
419.840813E-3,282.994652E-3
419.635391E-3,282.811546E-3
419.855690E-3,282.881355E-3
419.750977E-3,283.093071E-3
419.781876E-3,283.352280E-3
419.971848E-3,283.580017E-3
419.539833E-3,283.378029E-3
420.017624E-3,283.824921E-3
419.872284E-3,283.811188E-3
420.141220E-3,283.696747E-3
420.185280E-3,283.965111E-3
419.794464E-3,283.934212E-3
419.687462E-3,283.649826E-3
419.800186E-3,283.565712E-3
419.707489E-3,283.891296E-3
420.088005E-3,284.330177E-3
419.911766E-3,284.298134E-3
420.125198E-3,284.735870E-3
419.992447E-3,284.804535E-3
420.490837E-3,284.923553E-3
420.808983E-3,285.545540E-3
420.359230E-3,285.561562E-3
420.980644E-3,286.449051E-3
420.972633E-3,286.807823E-3
421.060181E-3,287.315941E-3
421.213531E-3,287.660980E-3
420.897102E-3,287.746239E-3
420.776939E-3,287.612343E-3
420.888519E-3,287.778854E-3
420.577812E-3,287.673569E-3
420.770645E-3,287.433815E-3
419.951820E-3,285.630226E-3
419.144440E-3,283.432388E-3
417.412949E-3,279.724503E-3
415.837669E-3,275.834656E-3
414.332771E-3,271.799469E-3
412.597847E-3,267.927933E-3
411.979866E-3,265.240288E-3
411.289787E-3,263.073921E-3
410.700989E-3,262.004471E-3
411.003113E-3,261.746407E-3
410.839462E-3,261.512375E-3
411.286926E-3,262.110901E-3
411.896324E-3,262.974358E-3
412.501144E-3,264.393997E-3
413.571739E-3,265.696335E-3
413.781738E-3,266.419601E-3
414.705849E-3,267.723656E-3
415.039444E-3,268.557930E-3
415.175056E-3,268.733025E-3
415.399933E-3,268.774796E-3
415.129852E-3,268.621445E-3
414.846039E-3,268.401146E-3
414.933014E-3,268.378258E-3
414.834595E-3,268.052101E-3
415.077209E-3,268.187714E-3
414.830589E-3,267.996025E-3
415.423393E-3,268.938446E-3
415.733528E-3,269.304657E-3
415.699196E-3,269.781303E-3
416.183853E-3,271.025276E-3
416.210175E-3,271.711922E-3
416.895103E-3,272.539330E-3
417.138863E-3,272.919273E-3
417.164040E-3,273.365593E-3
417.236710E-3,273.355865E-3
416.804695E-3,272.904396E-3
416.462517E-3,272.469521E-3
416.591263E-3,271.986008E-3
416.253090E-3,271.765709E-3
416.363525E-3,272.174835E-3
416.194153E-3,271.845818E-3
416.743469E-3,272.304726E-3
416.754913E-3,272.414589E-3
416.788673E-3,272.532463E-3
416.831589E-3,273.255730E-3
416.790390E-3,273.367882E-3
416.989517E-3,273.851967E-3
417.311668E-3,274.551773E-3
417.395782E-3,274.794388E-3
417.879868E-3,275.725365E-3
417.851830E-3,275.987434E-3
418.367386E-3,276.976204E-3
418.564224E-3,277.055740E-3
418.555069E-3,277.641106E-3
418.893242E-3,278.221893E-3
418.702126E-3,278.233337E-3
419.183350E-3,279.174042E-3
419.292641E-3,279.503059E-3
419.230843E-3,279.578018E-3
419.470024E-3,280.138779E-3
419.286346E-3,280.246925E-3
419.556999E-3,280.506134E-3
419.553566E-3,280.825996E-3
419.337845E-3,280.777931E-3
419.955826E-3,281.348419E-3
419.793892E-3,281.052017E-3
420.465660E-3,281.959534E-3
420.509148E-3,282.217598E-3
420.524025E-3,282.265663E-3
420.415878E-3,282.282829E-3
420.311737E-3,282.109451E-3
420.178413E-3,282.136917E-3
420.110321E-3,282.321167E-3
419.904327E-3,282.323456E-3
420.257378E-3,282.631874E-3
420.109177E-3,282.445335E-3
420.652199E-3,283.154869E-3
420.664215E-3,283.429527E-3
420.450783E-3,282.880211E-3
420.812988E-3,283.226395E-3
420.620155E-3,283.215523E-3
420.699692E-3,283.446121E-3
420.611572E-3,283.408928E-3
420.842743E-3,283.893013E-3
421.065903E-3,284.332466E-3
420.920563E-3,284.449196E-3
421.254730E-3,284.783936E-3
421.127129E-3,285.243988E-3
420.592690E-3,285.393333E-3
421.182060E-3,285.913467E-3
421.002960E-3,285.931206E-3
421.738243E-3,286.724854E-3
421.682167E-3,287.095070E-3
421.667862E-3,287.093353E-3
421.699905E-3,287.137413E-3
421.333694E-3,287.013245E-3
420.905113E-3,286.569214E-3
420.346642E-3,284.961891E-3
419.229126E-3,282.450485E-3
418.160820E-3,279.517365E-3
416.428185E-3,275.617790E-3
415.242577E-3,272.269249E-3
413.825798E-3,268.659782E-3
412.395287E-3,265.223694E-3
412.129784E-3,263.313103E-3
411.840248E-3,261.721230E-3
411.498070E-3,261.278343E-3
411.343002E-3,261.685753E-3
411.808777E-3,262.009048E-3
412.731171E-3,263.508224E-3
412.946892E-3,265.164185E-3
414.493561E-3,266.774940E-3
415.078354E-3,267.719650E-3
415.619659E-3,268.632317E-3
415.874863E-3,269.512367E-3
415.760994E-3,269.767570E-3
415.845680E-3,270.112610E-3
415.901756E-3,270.135498E-3
415.750694E-3,270.082283E-3
415.943527E-3,270.183563E-3
415.659714E-3,269.716644E-3
415.879440E-3,270.059395E-3
415.928078E-3,270.341492E-3
415.789032E-3,270.530891E-3
416.327477E-3,271.326256E-3
416.326332E-3,272.258377E-3
416.591835E-3,273.092079E-3
416.743469E-3,273.482323E-3
416.717148E-3,274.205589E-3
417.019844E-3,274.317741E-3
416.754341E-3,273.374748E-3
416.932297E-3,273.679161E-3
416.893959E-3,273.288918E-3
416.083145E-3,272.328758E-3
416.089439E-3,272.056961E-3
415.563583E-3,271.619225E-3
415.918922E-3,271.803474E-3
415.757561E-3,271.837807E-3
415.861130E-3,271.904755E-3
416.097450E-3,272.565079E-3
416.134071E-3,272.806549E-3
416.591835E-3,273.857689E-3
416.924286E-3,274.269104E-3
416.813278E-3,274.529457E-3
417.375183E-3,275.274467E-3
417.303658E-3,275.840378E-3
417.664146E-3,276.541901E-3
417.766571E-3,276.763344E-3
417.935944E-3,277.263451E-3
418.053818E-3,277.968979E-3
417.864418E-3,278.004456E-3
418.084145E-3,278.572655E-3
418.144226E-3,278.939438E-3
417.982292E-3,278.921127E-3
418.338776E-3,279.600334E-3
418.140793E-3,279.874420E-3
418.699265E-3,280.630875E-3
418.909264E-3,280.783653E-3
418.527031E-3,280.666351E-3
418.795395E-3,281.206512E-3
418.777657E-3,281.367874E-3
418.644905E-3,281.428528E-3
418.772507E-3,281.376457E-3
418.917847E-3,281.514931E-3
418.899536E-3,281.973839E-3
418.601990E-3,281.546402E-3
419.175911E-3,282.455063E-3
419.171906E-3,282.717133E-3
418.891525E-3,282.310295E-3
419.080925E-3,282.535172E-3
418.879509E-3,282.523155E-3
418.774796E-3,282.348633E-3
418.899536E-3,282.392120E-3
418.928719E-3,282.360649E-3
419.130135E-3,282.707977E-3
418.777657E-3,282.560921E-3
419.363594E-3,283.301926E-3
419.452286E-3,283.435249E-3
419.277763E-3,283.145142E-3
419.401932E-3,283.743668E-3
419.443130E-3,284.056664E-3
419.532394E-3,284.652328E-3
419.594765E-3,284.828568E-3
419.997597E-3,285.091209E-3
420.069695E-3,285.799026E-3
419.448280E-3,285.911179E-3
420.078278E-3,286.542320E-3
420.299721E-3,286.971474E-3
420.168114E-3,286.930275E-3
420.093155E-3,286.609840E-3
419.309807E-3,285.209084E-3
418.513870E-3,283.213806E-3
417.044449E-3,279.847527E-3
415.937233E-3,276.457787E-3
414.224625E-3,272.552490E-3
412.031364E-3,268.194580E-3
410.770226E-3,264.839745E-3
410.085297E-3,262.138367E-3
409.164619E-3,259.844971E-3
409.125710E-3,259.442139E-3
409.287643E-3,259.614944E-3
409.749985E-3,260.258675E-3
410.160828E-3,261.153030E-3
410.507011E-3,262.107468E-3
411.479759E-3,263.478470E-3
411.904335E-3,264.410019E-3
412.509155E-3,265.475464E-3
412.922287E-3,266.296577E-3
413.191795E-3,266.959190E-3
413.525391E-3,267.722511E-3
413.452148E-3,267.323112E-3
413.656998E-3,267.793465E-3
413.634109E-3,267.815208E-3
413.219833E-3,267.543983E-3
413.519669E-3,267.625237E-3
413.269043E-3,267.364883E-3
413.275909E-3,267.443275E-3
413.524246E-3,267.844391E-3
414.078140E-3,268.414879E-3
414.617729E-3,269.768715E-3
414.408875E-3,270.552635E-3
414.851761E-3,271.588326E-3
415.205383E-3,272.226334E-3
414.865494E-3,272.518730E-3
415.274620E-3,272.556496E-3
415.095520E-3,272.319603E-3
415.363312E-3,272.245216E-3
414.963341E-3,271.687317E-3
414.783096E-3,270.990944E-3
414.623451E-3,270.939445E-3
414.336777E-3,270.480537E-3
414.217758E-3,270.669365E-3
414.593124E-3,270.726013E-3
414.765930E-3,271.031570E-3
415.070915E-3,271.782303E-3
415.059471E-3,272.220612E-3
415.842247E-3,273.310661E-3
415.985870E-3,274.044800E-3
415.958405E-3,274.093437E-3
416.251945E-3,274.877930E-3
416.369247E-3,275.359154E-3
416.587257E-3,275.854683E-3
416.757202E-3,276.247215E-3
417.240143E-3,277.177048E-3
417.209816E-3,277.727509E-3
417.042732E-3,277.827072E-3
417.376900E-3,278.347206E-3
417.457581E-3,278.904533E-3
417.513084E-3,279.194069E-3
417.889595E-3,279.689026E-3
417.698479E-3,280.017471E-3
418.351936E-3,280.527306E-3
418.286133E-3,280.860901E-3
417.868423E-3,280.743027E-3
418.161392E-3,281.042862E-3
417.984009E-3,280.830002E-3
418.171120E-3,281.228256E-3
418.239784E-3,281.342697E-3
417.934799E-3,281.266594E-3
418.313599E-3,281.853104E-3
418.259811E-3,281.811333E-3
418.743896E-3,282.336044E-3
418.651199E-3,282.287407E-3
418.440056E-3,282.073402E-3
418.664360E-3,282.264519E-3
418.401718E-3,282.331467E-3
418.376541E-3,282.207298E-3
418.309021E-3,282.269669E-3
418.380547E-3,282.748032E-3
418.735886E-3,283.062744E-3
418.460083E-3,283.162880E-3
418.989944E-3,283.583450E-3
419.186783E-3,283.399200E-3
419.016266E-3,283.508492E-3
418.987656E-3,283.811188E-3
419.060326E-3,283.897018E-3
419.027138E-3,284.256935E-3
419.172478E-3,284.486961E-3
419.297218E-3,284.471512E-3
419.481468E-3,285.113525E-3
419.341278E-3,284.944153E-3
419.713783E-3,285.716629E-3
419.918060E-3,286.421013E-3
420.009041E-3,286.646461E-3
420.084000E-3,287.027550E-3
419.944382E-3,287.426949E-3
420.418739E-3,288.077545E-3
420.332336E-3,288.222885E-3
419.943237E-3,287.580299E-3
419.573021E-3,286.735153E-3
418.682098E-3,284.310722E-3
417.085648E-3,281.104088E-3
415.450859E-3,277.170753E-3
413.664436E-3,273.021698E-3
412.144089E-3,268.945312E-3
410.503006E-3,264.953041E-3
409.731674E-3,262.243080E-3
409.123993E-3,259.952545E-3
408.126068E-3,258.189583E-3
408.373833E-3,258.208466E-3
408.525467E-3,258.290863E-3
408.929443E-3,259.343147E-3
409.318542E-3,260.321045E-3
410.206032E-3,261.914062E-3
411.084938E-3,263.336563E-3
411.308098E-3,264.052963E-3
412.023354E-3,265.116119E-3
412.272263E-3,265.811348E-3
412.362099E-3,266.373253E-3
412.543488E-3,266.680527E-3
412.304306E-3,266.668510E-3
412.540627E-3,266.480827E-3
412.177849E-3,266.362953E-3
412.300301E-3,265.787888E-3
412.227631E-3,265.825081E-3
411.788177E-3,265.565872E-3
412.146950E-3,265.991592E-3
412.454224E-3,266.784668E-3
412.665939E-3,267.314529E-3
413.338280E-3,268.647766E-3
413.607216E-3,269.543839E-3
414.240074E-3,270.565796E-3
414.537048E-3,271.017838E-3
414.286423E-3,271.102524E-3
414.324188E-3,271.297073E-3
413.911057E-3,270.596123E-3
413.709068E-3,270.064545E-3
413.718796E-3,269.800758E-3
413.446999E-3,269.763565E-3
413.729095E-3,269.833946E-3
413.428116E-3,269.432831E-3
413.767433E-3,269.978142E-3
413.866997E-3,270.277405E-3
413.567734E-3,270.383835E-3
414.041519E-3,270.970917E-3
414.293289E-3,271.498489E-3
414.344215E-3,271.911621E-3
414.523315E-3,272.436333E-3
414.638901E-3,272.772789E-3
415.102386E-3,273.570442E-3
415.023422E-3,273.763275E-3
415.295219E-3,274.500275E-3
415.504646E-3,275.181198E-3
415.456581E-3,275.248718E-3
415.857124E-3,276.215172E-3
416.021347E-3,276.631737E-3
416.537476E-3,277.325249E-3
416.757202E-3,277.546692E-3
416.562080E-3,277.693176E-3
416.792679E-3,278.207016E-3
416.607285E-3,277.959251E-3
416.614151E-3,278.373528E-3
416.751480E-3,278.664207E-3
416.558647E-3,278.984070E-3
416.905403E-3,279.428101E-3
416.909981E-3,279.626083E-3
417.102814E-3,280.256081E-3
417.325974E-3,280.234337E-3
417.256737E-3,280.198288E-3
417.187500E-3,280.491257E-3
417.001534E-3,280.302429E-3
417.057610E-3,280.212593E-3
417.094231E-3,280.378532E-3
417.321396E-3,280.685806E-3
417.447853E-3,280.915833E-3
417.122841E-3,280.524445E-3
417.193794E-3,280.767059E-3
417.212105E-3,280.958176E-3
417.212677E-3,281.264877E-3
417.465019E-3,281.514359E-3
417.441559E-3,281.549835E-3
417.584610E-3,281.911469E-3
417.642975E-3,281.926918E-3
417.317390E-3,281.940651E-3
417.587471E-3,282.255363E-3
417.218971E-3,282.114601E-3
417.480469E-3,282.471085E-3
417.743111E-3,282.693100E-3
417.550850E-3,283.046722E-3
417.950249E-3,283.622360E-3
417.992020E-3,283.739090E-3
418.264389E-3,284.523010E-3
417.996025E-3,284.453201E-3
418.101311E-3,284.824562E-3
418.442345E-3,285.400772E-3
418.327904E-3,285.283470E-3
418.040657E-3,285.468864E-3
418.167686E-3,285.747528E-3
417.993736E-3,285.691452E-3
417.957687E-3,285.694313E-3
417.601204E-3,284.618568E-3
417.055893E-3,283.325386E-3
415.941238E-3,280.090141E-3
413.976860E-3,275.860977E-3
412.407875E-3,272.009468E-3
410.712433E-3,267.789459E-3
409.557724E-3,264.268112E-3
408.645630E-3,261.353874E-3
407.948112E-3,259.264183E-3
407.719803E-3,258.496284E-3
407.200241E-3,257.664299E-3
407.401085E-3,258.155823E-3
407.902908E-3,259.158325E-3
408.714294E-3,260.337639E-3
409.569168E-3,262.316322E-3
410.191154E-3,263.412666E-3
411.078072E-3,264.922142E-3
411.711502E-3,266.257668E-3
411.603355E-3,266.695404E-3
412.014198E-3,267.341423E-3
411.868858E-3,267.418098E-3
412.009048E-3,267.621803E-3
411.720085E-3,267.415237E-3
411.528397E-3,267.087936E-3
411.660004E-3,267.425537E-3
411.678886E-3,266.957474E-3
411.904907E-3,267.432976E-3
412.099457E-3,267.896461E-3
412.205887E-3,268.761063E-3
412.798119E-3,269.986725E-3
412.970924E-3,270.706558E-3
413.580322E-3,271.779442E-3
413.730240E-3,271.650696E-3
413.362885E-3,271.670151E-3
413.327980E-3,271.567154E-3
412.879944E-3,270.613861E-3
412.582970E-3,270.162392E-3
412.347794E-3,269.570160E-3
412.382126E-3,269.416237E-3
412.209320E-3,269.159889E-3
411.739540E-3,268.767357E-3
412.322044E-3,269.396782E-3
412.262535E-3,269.433975E-3
412.100029E-3,269.445419E-3
412.369537E-3,270.133781E-3
412.367249E-3,270.532608E-3
412.403297E-3,271.061325E-3
412.712860E-3,271.904182E-3
413.223839E-3,272.511864E-3
413.459587E-3,273.350716E-3
413.124275E-3,273.582458E-3
414.039230E-3,274.510574E-3
414.127922E-3,275.017548E-3
413.711357E-3,275.158882E-3
414.078712E-3,275.826073E-3
413.805199E-3,275.969124E-3
413.996315E-3,276.339912E-3
414.142227E-3,276.672363E-3
414.287567E-3,276.931000E-3
414.487267E-3,277.688599E-3
414.209175E-3,277.482605E-3
414.254951E-3,277.868271E-3
414.385986E-3,278.210449E-3
414.354515E-3,278.426170E-3
414.575958E-3,279.117966E-3
414.574242E-3,279.280472E-3
414.968491E-3,279.544830E-3
414.832306E-3,279.604912E-3
414.640617E-3,279.251289E-3
414.889526E-3,279.623795E-3
414.347649E-3,279.258156E-3
414.773369E-3,279.590607E-3
414.904404E-3,279.887581E-3
415.007973E-3,279.907608E-3
415.251732E-3,280.306435E-3
415.243149E-3,280.310440E-3
415.468025E-3,280.767059E-3
415.325546E-3,280.542755E-3
415.026283E-3,280.538177E-3
415.277481E-3,280.831718E-3
415.049171E-3,280.513573E-3
415.247154E-3,281.088638E-3
415.383339E-3,281.101799E-3
415.323257E-3,281.147003E-3
415.702629E-3,281.862259E-3
415.866280E-3,282.088852E-3
416.271973E-3,282.646179E-3
416.209602E-3,283.057022E-3
415.799904E-3,283.063316E-3
416.201019E-3,283.541679E-3
416.003609E-3,283.583450E-3
415.942955E-3,284.050369E-3
416.163826E-3,284.556198E-3
416.279411E-3,284.793663E-3
416.568375E-3,285.147858E-3
416.230202E-3,284.959602E-3
416.168404E-3,284.872627E-3
415.947533E-3,283.854675E-3
415.009117E-3,281.508636E-3
413.540268E-3,278.362656E-3
411.718941E-3,274.090576E-3
410.012627E-3,269.822502E-3
408.159256E-3,265.514374E-3
406.475830E-3,261.428261E-3
405.621529E-3,258.913994E-3
404.616165E-3,256.657219E-3
404.594994E-3,255.568886E-3
404.623032E-3,255.764008E-3
404.823875E-3,256.331635E-3
405.484200E-3,257.445717E-3
406.141090E-3,258.459663E-3
406.859779E-3,259.893608E-3
407.531548E-3,261.043739E-3
408.279419E-3,262.392998E-3
408.756065E-3,263.531685E-3
408.651352E-3,263.717651E-3
408.999825E-3,264.318466E-3
408.900833E-3,264.640617E-3
408.847618E-3,264.421463E-3
409.112549E-3,264.666367E-3
408.890533E-3,264.085579E-3
409.257889E-3,264.167404E-3
408.923721E-3,264.163971E-3
408.950043E-3,264.118195E-3
409.270477E-3,264.790535E-3
409.354019E-3,265.350723E-3
410.245514E-3,266.641617E-3
410.674095E-3,267.412949E-3
410.714722E-3,268.292427E-3
410.927010E-3,268.991089E-3
410.825729E-3,269.022560E-3
410.976791E-3,269.244576E-3
410.882950E-3,269.054031E-3
410.412025E-3,268.475533E-3
410.586548E-3,268.285561E-3
409.988022E-3,267.410088E-3
409.935951E-3,267.051888E-3
410.110474E-3,267.038727E-3
409.831238E-3,266.860771E-3
410.232353E-3,267.442131E-3
409.963417E-3,267.370033E-3
410.344505E-3,268.207169E-3
410.638618E-3,268.769646E-3
410.861778E-3,269.240570E-3
411.309242E-3,270.220184E-3
411.324120E-3,270.510864E-3
411.515808E-3,271.293068E-3
411.588478E-3,271.869850E-3
411.595345E-3,272.001457E-3
412.109756E-3,272.900391E-3
412.214470E-3,273.304939E-3
412.825012E-3,274.098587E-3
412.823296E-3,274.699974E-3
412.951469E-3,274.741173E-3
413.183784E-3,275.315666E-3
412.884521E-3,275.511360E-3
413.243294E-3,275.950241E-3
413.315392E-3,276.278114E-3
413.327408E-3,276.573944E-3
413.473892E-3,277.083206E-3
413.229561E-3,276.925850E-3
413.307953E-3,277.056885E-3
413.250732E-3,277.419090E-3
413.234138E-3,277.729797E-3
413.659859E-3,277.864838E-3
413.461876E-3,277.796173E-3
413.865280E-3,278.376389E-3
414.119339E-3,278.245926E-3
414.107895E-3,278.363800E-3
414.179420E-3,278.767776E-3
414.163971E-3,278.519440E-3
414.235497E-3,278.838730E-3
414.134789E-3,278.907394E-3
414.517593E-3,278.916550E-3
414.660072E-3,279.379463E-3
414.089584E-3,279.220390E-3
414.250946E-3,279.499054E-3
414.433479E-3,279.773712E-3
414.463806E-3,279.794884E-3
414.581108E-3,280.288124E-3
414.509583E-3,280.415154E-3
414.807701E-3,280.702400E-3
414.803123E-3,280.826569E-3
414.806557E-3,280.723000E-3
414.803123E-3,281.229973E-3
414.507866E-3,281.058311E-3
414.779663E-3,281.433105E-3
414.701843E-3,281.568146E-3
414.787102E-3,281.774712E-3
415.037155E-3,282.288551E-3
414.725876E-3,282.125473E-3
414.950752E-3,282.747459E-3
415.037727E-3,283.444977E-3
415.044594E-3,283.487320E-3
415.470314E-3,284.183121E-3
415.587616E-3,284.488678E-3
415.663147E-3,284.953880E-3
415.934944E-3,284.772491E-3
415.586472E-3,284.718704E-3
415.343857E-3,283.955956E-3
414.309883E-3,281.572151E-3
412.892532E-3,278.435326E-3
411.333847E-3,274.521446E-3
409.727097E-3,269.823074E-3
408.174133E-3,265.622520E-3
406.216049E-3,261.429977E-3
405.117416E-3,258.098030E-3
404.423332E-3,255.632401E-3
403.742409E-3,254.096603E-3
404.179573E-3,254.144096E-3
404.366112E-3,254.485130E-3
405.116844E-3,255.607224E-3
405.696487E-3,256.590843E-3
406.180000E-3,257.956696E-3
407.106400E-3,259.411812E-3
407.440567E-3,260.200882E-3
408.000183E-3,261.104965E-3
408.215332E-3,262.124634E-3
408.423042E-3,262.157822E-3
408.831024E-3,262.796974E-3
408.600998E-3,262.657928E-3
408.801270E-3,262.964630E-3
408.797264E-3,262.684822E-3
408.719444E-3,262.315178E-3
408.917427E-3,262.458801E-3
408.769798E-3,262.258530E-3
409.201241E-3,262.678528E-3
409.338570E-3,262.884521E-3
409.562302E-3,263.496780E-3
409.965706E-3,264.850044E-3
409.837532E-3,265.595627E-3
410.065842E-3,266.298294E-3
410.529900E-3,266.705132E-3
410.355949E-3,266.840172E-3
410.624886E-3,267.251015E-3
410.464096E-3,266.949463E-3
410.794258E-3,266.920280E-3
410.359383E-3,266.497993E-3
410.088730E-3,265.922356E-3
410.067558E-3,265.786743E-3
409.340286E-3,265.203667E-3
409.427834E-3,265.050888E-3
409.636688E-3,265.281487E-3
409.728813E-3,265.564156E-3
410.237503E-3,266.447067E-3
410.519028E-3,266.917419E-3
410.952759E-3,267.375755E-3
410.873795E-3,267.612076E-3
410.819435E-3,268.334198E-3
411.290932E-3,269.245148E-3
410.910416E-3,269.345856E-3
411.086655E-3,270.065689E-3
411.487770E-3,270.486832E-3
411.514664E-3,270.739174E-3
412.081146E-3,271.540260E-3
412.021065E-3,271.830368E-3
412.426186E-3,272.504997E-3
412.353516E-3,273.041153E-3
412.419891E-3,272.981071E-3
412.667656E-3,273.787880E-3
412.366104E-3,273.541260E-3
412.496567E-3,273.980141E-3
412.411308E-3,274.332047E-3
412.499428E-3,274.329185E-3
412.946892E-3,274.976921E-3
412.901688E-3,275.018120E-3
413.048744E-3,275.648689E-3
413.171768E-3,275.828362E-3
413.131714E-3,275.704193E-3
413.222122E-3,275.832939E-3
413.170624E-3,275.828934E-3
413.378334E-3,276.013756E-3
413.474464E-3,275.933647E-3
413.278198E-3,276.046371E-3
413.730240E-3,276.509285E-3
413.373756E-3,276.187134E-3
413.469315E-3,276.148224E-3
413.563728E-3,276.694107E-3
413.548851E-3,276.465797E-3
413.800621E-3,277.031708E-3
413.752556E-3,277.075195E-3
413.956833E-3,277.479744E-3
413.990593E-3,277.797318E-3
413.732529E-3,277.808189E-3
414.054680E-3,278.067970E-3
414.092445E-3,278.137779E-3
414.495850E-3,278.657341E-3
414.508438E-3,278.851318E-3
414.455223E-3,278.863907E-3
414.779091E-3,279.433250E-3
414.307594E-3,279.364014E-3
414.567947E-3,279.621506E-3
414.828300E-3,280.324173E-3
414.710426E-3,280.573082E-3
415.109825E-3,281.224823E-3
415.359879E-3,281.564713E-3
415.482330E-3,281.894875E-3
415.431404E-3,282.024193E-3
415.302086E-3,282.213020E-3
415.605927E-3,282.452202E-3
415.033150E-3,281.700897E-3
414.573669E-3,280.416870E-3
413.685036E-3,278.344917E-3
412.153244E-3,274.988365E-3
411.048889E-3,271.282196E-3
409.062195E-3,266.809845E-3
407.736969E-3,263.072205E-3
406.407166E-3,259.212685E-3
405.155182E-3,256.486130E-3
404.833031E-3,254.964066E-3
404.664230E-3,254.022217E-3
405.145454E-3,254.409027E-3
405.425835E-3,254.929161E-3
405.828094E-3,255.744553E-3
406.680679E-3,257.276344E-3
406.954765E-3,258.239937E-3
407.553291E-3,259.628105E-3
408.197594E-3,261.030006E-3
408.206177E-3,262.022209E-3
408.962631E-3,263.142014E-3
408.969498E-3,263.451004E-3
409.179497E-3,263.864136E-3
409.324265E-3,263.974571E-3
409.159470E-3,263.735390E-3
409.347725E-3,263.725090E-3
408.934593E-3,263.695335E-3
409.415245E-3,263.884163E-3
409.691620E-3,264.209175E-3
409.637260E-3,264.519882E-3
409.904480E-3,265.551567E-3
409.717369E-3,266.046524E-3
409.967995E-3,266.641617E-3
410.109901E-3,267.422104E-3
409.833527E-3,267.232132E-3
410.196877E-3,267.713356E-3
409.716225E-3,267.173195E-3
409.709930E-3,266.761780E-3
409.580612E-3,266.334343E-3
409.178925E-3,265.673447E-3
409.224701E-3,265.470886E-3
408.819008E-3,264.879799E-3
409.048462E-3,265.024567E-3
408.958626E-3,265.182495E-3
409.060478E-3,265.109825E-3
409.182930E-3,265.704918E-3
409.183502E-3,265.742683E-3
409.366035E-3,266.512871E-3
409.489632E-3,267.334557E-3
409.609222E-3,267.819214E-3
410.254669E-3,268.764496E-3
409.922791E-3,269.035721E-3
410.175705E-3,269.587326E-3
410.507584E-3,270.334625E-3
410.606575E-3,270.647621E-3
411.343002E-3,271.478462E-3
411.352730E-3,272.032928E-3
411.730385E-3,272.860909E-3
411.912918E-3,272.880936E-3
412.017059E-3,273.397636E-3
412.152672E-3,273.873711E-3
411.907768E-3,273.650551E-3
411.867142E-3,274.146652E-3
412.137222E-3,274.328613E-3
412.143517E-3,274.670219E-3
412.430763E-3,275.134850E-3
412.148094E-3,274.860191E-3
412.333488E-3,275.170326E-3
412.509155E-3,275.419235E-3
412.323761E-3,275.706482E-3
412.905693E-3,276.102448E-3
413.027573E-3,276.306152E-3
413.313103E-3,276.721001E-3
412.897110E-3,276.666069E-3
412.704849E-3,276.421738E-3
412.996674E-3,276.678658E-3
412.752342E-3,276.573372E-3
412.701416E-3,276.687813E-3
412.646484E-3,276.705551E-3
412.484550E-3,276.492119E-3
413.066483E-3,277.029991E-3
412.910271E-3,277.087212E-3
413.132286E-3,277.155304E-3
413.095093E-3,277.481461E-3
412.924004E-3,277.525520E-3
413.200378E-3,277.894020E-3
413.214111E-3,277.843094E-3
413.385773E-3,278.005028E-3
413.381767E-3,278.250504E-3
413.325119E-3,278.440475E-3
413.719368E-3,279.150581E-3
413.537407E-3,279.196930E-3
413.663292E-3,279.549408E-3
413.842392E-3,280.095291E-3
413.764572E-3,280.606842E-3
414.021492E-3,281.198502E-3
414.340210E-3,281.532669E-3
414.608002E-3,281.712341E-3
414.593124E-3,281.963539E-3
414.150238E-3,281.633377E-3
413.913345E-3,280.974197E-3
412.434196E-3,278.279114E-3
411.088943E-3,275.163460E-3
409.667587E-3,271.160889E-3
407.918930E-3,266.694832E-3
406.654930E-3,262.802124E-3
405.172348E-3,258.840179E-3
404.376411E-3,255.934525E-3
403.620529E-3,253.557587E-3
402.941322E-3,252.440071E-3
403.078651E-3,252.215767E-3
403.032875E-3,251.921082E-3
403.463745E-3,252.812576E-3
404.259109E-3,254.039383E-3
404.768372E-3,255.310822E-3
405.849838E-3,257.155037E-3
406.268692E-3,258.192444E-3
407.040024E-3,259.333420E-3
407.246017E-3,260.153961E-3
407.369614E-3,260.165977E-3
407.702637E-3,260.678673E-3
407.548714E-3,260.379982E-3
407.354164E-3,260.397148E-3
407.262611E-3,260.197449E-3
407.062340E-3,259.616089E-3
407.359886E-3,259.901047E-3
407.133293E-3,259.788322E-3
407.551575E-3,260.195732E-3
407.726097E-3,260.605431E-3
407.889748E-3,261.397362E-3
408.554077E-3,262.656212E-3
408.838463E-3,263.554573E-3
409.081078E-3,264.297867E-3
409.339142E-3,264.733315E-3
409.227562E-3,264.661789E-3
409.276199E-3,264.994240E-3
408.952904E-3,264.428329E-3
408.652496E-3,263.934517E-3
408.697128E-3,263.894463E-3
408.292580E-3,263.186073E-3
408.513451E-3,262.972641E-3
408.344650E-3,263.166046E-3
408.693123E-3,263.543701E-3
408.520889E-3,263.761711E-3
408.686829E-3,263.810921E-3
409.033585E-3,264.216042E-3
408.891678E-3,264.594269E-3
409.090233E-3,265.329552E-3
409.452438E-3,265.906334E-3
