Notes :


2023-11-26 ¿ÀÀü 12:19:46
Volts
Ch : LED 2,Ch : LED 3,
187.428474E-3,312.451744E-3
187.018776E-3,311.273003E-3
185.574532E-3,309.343529E-3
184.093666E-3,306.903648E-3
182.572174E-3,304.218864E-3
181.051826E-3,301.352692E-3
180.089951E-3,299.038124E-3
179.145241E-3,297.003365E-3
178.788757E-3,295.690155E-3
178.594780E-3,295.266724E-3
178.470039E-3,295.370865E-3
178.807068E-3,296.062088E-3
179.136086E-3,296.863747E-3
179.848480E-3,298.276520E-3
180.674744E-3,299.802589E-3
181.159401E-3,300.838852E-3
181.947327E-3,302.114868E-3
182.374763E-3,303.150558E-3
182.849693E-3,303.843498E-3
183.289719E-3,304.434013E-3
183.359528E-3,304.550171E-3
183.640480E-3,304.732132E-3
183.572388E-3,304.707527E-3
183.902550E-3,305.007935E-3
184.331703E-3,305.523491E-3
184.500504E-3,305.810165E-3
185.026932E-3,306.683350E-3
185.158539E-3,306.855011E-3
185.282135E-3,307.016373E-3
185.362244E-3,307.040405E-3
185.038948E-3,306.554031E-3
185.057259E-3,306.343460E-3
184.613800E-3,305.782127E-3
184.412956E-3,305.209923E-3
184.325981E-3,304.847145E-3
183.710861E-3,304.213715E-3
183.816147E-3,304.352760E-3
183.639336E-3,304.053497E-3
183.747482E-3,304.463768E-3
184.070778E-3,304.837990E-3
184.042168E-3,305.019379E-3
184.419250E-3,305.716896E-3
184.489059E-3,306.281090E-3
184.828949E-3,306.753159E-3
185.284424E-3,307.610893E-3
185.316467E-3,307.787132E-3
185.700989E-3,308.579636E-3
185.868645E-3,308.868599E-3
186.274338E-3,309.417915E-3
186.658859E-3,309.972954E-3
186.726379E-3,310.248756E-3
187.176132E-3,310.710526E-3
187.285995E-3,310.794640E-3
187.515450E-3,311.143112E-3
187.874222E-3,311.543083E-3
187.845039E-3,311.367416E-3
188.071060E-3,311.667824E-3
187.977791E-3,311.616898E-3
188.062477E-3,311.774254E-3
188.219833E-3,311.965942E-3
187.857056E-3,311.503601E-3
188.155174E-3,311.730194E-3
187.906837E-3,311.491013E-3
187.859917E-3,311.429787E-3
187.735176E-3,311.385727E-3
187.429619E-3,311.215782E-3
187.479401E-3,311.381721E-3
187.135506E-3,311.049271E-3
187.069130E-3,311.031532E-3
187.193871E-3,310.998344E-3
186.800194E-3,310.759163E-3
186.851692E-3,311.129379E-3
186.733818E-3,310.891342E-3
186.791611E-3,310.991478E-3
186.915207E-3,311.077309E-3
186.801338E-3,311.082458E-3
187.059402E-3,311.606598E-3
187.114906E-3,311.788559E-3
187.371254E-3,312.041473E-3
187.689972E-3,312.324715E-3
187.687111E-3,312.450600E-3
188.223839E-3,313.046837E-3
188.530540E-3,313.451958E-3
188.913345E-3,313.970375E-3
189.302444E-3,314.426994E-3
189.349365E-3,314.576340E-3
189.839172E-3,315.128517E-3
189.788818E-3,315.200043E-3
190.009117E-3,315.403175E-3
190.143585E-3,315.538216E-3
189.833450E-3,314.970589E-3
189.506149E-3,314.269638E-3
188.265038E-3,312.510109E-3
186.926651E-3,310.148621E-3
185.485840E-3,307.339096E-3
183.488846E-3,304.130173E-3
182.121849E-3,301.673126E-3
180.829811E-3,299.111938E-3
179.926872E-3,297.312927E-3
179.518890E-3,296.163368E-3
179.183578E-3,295.508194E-3
179.518318E-3,296.014023E-3
179.673386E-3,296.741295E-3
180.322838E-3,297.819901E-3
180.876732E-3,299.168587E-3
181.274986E-3,300.064087E-3
182.085228E-3,301.442528E-3
182.430840E-3,302.295685E-3
183.043671E-3,303.110504E-3
183.296013E-3,303.793144E-3
183.142090E-3,303.786278E-3
183.459663E-3,303.869820E-3
183.217621E-3,303.792572E-3
183.099747E-3,303.618622E-3
183.267975E-3,303.591156E-3
183.051682E-3,303.286171E-3
183.386993E-3,303.752518E-3
183.562660E-3,304.201126E-3
183.814430E-3,304.706955E-3
184.004974E-3,305.366707E-3
183.666801E-3,305.146408E-3
183.774948E-3,305.239105E-3
183.388138E-3,304.752159E-3
183.239937E-3,304.334450E-3
183.144379E-3,304.064369E-3
182.563591E-3,303.331375E-3
182.536697E-3,303.152275E-3
182.341576E-3,303.013229E-3
182.299232E-3,302.873611E-3
182.510948E-3,303.180313E-3
182.304382E-3,302.921104E-3
182.775879E-3,303.619766E-3
183.019638E-3,304.122162E-3
183.453941E-3,304.794502E-3
184.063911E-3,305.680847E-3
184.097672E-3,305.853653E-3
184.552002E-3,306.689072E-3
184.775734E-3,307.119942E-3
185.053825E-3,307.598877E-3
185.515594E-3,308.125877E-3
185.430336E-3,308.187675E-3
185.766220E-3,308.704948E-3
185.864639E-3,308.899498E-3
186.004829E-3,309.247398E-3
186.199379E-3,309.495163E-3
186.008835E-3,309.345245E-3
186.238861E-3,309.473991E-3
186.082077E-3,309.366417E-3
186.102104E-3,309.359550E-3
186.218262E-3,309.558105E-3
185.941315E-3,309.313774E-3
186.197090E-3,309.385872E-3
186.052322E-3,309.294891E-3
186.088371E-3,309.310341E-3
186.317825E-3,309.457970E-3
185.983658E-3,309.407043E-3
186.098671E-3,309.576416E-3
186.072350E-3,309.715462E-3
186.223984E-3,309.715462E-3
186.427116E-3,309.870529E-3
186.196518E-3,309.745216E-3
186.470604E-3,310.042763E-3
186.441994E-3,310.166359E-3
186.492348E-3,310.264206E-3
186.913490E-3,310.754585E-3
186.641693E-3,310.677910E-3
186.922646E-3,311.081886E-3
186.960411E-3,310.992050E-3
187.109756E-3,311.204338E-3
187.331200E-3,311.408043E-3
187.176704E-3,311.232948E-3
187.460518E-3,311.581421E-3
187.567520E-3,311.779976E-3
187.711143E-3,311.782265E-3
187.903976E-3,312.273788E-3
187.828445E-3,312.353897E-3
188.099098E-3,312.683487E-3
188.174057E-3,312.709236E-3
188.282204E-3,312.907791E-3
188.566017E-3,313.290596E-3
188.488770E-3,313.369560E-3
188.734818E-3,313.727188E-3
188.786316E-3,313.811302E-3
188.740540E-3,313.989258E-3
188.871002E-3,314.039040E-3
188.606644E-3,313.720894E-3
188.567162E-3,313.547516E-3
188.051605E-3,312.690353E-3
187.121773E-3,311.172295E-3
186.026001E-3,309.066010E-3
184.049606E-3,306.128883E-3
182.577896E-3,303.200912E-3
181.054688E-3,300.164223E-3
179.858208E-3,297.587585E-3
179.217911E-3,295.779991E-3
178.504372E-3,294.407272E-3
178.574181E-3,294.238472E-3
178.699493E-3,294.369507E-3
178.899765E-3,295.101929E-3
179.461670E-3,296.294975E-3
179.811287E-3,297.264862E-3
180.519676E-3,298.671341E-3
181.072998E-3,299.871826E-3
181.457520E-3,300.679207E-3
181.888962E-3,301.562119E-3
181.931877E-3,301.778984E-3
182.197380E-3,302.097130E-3
182.147598E-3,302.037621E-3
181.907272E-3,301.694870E-3
181.750488E-3,301.531219E-3
181.510162E-3,301.089478E-3
181.763077E-3,301.422501E-3
181.887245E-3,301.618767E-3
182.094383E-3,301.988983E-3
182.580757E-3,302.764893E-3
182.629395E-3,303.076744E-3
182.892036E-3,303.579140E-3
182.902908E-3,303.691292E-3
182.672882E-3,303.450966E-3
182.654572E-3,303.395462E-3
182.343292E-3,302.869034E-3
182.367897E-3,302.751160E-3
182.192230E-3,302.364922E-3
182.081795E-3,302.121735E-3
182.149315E-3,302.269936E-3
182.034302E-3,302.210999E-3
182.255173E-3,302.517128E-3
182.445145E-3,302.784920E-3
182.648277E-3,303.096199E-3
183.075714E-3,303.858376E-3
183.147240E-3,304.126167E-3
183.527756E-3,304.843140E-3
183.924294E-3,305.398750E-3
184.052467E-3,305.863380E-3
184.471893E-3,306.451607E-3
184.554863E-3,306.705666E-3
184.900475E-3,307.249260E-3
184.981155E-3,307.628632E-3
185.121346E-3,307.856369E-3
185.513878E-3,308.137894E-3
185.403442E-3,308.132172E-3
185.623169E-3,308.413696E-3
185.672951E-3,308.369064E-3
185.532188E-3,308.325005E-3
185.751343E-3,308.671188E-3
185.639763E-3,308.537865E-3
185.738182E-3,308.568764E-3
185.699272E-3,308.519554E-3
185.718155E-3,308.385658E-3
185.799980E-3,308.567619E-3
185.648918E-3,308.421707E-3
185.802841E-3,308.676338E-3
185.795403E-3,308.798790E-3
185.809135E-3,308.617401E-3
185.948753E-3,308.914375E-3
185.787964E-3,308.801651E-3
186.028290E-3,309.076309E-3
186.225128E-3,309.248543E-3
186.158752E-3,309.291458E-3
186.391068E-3,309.593010E-3
186.326408E-3,309.736061E-3
186.579895E-3,309.873390E-3
186.680603E-3,309.999275E-3
186.619949E-3,310.241890E-3
186.908340E-3,310.641289E-3
186.883163E-3,310.505676E-3
187.068558E-3,310.794067E-3
187.247086E-3,310.887337E-3
187.205315E-3,311.003494E-3
187.537193E-3,311.430359E-3
187.471390E-3,311.246681E-3
187.683105E-3,311.460114E-3
187.750626E-3,311.513901E-3
187.782097E-3,311.635780E-3
187.958908E-3,311.892700E-3
187.943459E-3,311.971092E-3
188.144302E-3,312.254333E-3
188.267899E-3,312.423706E-3
188.230705E-3,312.547874E-3
188.501358E-3,312.999344E-3
188.316536E-3,312.908363E-3
188.444138E-3,313.084030E-3
188.606071E-3,313.244820E-3
188.493347E-3,313.365555E-3
188.753128E-3,313.449097E-3
188.568306E-3,313.276863E-3
188.694191E-3,313.386154E-3
188.588333E-3,313.131523E-3
188.093376E-3,312.499809E-3
187.573814E-3,311.518478E-3
186.250305E-3,309.425926E-3
184.964561E-3,307.064438E-3
183.306313E-3,304.039192E-3
181.713867E-3,301.147842E-3
180.685616E-3,298.855591E-3
179.588127E-3,296.566772E-3
179.228210E-3,295.252991E-3
179.065704E-3,294.716835E-3
179.015923E-3,294.744873E-3
179.510307E-3,295.751381E-3
179.863358E-3,296.474075E-3
180.585480E-3,297.838783E-3
181.082726E-3,299.245262E-3
181.532478E-3,300.276375E-3
182.302666E-3,301.613617E-3
182.545853E-3,302.203560E-3
182.979012E-3,302.929115E-3
183.096313E-3,303.215218E-3
183.024788E-3,303.155708E-3
183.010483E-3,303.035545E-3
182.690048E-3,302.824974E-3
182.807922E-3,302.740860E-3
182.878304E-3,302.889633E-3
182.984161E-3,303.088760E-3
183.512878E-3,303.890419E-3
183.611870E-3,304.179955E-3
183.901978E-3,304.624557E-3
183.891678E-3,304.729843E-3
183.773232E-3,304.614258E-3
183.858490E-3,304.692650E-3
183.420753E-3,304.045486E-3
183.281136E-3,303.603172E-3
183.043098E-3,303.093338E-3
182.817078E-3,302.621841E-3
182.925797E-3,302.730560E-3
182.800484E-3,302.487373E-3
182.942390E-3,302.781487E-3
183.002472E-3,303.018951E-3
183.049393E-3,303.293610E-3
183.676529E-3,304.099274E-3
183.749199E-3,304.441452E-3
184.133148E-3,305.082893E-3
184.360886E-3,305.747223E-3
184.568024E-3,306.093979E-3
185.228348E-3,307.036400E-3
185.221481E-3,307.208061E-3
185.501862E-3,307.669830E-3
185.559654E-3,307.953072E-3
185.541344E-3,308.046341E-3
185.970497E-3,308.489227E-3
185.881805E-3,308.609390E-3
185.896111E-3,308.680344E-3
185.897255E-3,308.782768E-3
185.607719E-3,308.637428E-3
185.981369E-3,308.977318E-3
185.717583E-3,308.656883E-3
185.805702E-3,308.730125E-3
185.778809E-3,308.728981E-3
185.640335E-3,308.606529E-3
185.900688E-3,308.861160E-3
185.640907E-3,308.719254E-3
185.708427E-3,308.838844E-3
185.661507E-3,308.706665E-3
185.644341E-3,308.691216E-3
185.892677E-3,309.021378E-3
185.790825E-3,308.928680E-3
185.985947E-3,309.141541E-3
185.939598E-3,309.349823E-3
185.834312E-3,309.387016E-3
186.175919E-3,309.756088E-3
185.995674E-3,309.538651E-3
186.343002E-3,309.812164E-3
186.302376E-3,309.942627E-3
186.197662E-3,310.031891E-3
186.509514E-3,310.372925E-3
186.377907E-3,310.312843E-3
186.574173E-3,310.462761E-3
186.530113E-3,310.673332E-3
186.373901E-3,310.707092E-3
186.768150E-3,311.067581E-3
186.641693E-3,311.066437E-3
186.755562E-3,311.112785E-3
186.872864E-3,311.244392E-3
186.892319E-3,311.436081E-3
187.230492E-3,311.820602E-3
187.142372E-3,311.976814E-3
187.364388E-3,312.205124E-3
187.379837E-3,312.451172E-3
187.305450E-3,312.524414E-3
187.653923E-3,312.847710E-3
187.528610E-3,312.792206E-3
187.755203E-3,313.004494E-3
187.774658E-3,313.236809E-3
187.684250E-3,313.081741E-3
187.887955E-3,313.180733E-3
187.529755E-3,312.662315E-3
187.314034E-3,312.155914E-3
186.396217E-3,310.750008E-3
184.998322E-3,308.570480E-3
183.740044E-3,306.253624E-3
182.026291E-3,303.174019E-3
180.671883E-3,300.335312E-3
179.539490E-3,297.735214E-3
178.508949E-3,295.579720E-3
178.191376E-3,294.480515E-3
177.840614E-3,293.864822E-3
178.013420E-3,294.043350E-3
178.364754E-3,294.665337E-3
178.723526E-3,295.536232E-3
179.510307E-3,296.937561E-3
179.998970E-3,298.151779E-3
180.511093E-3,299.565697E-3
180.979729E-3,300.675774E-3
181.334496E-3,301.243401E-3
181.798553E-3,302.073097E-3
181.818008E-3,302.223587E-3
181.848907E-3,302.385521E-3
181.831169E-3,302.428436E-3
181.639481E-3,302.090836E-3
181.822014E-3,302.127457E-3
181.651497E-3,302.117729E-3
181.770515E-3,302.546883E-3
182.106400E-3,302.964020E-3
182.385063E-3,303.230095E-3
182.717514E-3,303.907585E-3
182.679749E-3,303.939056E-3
182.758713E-3,304.304695E-3
182.634544E-3,304.194832E-3
182.314110E-3,303.627777E-3
182.345009E-3,303.267288E-3
182.016563E-3,302.368355E-3
181.927872E-3,302.289391E-3
181.823158E-3,302.033615E-3
181.660652E-3,301.893997E-3
181.839180E-3,302.128601E-3
181.759644E-3,302.151489E-3
182.053185E-3,302.631569E-3
182.344437E-3,303.219795E-3
182.549286E-3,303.605461E-3
182.974434E-3,304.177666E-3
183.087158E-3,304.831696E-3
183.488846E-3,305.450821E-3
183.831596E-3,306.196976E-3
183.972931E-3,306.483078E-3
184.419250E-3,307.075882E-3
184.415817E-3,307.221222E-3
184.745407E-3,307.639503E-3
184.969711E-3,308.038330E-3
185.065842E-3,308.121872E-3
185.211754E-3,308.352470E-3
185.017204E-3,308.480072E-3
185.211182E-3,308.524132E-3
185.314751E-3,308.621979E-3
185.076714E-3,308.354759E-3
185.278702E-3,308.545876E-3
185.046387E-3,308.389664E-3
185.131645E-3,308.642006E-3
185.263824E-3,308.757019E-3
185.028076E-3,308.441734E-3
185.190010E-3,308.682060E-3
185.131645E-3,308.577919E-3
185.184860E-3,308.617973E-3
185.282135E-3,308.905220E-3
185.185432E-3,308.765030E-3
185.299301E-3,309.000778E-3
185.313606E-3,308.987045E-3
185.477829E-3,309.106064E-3
185.704994E-3,309.423065E-3
185.509872E-3,309.357834E-3
185.904694E-3,309.670830E-3
185.912132E-3,309.762955E-3
186.102104E-3,310.041618E-3
186.374474E-3,310.457039E-3
186.272621E-3,310.505676E-3
186.602783E-3,310.903358E-3
186.442566E-3,310.951996E-3
186.629677E-3,311.012077E-3
186.918068E-3,311.323357E-3
186.824799E-3,311.306763E-3
187.067986E-3,311.649513E-3
186.991310E-3,311.643219E-3
187.077713E-3,311.735916E-3
187.364388E-3,312.102127E-3
187.228203E-3,311.917305E-3
187.359810E-3,312.122154E-3
187.259102E-3,312.146759E-3
187.343788E-3,312.230301E-3
187.553787E-3,312.480927E-3
187.438774E-3,312.287521E-3
187.761497E-3,312.665749E-3
187.673378E-3,312.748718E-3
187.776375E-3,312.909508E-3
187.985229E-3,313.114357E-3
187.867355E-3,313.175583E-3
188.151741E-3,313.657951E-3
188.186073E-3,313.611603E-3
188.208389E-3,313.661385E-3
188.327408E-3,313.977242E-3
188.119125E-3,313.655663E-3
188.123703E-3,313.616753E-3
187.465668E-3,312.651443E-3
186.589050E-3,311.037827E-3
185.333061E-3,308.897209E-3
183.491707E-3,305.720901E-3
182.124138E-3,302.708817E-3
180.468178E-3,299.479866E-3
179.190445E-3,296.848869E-3
178.581619E-3,294.997787E-3
177.799416E-3,293.550110E-3
177.944756E-3,293.137550E-3
177.897263E-3,293.265152E-3
178.207970E-3,293.901443E-3
178.807068E-3,295.055580E-3
179.157829E-3,296.174812E-3
179.887962E-3,297.638512E-3
180.296516E-3,298.766899E-3
180.788040E-3,299.604034E-3
181.181145E-3,300.461197E-3
181.127930E-3,300.684357E-3
181.385422E-3,301.028824E-3
181.260109E-3,300.816536E-3
181.192589E-3,300.565910E-3
181.185722E-3,300.353622E-3
180.804062E-3,299.863815E-3
180.951691E-3,299.865532E-3
180.909348E-3,299.908447E-3
181.216049E-3,300.375938E-3
181.604004E-3,301.133537E-3
181.654358E-3,301.535797E-3
182.032585E-3,302.252197E-3
182.088089E-3,302.383232E-3
182.157326E-3,302.614975E-3
182.285500E-3,302.773476E-3
181.860352E-3,302.215004E-3
181.894112E-3,302.120590E-3
181.620026E-3,301.641083E-3
181.626320E-3,301.387596E-3
181.669807E-3,301.361847E-3
181.424904E-3,301.162148E-3
181.679535E-3,301.493454E-3
181.676102E-3,301.666260E-3
181.934166E-3,302.205849E-3
182.291794E-3,302.810669E-3
182.361031E-3,303.320503E-3
182.819366E-3,303.989983E-3
182.975578E-3,304.418564E-3
183.279991E-3,304.999352E-3
183.824730E-3,305.496597E-3
183.781242E-3,305.726051E-3
184.214401E-3,306.266212E-3
184.141731E-3,306.512260E-3
184.450150E-3,306.900787E-3
184.745407E-3,307.241821E-3
184.549141E-3,307.112503E-3
184.897041E-3,307.463837E-3
184.882164E-3,307.479858E-3
184.979439E-3,307.534218E-3
185.112190E-3,307.902145E-3
184.873009E-3,307.628632E-3
185.028076E-3,308.002853E-3
185.009766E-3,307.768822E-3
185.060120E-3,307.808304E-3
185.288429E-3,308.030319E-3
185.065269E-3,307.867241E-3
185.289574E-3,308.102989E-3
185.244370E-3,308.180237E-3
185.373116E-3,308.128738E-3
185.649490E-3,308.425140E-3
185.338783E-3,308.163071E-3
185.693550E-3,308.499527E-3
185.701561E-3,308.697510E-3
185.772514E-3,308.858299E-3
186.078072E-3,309.096336E-3
185.927010E-3,309.040833E-3
186.239433E-3,309.527206E-3
186.301804E-3,309.546661E-3
186.446571E-3,309.813881E-3
186.678314E-3,310.140038E-3
186.655426E-3,310.158920E-3
186.942101E-3,310.673904E-3
187.002182E-3,310.863304E-3
187.185287E-3,311.087608E-3
187.444496E-3,311.443520E-3
187.322617E-3,311.347961E-3
187.560081E-3,311.706734E-3
187.604713E-3,311.832047E-3
187.763786E-3,312.005997E-3
187.862206E-3,312.122154E-3
187.736893E-3,312.082672E-3
187.977791E-3,312.121582E-3
187.926292E-3,312.099266E-3
187.999535E-3,312.035179E-3
188.190651E-3,312.231445E-3
188.079643E-3,312.197685E-3
188.223267E-3,312.419701E-3
188.240433E-3,312.521553E-3
188.259888E-3,312.458611E-3
188.508224E-3,312.738991E-3
188.406944E-3,312.634277E-3
188.706779E-3,312.987328E-3
188.802338E-3,313.161278E-3
188.934517E-3,313.451385E-3
189.252663E-3,313.943481E-3
189.051819E-3,313.980103E-3
189.219475E-3,314.226151E-3
189.287567E-3,314.279366E-3
189.289856E-3,314.214706E-3
189.567375E-3,314.382362E-3
189.344215E-3,314.131737E-3
189.383698E-3,314.008713E-3
188.793182E-3,313.092613E-3
187.640762E-3,311.541939E-3
186.479187E-3,309.227371E-3
184.780884E-3,306.369209E-3
183.257675E-3,303.278732E-3
181.809425E-3,300.235748E-3
180.601501E-3,297.649956E-3
179.993820E-3,296.067810E-3
179.380417E-3,294.650459E-3
179.415321E-3,294.475937E-3
179.610443E-3,294.753456E-3
179.823875E-3,295.449829E-3
180.384064E-3,296.797943E-3
180.829811E-3,297.903442E-3
181.592560E-3,299.478722E-3
182.120705E-3,300.589371E-3
182.432556E-3,301.359558E-3
182.951546E-3,302.157784E-3
182.858849E-3,302.372932E-3
183.189011E-3,302.685928E-3
183.091736E-3,302.546310E-3
182.910919E-3,302.276230E-3
182.998466E-3,302.133751E-3
182.656288E-3,301.662254E-3
182.841110E-3,301.804733E-3
182.934380E-3,301.979256E-3
183.082581E-3,302.451324E-3
183.567238E-3,303.198051E-3
183.610153E-3,303.654671E-3
183.876228E-3,304.145050E-3
183.836174E-3,304.203415E-3
183.683968E-3,303.949928E-3
183.791542E-3,304.029465E-3
183.448219E-3,303.361702E-3
183.380699E-3,303.032112E-3
182.976151E-3,302.624702E-3
182.782173E-3,302.258492E-3
182.913780E-3,302.340317E-3
182.924080E-3,302.359200E-3
183.228493E-3,302.678490E-3
183.359528E-3,303.034973E-3
183.405876E-3,303.350830E-3
183.884239E-3,304.161644E-3
184.050179E-3,304.577637E-3
184.506226E-3,305.420494E-3
184.810066E-3,305.919456E-3
184.992027E-3,306.248474E-3
185.377693E-3,306.992912E-3
185.438347E-3,307.323647E-3
185.833168E-3,307.775116E-3
185.895538E-3,307.940483E-3
185.964203E-3,308.125877E-3
186.279488E-3,308.450890E-3
186.085510E-3,308.331299E-3
186.404228E-3,308.496094E-3
186.455727E-3,308.472633E-3
186.344147E-3,308.409691E-3
186.537552E-3,308.816528E-3
186.355019E-3,308.660316E-3
186.520386E-3,308.672333E-3
186.576462E-3,308.731270E-3
186.419106E-3,308.670616E-3
186.511803E-3,309.149551E-3
186.436272E-3,308.977890E-3
186.565590E-3,309.143257E-3
186.534119E-3,309.008217E-3
186.483765E-3,308.883476E-3
186.680603E-3,309.375000E-3
186.550713E-3,309.129524E-3
186.757851E-3,309.421921E-3
186.822510E-3,309.490585E-3
186.802483E-3,309.497452E-3
187.089729E-3,309.912872E-3
187.017059E-3,309.833336E-3
187.239647E-3,310.252190E-3
187.265968E-3,310.456467E-3
187.265968E-3,310.569191E-3
187.588120E-3,310.855293E-3
187.706566E-3,310.903931E-3
187.870216E-3,311.102486E-3
187.808990E-3,311.214638E-3
187.752914E-3,311.277580E-3
188.144302E-3,311.668396E-3
188.036156E-3,311.690140E-3
188.144302E-3,311.992836E-3
188.113403E-3,311.959076E-3
188.061333E-3,311.854935E-3
188.343430E-3,312.179947E-3
188.237572E-3,312.007141E-3
188.330841E-3,312.247467E-3
188.280487E-3,312.197113E-3
188.180923E-3,312.126160E-3
188.453293E-3,312.516975E-3
188.277626E-3,312.404823E-3
188.496780E-3,312.583351E-3
188.481331E-3,312.668037E-3
188.549995E-3,312.911797E-3
188.769150E-3,313.184738E-3
188.677025E-3,313.085747E-3
188.958549E-3,313.463402E-3
188.978004E-3,313.684273E-3
189.026642E-3,313.704872E-3
189.282417E-3,314.124298E-3
189.087296E-3,314.060783E-3
189.225769E-3,314.363480E-3
189.263535E-3,314.278221E-3
189.099312E-3,314.052200E-3
189.156532E-3,313.974380E-3
188.457298E-3,312.995911E-3
187.663651E-3,311.545372E-3
186.337280E-3,309.325218E-3
184.722519E-3,306.566048E-3
183.476830E-3,304.181099E-3
181.664085E-3,300.997353E-3
180.614090E-3,298.555756E-3
179.842186E-3,296.659470E-3
179.255104E-3,295.547104E-3
179.305458E-3,295.341110E-3
179.307747E-3,295.490456E-3
179.795837E-3,296.367645E-3
180.203819E-3,297.394180E-3
180.567741E-3,298.592377E-3
181.486702E-3,300.176811E-3
181.818008E-3,301.145554E-3
182.533836E-3,302.227020E-3
182.835960E-3,303.034401E-3
182.948685E-3,303.313065E-3
183.381271E-3,303.882408E-3
183.171272E-3,303.741646E-3
183.140945E-3,303.797150E-3
183.009338E-3,303.658676E-3
182.877731E-3,303.423500E-3
183.268547E-3,303.814888E-3
183.259392E-3,303.823471E-3
183.623886E-3,304.429436E-3
183.825874E-3,304.800797E-3
183.738899E-3,305.017090E-3
184.047890E-3,305.542374E-3
183.755493E-3,305.280876E-3
183.799553E-3,305.339241E-3
183.539200E-3,304.887199E-3
183.217621E-3,304.121590E-3
183.221054E-3,303.961372E-3
182.880020E-3,303.285027E-3
182.831383E-3,303.096771E-3
182.704353E-3,303.083038E-3
182.698059E-3,302.958298E-3
183.096313E-3,303.549957E-3
183.162689E-3,303.925323E-3
183.475685E-3,304.625702E-3
183.726311E-3,305.058861E-3
183.912849E-3,305.502319E-3
184.547997E-3,306.370354E-3
184.689903E-3,306.694221E-3
185.089874E-3,307.310486E-3
185.405731E-3,307.800865E-3
185.515594E-3,308.112717E-3
185.969925E-3,308.672333E-3
185.918427E-3,308.860588E-3
186.171913E-3,309.257126E-3
186.276054E-3,309.450531E-3
186.178207E-3,309.503174E-3
186.495209E-3,309.837914E-3
186.384773E-3,309.654236E-3
186.286926E-3,309.545517E-3
186.302376E-3,309.556389E-3
186.150169E-3,309.460258E-3
186.542130E-3,309.703445E-3
186.369324E-3,309.530067E-3
186.427689E-3,309.716606E-3
186.371040E-3,309.741783E-3
186.150742E-3,309.525490E-3
186.439133E-3,309.738922E-3
186.425400E-3,309.734344E-3
186.521530E-3,309.783554E-3
186.503220E-3,309.899139E-3
186.466026E-3,309.889412E-3
186.816788E-3,310.340881E-3
186.681175E-3,310.410118E-3
186.865425E-3,310.585213E-3
187.002754E-3,310.687637E-3
186.962700E-3,310.750008E-3
187.370110E-3,311.117363E-3
187.280273E-3,311.281013E-3
187.461662E-3,311.456680E-3
187.514305E-3,311.612892E-3
187.490273E-3,311.655807E-3
187.943459E-3,312.073517E-3
187.853050E-3,312.218857E-3
187.957191E-3,312.388229E-3
188.092804E-3,312.498093E-3
188.020706E-3,312.453461E-3
188.306808E-3,312.956429E-3
188.168907E-3,313.002205E-3
188.348007E-3,313.108063E-3
188.414955E-3,313.219070E-3
188.365746E-3,313.151550E-3
188.659286E-3,313.401604E-3
188.593483E-3,313.518906E-3
188.565445E-3,313.498878E-3
188.600922E-3,313.645935E-3
188.500214E-3,313.394165E-3
188.753700E-3,313.596153E-3
188.651848E-3,313.489723E-3
188.612938E-3,313.557243E-3
188.681030E-3,313.664246E-3
188.650131E-3,313.615036E-3
189.001465E-3,313.810158E-3
188.916779E-3,313.993835E-3
189.023781E-3,314.234734E-3
189.189720E-3,314.388084E-3
189.200020E-3,314.406967E-3
189.497566E-3,314.842415E-3
189.435768E-3,314.853287E-3
189.586258E-3,315.094185E-3
189.742470E-3,315.431786E-3
189.687538E-3,315.433502E-3
189.925575E-3,315.717316E-3
189.702988E-3,315.339661E-3
189.549637E-3,315.041542E-3
189.084435E-3,314.164352E-3
187.867355E-3,312.248039E-3
186.573029E-3,310.204124E-3
184.715652E-3,307.115364E-3
183.123207E-3,303.963661E-3
181.782532E-3,301.011658E-3
180.322266E-3,298.266792E-3
179.630470E-3,296.553612E-3
179.009628E-3,295.022964E-3
178.997040E-3,294.627571E-3
179.122353E-3,294.908524E-3
179.283714E-3,295.507050E-3
179.992104E-3,296.885490E-3
180.340004E-3,297.951508E-3
181.008339E-3,299.401474E-3
181.727600E-3,300.531578E-3
181.969070E-3,301.265144E-3
182.499504E-3,302.087402E-3
182.391357E-3,302.225304E-3
182.429695E-3,302.423286E-3
182.576180E-3,302.482224E-3
182.259750E-3,302.047920E-3
182.319260E-3,301.794434E-3
181.937599E-3,301.169586E-3
181.884384E-3,300.984192E-3
181.949615E-3,301.174736E-3
181.934166E-3,301.394463E-3
182.419968E-3,302.046776E-3
182.551575E-3,302.423286E-3
182.799339E-3,302.993202E-3
183.068848E-3,303.405190E-3
182.944107E-3,303.594589E-3
183.127785E-3,303.678703E-3
182.889175E-3,303.393745E-3
182.838821E-3,303.162003E-3
182.752419E-3,302.990913E-3
182.505798E-3,302.534866E-3
182.680893E-3,302.576637E-3
182.531548E-3,302.451324E-3
182.805061E-3,302.828407E-3
182.897758E-3,303.097916E-3
182.842255E-3,303.138542E-3
183.216476E-3,303.695869E-3
183.213043E-3,303.977966E-3
183.558655E-3,304.563904E-3
184.000969E-3,305.181885E-3
184.035873E-3,305.596161E-3
184.487343E-3,306.228447E-3
184.503365E-3,306.785774E-3
184.836388E-3,307.091331E-3
185.155106E-3,307.408905E-3
185.181427E-3,307.541656E-3
185.423470E-3,308.010292E-3
185.340500E-3,307.918167E-3
185.454369E-3,308.233452E-3
185.655785E-3,308.325577E-3
185.546494E-3,308.214569E-3
185.706711E-3,308.465767E-3
185.583687E-3,308.287239E-3
185.650063E-3,308.314705E-3
185.794258E-3,308.387375E-3
185.676956E-3,308.292389E-3
185.810852E-3,308.695221E-3
185.713005E-3,308.547592E-3
185.769081E-3,308.660316E-3
185.826302E-3,308.698654E-3
185.658073E-3,308.555031E-3
185.967636E-3,308.924675E-3
185.938454E-3,308.885765E-3
186.023140E-3,309.155846E-3
186.150169E-3,309.419632E-3
186.051178E-3,309.244537E-3
186.351585E-3,309.637642E-3
186.405945E-3,309.531212E-3
186.578751E-3,309.828186E-3
186.760712E-3,310.275650E-3
186.630821E-3,310.309982E-3
186.958122E-3,310.783768E-3
186.969566E-3,310.824394E-3
187.154388E-3,310.961151E-3
187.301445E-3,311.253548E-3
187.309456E-3,311.317635E-3
187.597847E-3,311.675835E-3
187.584114E-3,311.706161E-3
187.654495E-3,311.924171E-3
187.869072E-3,312.209129E-3
187.781525E-3,312.202835E-3
188.087082E-3,312.305260E-3
187.962914E-3,312.380219E-3
188.063622E-3,312.499237E-3
188.183212E-3,312.730408E-3
188.067055E-3,312.532425E-3
188.359451E-3,312.817955E-3
188.274765E-3,312.782478E-3
188.324547E-3,312.765312E-3
188.389206E-3,312.930107E-3
188.236427E-3,312.843704E-3
188.493347E-3,313.017082E-3
188.492203E-3,312.872887E-3
188.650131E-3,313.009071E-3
188.661003E-3,313.109779E-3
188.585472E-3,313.141251E-3
188.925934E-3,313.542938E-3
188.840675E-3,313.559532E-3
189.030647E-3,313.832474E-3
189.311600E-3,314.154625E-3
189.357948E-3,314.178658E-3
189.752769E-3,314.533424E-3
189.779091E-3,314.588356E-3
189.881516E-3,315.055275E-3
190.029716E-3,315.216064E-3
189.885521E-3,315.100479E-3
190.022850E-3,315.173721E-3
189.860344E-3,314.869881E-3
189.579964E-3,314.431572E-3
188.952827E-3,313.341522E-3
187.593842E-3,311.050415E-3
186.333847E-3,308.747292E-3
184.584045E-3,305.722618E-3
183.004189E-3,302.720261E-3
181.775093E-3,300.271797E-3
180.634117E-3,297.772408E-3
180.276489E-3,296.446037E-3
179.831314E-3,295.535660E-3
179.876518E-3,295.487022E-3
180.510521E-3,296.298981E-3
180.543137E-3,296.907234E-3
181.300735E-3,298.286819E-3
181.725883E-3,299.299049E-3
182.324409E-3,300.572205E-3
182.966995E-3,301.694298E-3
182.988167E-3,302.212143E-3
183.510590E-3,302.926254E-3
183.496857E-3,303.178024E-3
183.599854E-3,303.297615E-3
183.695412E-3,303.293037E-3
183.169556E-3,302.576065E-3
183.111763E-3,302.303123E-3
183.028221E-3,302.030754E-3
182.999611E-3,302.119446E-3
183.365822E-3,302.519417E-3
183.367538E-3,302.676773E-3
183.737183E-3,303.638649E-3
183.961487E-3,304.246330E-3
184.042740E-3,304.515266E-3
184.210396E-3,304.619980E-3
183.937454E-3,304.280663E-3
184.089661E-3,304.202843E-3
183.776093E-3,303.809738E-3
183.594704E-3,303.369713E-3
183.582687E-3,303.220367E-3
183.198166E-3,302.767754E-3
183.445358E-3,303.013802E-3
183.472252E-3,302.988625E-3
183.556366E-3,303.338242E-3
183.828735E-3,303.767967E-3
183.851051E-3,303.954506E-3
184.374619E-3,304.804802E-3
184.614372E-3,305.338097E-3
185.007477E-3,305.934906E-3
185.394859E-3,306.451607E-3
185.307312E-3,306.618690E-3
185.703278E-3,307.185173E-3
185.885811E-3,307.468414E-3
186.133003E-3,307.837486E-3
186.471176E-3,308.333015E-3
186.219978E-3,308.322716E-3
186.615372E-3,308.648300E-3
186.442566E-3,308.453751E-3
186.615372E-3,308.841133E-3
186.862564E-3,309.149551E-3
186.531258E-3,308.786201E-3
186.796761E-3,308.961296E-3
186.770439E-3,308.944130E-3
186.792183E-3,308.961868E-3
186.978149E-3,309.182739E-3
186.670876E-3,308.984756E-3
186.998749E-3,309.238815E-3
186.816216E-3,309.121513E-3
186.879730E-3,309.181023E-3
187.009621E-3,309.484863E-3
186.813927E-3,309.236526E-3
187.096596E-3,309.479141E-3
187.021065E-3,309.535789E-3
187.165833E-3,309.808159E-3
187.358093E-3,309.988976E-3
187.143517E-3,309.934616E-3
187.465096E-3,310.228729E-3
187.467384E-3,310.273361E-3
187.608719E-3,310.476494E-3
187.958336E-3,310.936546E-3
187.833595E-3,310.791779E-3
188.116264E-3,311.160278E-3
188.207245E-3,311.350822E-3
188.342857E-3,311.554527E-3
188.588333E-3,312.063789E-3
188.321114E-3,311.785698E-3
188.549995E-3,312.038612E-3
188.634109E-3,312.271500E-3
188.789749E-3,312.515259E-3
188.922501E-3,312.585068E-3
188.723946E-3,312.434006E-3
188.944817E-3,312.651443E-3
188.848686E-3,312.597656E-3
