Notes :


2023-11-23 ¿ÀÀü 12:20:34
Volts
Ch : LED 2,Ch : LED 3,
831.643295E-3,632.341003E-3
831.741142E-3,632.318687E-3
832.047272E-3,632.595062E-3
831.990623E-3,632.458878E-3
831.782341E-3,632.425690E-3
831.163788E-3,632.370758E-3
829.967308E-3,631.697273E-3
829.117584E-3,631.744194E-3
827.942276E-3,631.129646E-3
827.277946E-3,631.012917E-3
827.059364E-3,630.792046E-3
826.791000E-3,630.634689E-3
827.359772E-3,630.945969E-3
827.674484E-3,630.980301E-3
828.328514E-3,631.340218E-3
829.091835E-3,631.608582E-3
829.335022E-3,631.447792E-3
829.656029E-3,631.551361E-3
829.292679E-3,631.440353E-3
828.843498E-3,631.285286E-3
828.441811E-3,631.291580E-3
827.907944E-3,630.867577E-3
827.865601E-3,631.051826E-3
827.517128E-3,630.761147E-3
827.217865E-3,630.770874E-3
826.606178E-3,630.687332E-3
825.498962E-3,630.326843E-3
824.922752E-3,630.215836E-3
824.209213E-3,629.857635E-3
823.915100E-3,629.790688E-3
823.770332E-3,629.887962E-3
823.325157E-3,629.494286E-3
822.908020E-3,629.720879E-3
822.121239E-3,629.363251E-3
821.601677E-3,629.163551E-3
821.357346E-3,629.160690E-3
820.895576E-3,628.928375E-3
820.963097E-3,629.217339E-3
820.600891E-3,628.990746E-3
820.381165E-3,628.876305E-3
820.183754E-3,628.977013E-3
819.653893E-3,628.672600E-3
819.704247E-3,628.817940E-3
819.255638E-3,628.466606E-3
819.051361E-3,628.303528E-3
819.051933E-3,628.398514E-3
818.734360E-3,628.039742E-3
818.900299E-3,628.236580E-3
818.628502E-3,628.128433E-3
818.698311E-3,628.129578E-3
818.392181E-3,628.004265E-3
818.213654E-3,627.739906E-3
817.482948E-3,627.490997E-3
817.160797E-3,627.327919E-3
817.160797E-3,627.437782E-3
817.417717E-3,627.601433E-3
817.268944E-3,627.430344E-3
817.462349E-3,627.702713E-3
817.022324E-3,627.496719E-3
816.462135E-3,627.291870E-3
816.266441E-3,627.103615E-3
815.614700E-3,626.766014E-3
815.627861E-3,626.959991E-3
815.071678E-3,626.655006E-3
814.759254E-3,626.475334E-3
814.318657E-3,626.511383E-3
813.551903E-3,626.028442E-3
813.289833E-3,626.022148E-3
812.623787E-3,625.732613E-3
812.073898E-3,625.579262E-3
811.768341E-3,625.593567E-3
811.024475E-3,625.064278E-3
811.086273E-3,625.204468E-3
811.028481E-3,624.958420E-3
811.293983E-3,625.088882E-3
812.594604E-3,625.701714E-3
814.307785E-3,626.083374E-3
817.614555E-3,627.392578E-3
821.601105E-3,628.740120E-3
826.333809E-3,630.420685E-3
831.297112E-3,632.318687E-3
835.450172E-3,633.540916E-3
839.279938E-3,635.095596E-3
841.743279E-3,635.985947E-3
843.197823E-3,636.538124E-3
843.659019E-3,636.811066E-3
842.860794E-3,636.469460E-3
841.925812E-3,636.288643E-3
840.148544E-3,635.563660E-3
838.405609E-3,634.984016E-3
836.864662E-3,634.550858E-3
834.987259E-3,633.720016E-3
834.077454E-3,633.647346E-3
833.041763E-3,633.103752E-3
832.395744E-3,632.851410E-3
832.235527E-3,632.950974E-3
831.863022E-3,632.636261E-3
832.201195E-3,632.810211E-3
832.300186E-3,632.835388E-3
832.491875E-3,632.900620E-3
832.807159E-3,633.093452E-3
832.357979E-3,632.645988E-3
832.164574E-3,632.593346E-3
831.129456E-3,632.156181E-3
830.063438E-3,631.781960E-3
828.872681E-3,631.568527E-3
827.379227E-3,630.804634E-3
826.571846E-3,630.681038E-3
825.969887E-3,630.358315E-3
825.885201E-3,630.226707E-3
826.337814E-3,630.444145E-3
826.441956E-3,630.267906E-3
827.228165E-3,630.788612E-3
827.714539E-3,630.951118E-3
828.071022E-3,631.000328E-3
828.550529E-3,631.185722E-3
828.243828E-3,630.872154E-3
828.211212E-3,631.042099E-3
827.801514E-3,630.970001E-3
827.281952E-3,630.716515E-3
826.919174E-3,630.664444E-3
826.007080E-3,630.133438E-3
825.685501E-3,630.190086E-3
824.964523E-3,629.982376E-3
824.233246E-3,629.783821E-3
823.829269E-3,629.598999E-3
822.930908E-3,629.153252E-3
822.600174E-3,629.159546E-3
822.078323E-3,628.953552E-3
821.613121E-3,628.736115E-3
821.393394E-3,628.807640E-3
820.720482E-3,628.344154E-3
820.647812E-3,628.530693E-3
820.090485E-3,628.254890E-3
819.711685E-3,628.052902E-3
819.513130E-3,628.043175E-3
818.827629E-3,627.602577E-3
818.721199E-3,627.680397E-3
818.420792E-3,627.457237E-3
818.215942E-3,627.446938E-3
818.162155E-3,627.599144E-3
817.731857E-3,627.195740E-3
817.884064E-3,627.369118E-3
817.556763E-3,627.143669E-3
817.482948E-3,626.992035E-3
817.549324E-3,627.087593E-3
817.120171E-3,626.858139E-3
817.184830E-3,627.065849E-3
816.862106E-3,626.848412E-3
816.732788E-3,626.895332E-3
816.691017E-3,626.874733E-3
816.241264E-3,626.620674E-3
816.203499E-3,626.773453E-3
815.895653E-3,626.507378E-3
815.705109E-3,626.377487E-3
815.615845E-3,626.566315E-3
815.227318E-3,626.234436E-3
815.274811E-3,626.445580E-3
815.000153E-3,626.204109E-3
814.766121E-3,626.083374E-3
814.718056E-3,626.316261E-3
814.353561E-3,625.837898E-3
814.334106E-3,626.002121E-3
813.945580E-3,625.719452E-3
813.728714E-3,625.615883E-3
813.680649E-3,625.745201E-3
813.170815E-3,625.336075E-3
813.083839E-3,625.469398E-3
812.604332E-3,625.158119E-3
812.314796E-3,624.959564E-3
811.925125E-3,625.016212E-3
811.259079E-3,624.652863E-3
810.988998E-3,624.704933E-3
810.444832E-3,624.389648E-3
809.956741E-3,624.156189E-3
809.964752E-3,624.235725E-3
809.702682E-3,623.982239E-3
810.308075E-3,624.366188E-3
811.176682E-3,624.688911E-3
813.230324E-3,625.369835E-3
816.632652E-3,626.666451E-3
820.631790E-3,627.871513E-3
825.728989E-3,630.010414E-3
830.725479E-3,631.652069E-3
835.331726E-3,633.152390E-3
839.229584E-3,634.711647E-3
841.637993E-3,635.499573E-3
843.353462E-3,636.200523E-3
843.688202E-3,636.236000E-3
843.087387E-3,636.038017E-3
842.122078E-3,635.780525E-3
840.141678E-3,634.987450E-3
838.678551E-3,634.618378E-3
837.000275E-3,634.197235E-3
835.549164E-3,633.483124E-3
834.531212E-3,633.244514E-3
833.329010E-3,632.710648E-3
832.867241E-3,632.662010E-3
832.558250E-3,632.477188E-3
832.519341E-3,632.340431E-3
832.951927E-3,632.608795E-3
832.943344E-3,632.465172E-3
833.595085E-3,632.742691E-3
833.829689E-3,632.879448E-3
833.900642E-3,632.766724E-3
834.012222E-3,632.766724E-3
833.243752E-3,632.295227E-3
832.392311E-3,632.238007E-3
831.084251E-3,631.703568E-3
829.587364E-3,631.120491E-3
828.582001E-3,630.905342E-3
827.546883E-3,630.366325E-3
827.441025E-3,630.429840E-3
827.188110E-3,630.324554E-3
827.201843E-3,630.241013E-3
827.653885E-3,630.500793E-3
827.923965E-3,630.290794E-3
828.442383E-3,630.623817E-3
828.594017E-3,630.787468E-3
828.725052E-3,630.630684E-3
828.842926E-3,630.742836E-3
828.345680E-3,630.495644E-3
828.242683E-3,630.497360E-3
827.676773E-3,630.367470E-3
827.128029E-3,630.240440E-3
826.865959E-3,630.183220E-3
826.091766E-3,629.730606E-3
825.672913E-3,629.790688E-3
824.947929E-3,629.407883E-3
824.210358E-3,629.142952E-3
823.971176E-3,629.177284E-3
823.353767E-3,628.765869E-3
823.148918E-3,628.789902E-3
822.580147E-3,628.616524E-3
822.123528E-3,628.308678E-3
821.961594E-3,628.363037E-3
821.271515E-3,627.922440E-3
821.158218E-3,628.014565E-3
820.826340E-3,627.868652E-3
820.329666E-3,627.696991E-3
820.261002E-3,627.773094E-3
819.803810E-3,627.402306E-3
819.756889E-3,627.588844E-3
819.583511E-3,627.396584E-3
819.204140E-3,627.149391E-3
819.391251E-3,627.405167E-3
818.923187E-3,627.145386E-3
818.948364E-3,627.135658E-3
818.778419E-3,627.018356E-3
818.638229E-3,626.878738E-3
818.709755E-3,627.054977E-3
818.389893E-3,626.802063E-3
818.586159E-3,626.998329E-3
818.498611E-3,626.991463E-3
818.142700E-3,626.795769E-3
818.200493E-3,626.997185E-3
817.831421E-3,626.715660E-3
817.740440E-3,626.776314E-3
817.464066E-3,626.663589E-3
817.109299E-3,626.432991E-3
817.144775E-3,626.567459E-3
816.596031E-3,626.267624E-3
816.704750E-3,626.348305E-3
816.523361E-3,626.406670E-3
816.308784E-3,626.120567E-3
816.338539E-3,626.402664E-3
815.954590E-3,626.226425E-3
815.951729E-3,626.240158E-3
815.768051E-3,626.212120E-3
815.408134E-3,625.818443E-3
815.493965E-3,626.014137E-3
814.974403E-3,625.675964E-3
815.013313E-3,625.797272E-3
814.710045E-3,625.720024E-3
814.249992E-3,625.499725E-3
814.274025E-3,625.604439E-3
813.656044E-3,625.372124E-3
813.591957E-3,625.331497E-3
813.095284E-3,625.156403E-3
812.535667E-3,624.925804E-3
812.426376E-3,625.111198E-3
811.837006E-3,624.647141E-3
812.096786E-3,624.752998E-3
812.184906E-3,624.752426E-3
812.521935E-3,624.759865E-3
813.937569E-3,625.403595E-3
815.886497E-3,625.936890E-3
819.458199E-3,627.363396E-3
823.745728E-3,628.835678E-3
828.415489E-3,630.421829E-3
833.464050E-3,632.397079E-3
837.526703E-3,633.607292E-3
841.052628E-3,635.054398E-3
843.320847E-3,635.842896E-3
844.264984E-3,636.127853E-3
844.584274E-3,636.323547E-3
843.556023E-3,635.878372E-3
842.365265E-3,635.531044E-3
840.597725E-3,634.951973E-3
838.669968E-3,634.109116E-3
837.260628E-3,633.860207E-3
835.437584E-3,633.123207E-3
834.406471E-3,632.772446E-3
833.426857E-3,632.564735E-3
832.732201E-3,632.196808E-3
832.823753E-3,632.366180E-3
832.671547E-3,632.077217E-3
833.119011E-3,632.352448E-3
833.294106E-3,632.550430E-3
833.486366E-3,632.450294E-3
833.971024E-3,632.740402E-3
833.650589E-3,632.506371E-3
833.405685E-3,632.470894E-3
832.513618E-3,632.167625E-3
831.235313E-3,631.581116E-3
830.315208E-3,631.425476E-3
829.002571E-3,630.885315E-3
828.425789E-3,630.731392E-3
828.108788E-3,630.521393E-3
827.957153E-3,630.420685E-3
828.649521E-3,630.776596E-3
828.907013E-3,630.770302E-3
829.652596E-3,631.087875E-3
830.182457E-3,631.281281E-3
830.340958E-3,631.174278E-3
830.910873E-3,631.551933E-3
830.549812E-3,631.292152E-3
830.402756E-3,631.258392E-3
829.928398E-3,631.270409E-3
829.143333E-3,630.945969E-3
828.827477E-3,630.967140E-3
828.028679E-3,630.571175E-3
827.480507E-3,630.478477E-3
826.860237E-3,630.174637E-3
825.944138E-3,629.802704E-3
825.631714E-3,629.859924E-3
824.821472E-3,629.436493E-3
824.312782E-3,629.303741E-3
823.858452E-3,629.108620E-3
823.272514E-3,628.877449E-3
823.179245E-3,629.134369E-3
822.579002E-3,628.824234E-3
822.263145E-3,628.693771E-3
821.912956E-3,628.550148E-3
821.421432E-3,628.404236E-3
821.397400E-3,628.503227E-3
820.868683E-3,628.096962E-3
820.634651E-3,628.132439E-3
820.283318E-3,627.972794E-3
819.987488E-3,627.847481E-3
819.851303E-3,627.913284E-3
819.458199E-3,627.534485E-3
819.385529E-3,627.579117E-3
819.195557E-3,627.571678E-3
818.927765E-3,627.301025E-3
819.082832E-3,627.590561E-3
818.743515E-3,627.387428E-3
818.650246E-3,627.325630E-3
818.503189E-3,627.357674E-3
818.011093E-3,627.026367E-3
817.971039E-3,627.234650E-3
817.519569E-3,626.843834E-3
817.314148E-3,626.886177E-3
817.104721E-3,626.839828E-3
816.779137E-3,626.508522E-3
816.819763E-3,626.644707E-3
816.436386E-3,626.475334E-3
816.341400E-3,626.513100E-3
816.103935E-3,626.388359E-3
815.693092E-3,626.151466E-3
815.769196E-3,626.363182E-3
815.246773E-3,626.099396E-3
814.970970E-3,625.934601E-3
814.669991E-3,625.875092E-3
814.199638E-3,625.529480E-3
813.937569E-3,625.554657E-3
813.155937E-3,625.218773E-3
812.683868E-3,624.985313E-3
812.201500E-3,624.946404E-3
811.661911E-3,624.627113E-3
811.581802E-3,624.760437E-3
811.169815E-3,624.509811E-3
811.108017E-3,624.552155E-3
811.284828E-3,624.635124E-3
811.486244E-3,624.566460E-3
812.731361E-3,625.202751E-3
814.534950E-3,625.690842E-3
817.841148E-3,626.810074E-3
822.003937E-3,628.312111E-3
826.548386E-3,629.902267E-3
831.603813E-3,631.838608E-3
835.783195E-3,633.171272E-3
839.404106E-3,634.597206E-3
841.787910E-3,635.573387E-3
842.823601E-3,635.870361E-3
843.284798E-3,636.141014E-3
842.396736E-3,635.765076E-3
841.231728E-3,635.409737E-3
839.600945E-3,634.963989E-3
837.640572E-3,634.222412E-3
836.255836E-3,633.705139E-3
834.584427E-3,632.945251E-3
833.513260E-3,632.669449E-3
832.705307E-3,632.494354E-3
832.003784E-3,632.021141E-3
832.006645E-3,632.322121E-3
831.787491E-3,631.988525E-3
832.114792E-3,632.156754E-3
832.553673E-3,632.379341E-3
832.691002E-3,632.279778E-3
833.138466E-3,632.399368E-3
832.836342E-3,632.221985E-3
832.509613E-3,632.254028E-3
831.766319E-3,631.988525E-3
830.461693E-3,631.483269E-3
829.404831E-3,631.233215E-3
828.020668E-3,630.617523E-3
827.122307E-3,630.315399E-3
826.746941E-3,630.286217E-3
826.354980E-3,629.892540E-3
826.749229E-3,630.180931E-3
826.892853E-3,630.113411E-3
827.454185E-3,630.315971E-3
828.062439E-3,630.585480E-3
828.187752E-3,630.479050E-3
828.657532E-3,630.763435E-3
828.468132E-3,630.681610E-3
828.372002E-3,630.700493E-3
828.112793E-3,630.678177E-3
827.457619E-3,630.228424E-3
827.153778E-3,630.198097E-3
826.353836E-3,629.825020E-3
825.788498E-3,629.716301E-3
825.201988E-3,629.664803E-3
824.376869E-3,629.157257E-3
823.924255E-3,629.125214E-3
823.191833E-3,628.774452E-3
822.753525E-3,628.589058E-3
822.300911E-3,628.530693E-3
821.788788E-3,628.246880E-3
821.563911E-3,628.252029E-3
820.947075E-3,627.905273E-3
820.575714E-3,627.787399E-3
820.327377E-3,627.725601E-3
819.745445E-3,627.553368E-3
819.565773E-3,627.599144E-3
818.963242E-3,627.204323E-3
818.756104E-3,627.131653E-3
818.681717E-3,627.045822E-3
818.303490E-3,626.875305E-3
818.361282E-3,626.881027E-3
817.874908E-3,626.732826E-3
817.863464E-3,626.684189E-3
817.960739E-3,626.894188E-3
817.506409E-3,626.573181E-3
817.528725E-3,626.687622E-3
817.133904E-3,626.519394E-3
817.091560E-3,626.360893E-3
817.027473E-3,626.473618E-3
816.629219E-3,626.225281E-3
816.699028E-3,626.292801E-3
816.368294E-3,626.039886E-3
816.176033E-3,626.094246E-3
816.040421E-3,626.053619E-3
815.686226E-3,625.835609E-3
815.715981E-3,626.003265E-3
815.262222E-3,625.761795E-3
815.108871E-3,625.778961E-3
815.075684E-3,625.848198E-3
814.682007E-3,625.536919E-3
814.739799E-3,625.611877E-3
814.325523E-3,625.435066E-3
814.246559E-3,625.384712E-3
814.320374E-3,625.468826E-3
813.868332E-3,625.115204E-3
813.935852E-3,625.407028E-3
813.541603E-3,625.072289E-3
813.332748E-3,625.073433E-3
813.187408E-3,625.124359E-3
812.520790E-3,624.670029E-3
812.422371E-3,624.904060E-3
811.790657E-3,624.509811E-3
811.362076E-3,624.325562E-3
811.015892E-3,624.215698E-3
810.363579E-3,623.846626E-3
810.346413E-3,624.026871E-3
810.068893E-3,623.810577E-3
810.178757E-3,623.919868E-3
810.815620E-3,624.125290E-3
811.862755E-3,624.397087E-3
814.433670E-3,625.538635E-3
817.737579E-3,626.585770E-3
822.129822E-3,628.177643E-3
827.099991E-3,629.956627E-3
831.658745E-3,631.578827E-3
836.354256E-3,633.183861E-3
839.526558E-3,634.261894E-3
841.881180E-3,635.211182E-3
843.145180E-3,635.651207E-3
843.002129E-3,635.491562E-3
842.425919E-3,635.583115E-3
840.973091E-3,634.932518E-3
839.341736E-3,634.390068E-3
837.720108E-3,633.930588E-3
835.834122E-3,633.147240E-3
834.696579E-3,632.924080E-3
833.382225E-3,632.292366E-3
832.546234E-3,632.019424E-3
832.249832E-3,632.033157E-3
831.776047E-3,631.607437E-3
832.105637E-3,631.892395E-3
832.205772E-3,631.868935E-3
832.692719E-3,632.029152E-3
833.266640E-3,632.219124E-3
833.353043E-3,632.162476E-3
833.614540E-3,632.346153E-3
833.240891E-3,632.060623E-3
832.713318E-3,631.930733E-3
831.745148E-3,631.640053E-3
830.164146E-3,630.942535E-3
829.203415E-3,630.651855E-3
827.893639E-3,630.186653E-3
827.330589E-3,629.973793E-3
827.148056E-3,629.886246E-3
826.860237E-3,629.653358E-3
827.367210E-3,630.086517E-3
827.677345E-3,629.976082E-3
828.111649E-3,630.166626E-3
828.610039E-3,630.498505E-3
828.563690E-3,630.438995E-3
829.060364E-3,630.521965E-3
828.713608E-3,630.380058E-3
828.454399E-3,630.263329E-3
828.269005E-3,630.404091E-3
827.529144E-3,629.925728E-3
827.252197E-3,629.919434E-3
826.552391E-3,629.626465E-3
826.025963E-3,629.505730E-3
825.618553E-3,629.522324E-3
824.731064E-3,628.900337E-3
824.384880E-3,628.936386E-3
823.734283E-3,628.645706E-3
823.272514E-3,628.617668E-3
823.124886E-3,628.470612E-3
822.333527E-3,627.972794E-3
822.122955E-3,628.066063E-3
821.656609E-3,627.859497E-3
821.341896E-3,627.844620E-3
821.153069E-3,627.845764E-3
820.513916E-3,627.358818E-3
820.519638E-3,627.508163E-3
820.153999E-3,627.331924E-3
819.982910E-3,627.355385E-3
819.923973E-3,627.492714E-3
819.397545E-3,627.116776E-3
819.444466E-3,627.210617E-3
819.197273E-3,627.159119E-3
819.059944E-3,627.007484E-3
819.121742E-3,627.066994E-3
818.685150E-3,626.884460E-3
818.820190E-3,627.093887E-3
818.650818E-3,626.800346E-3
818.539810E-3,626.858139E-3
818.597603E-3,626.914787E-3
818.112946E-3,626.583481E-3
818.166161E-3,626.699066E-3
817.821693E-3,626.505661E-3
817.681503E-3,626.582909E-3
817.764473E-3,626.665878E-3
817.259789E-3,626.233864E-3
817.310715E-3,626.299667E-3
816.863823E-3,626.075363E-3
816.598892E-3,626.067924E-3
816.548538E-3,626.184654E-3
816.117096E-3,625.813866E-3
816.255569E-3,625.944328E-3
815.925407E-3,625.772095E-3
815.741158E-3,625.761223E-3
815.658760E-3,625.837326E-3
815.163231E-3,625.527191E-3
815.229034E-3,625.622177E-3
814.955521E-3,625.407600E-3
814.608765E-3,625.321198E-3
814.351845E-3,625.393867E-3
813.672638E-3,624.932098E-3
813.587952E-3,624.961853E-3
813.242912E-3,624.945259E-3
812.919044E-3,624.763870E-3
812.739372E-3,624.712944E-3
811.993217E-3,624.326706E-3
812.093353E-3,624.551582E-3
812.022972E-3,624.386215E-3
812.131119E-3,624.494362E-3
812.440109E-3,624.608231E-3
813.024330E-3,624.654579E-3
815.048790E-3,625.580406E-3
818.131828E-3,626.667595E-3
822.304916E-3,628.098106E-3
827.125168E-3,629.944611E-3
831.673050E-3,631.458664E-3
836.247826E-3,633.181000E-3
839.679909E-3,634.352875E-3
842.024803E-3,635.250664E-3
843.455887E-3,635.872078E-3
843.345451E-3,635.753059E-3
842.695999E-3,635.721016E-3
841.109276E-3,635.138512E-3
839.517403E-3,634.488487E-3
837.801933E-3,634.013557E-3
835.712242E-3,633.048248E-3
834.574127E-3,632.757568E-3
833.151054E-3,632.243729E-3
832.095909E-3,631.898117E-3
831.615829E-3,631.780243E-3
831.112862E-3,631.529617E-3
831.362343E-3,631.868935E-3
831.580925E-3,631.745338E-3
831.848145E-3,631.756783E-3
832.357979E-3,632.134438E-3
832.250977E-3,631.922150E-3
832.546806E-3,632.065201E-3
832.038116E-3,631.862068E-3
831.194115E-3,631.501579E-3
830.220222E-3,631.307602E-3
828.809738E-3,630.631828E-3
827.897072E-3,630.373192E-3
827.148056E-3,630.026436E-3
826.867104E-3,629.751205E-3
827.116013E-3,629.956627E-3
827.193260E-3,630.014992E-3
827.969742E-3,630.334854E-3
828.563118E-3,630.600929E-3
829.066658E-3,630.523109E-3
829.564476E-3,630.929375E-3
829.566193E-3,630.756569E-3
829.754448E-3,630.964279E-3
829.421997E-3,630.879593E-3
828.945351E-3,630.710793E-3
828.643227E-3,630.588341E-3
827.870750E-3,630.236435E-3
827.590370E-3,630.263901E-3
826.892853E-3,630.013847E-3
826.138115E-3,629.755783E-3
825.562477E-3,629.616165E-3
824.708176E-3,629.086876E-3
824.294472E-3,629.187012E-3
823.646164E-3,628.891754E-3
823.093414E-3,628.610802E-3
822.702026E-3,628.575325E-3
822.127533E-3,628.244591E-3
822.111511E-3,628.270912E-3
821.607971E-3,628.203964E-3
821.225166E-3,627.916145E-3
820.969391E-3,627.946472E-3
820.405197E-3,627.545929E-3
820.318794E-3,627.717590E-3
819.991493E-3,627.674675E-3
819.600677E-3,627.449226E-3
819.593239E-3,627.435493E-3
818.994141E-3,627.092743E-3
818.980980E-3,627.163696E-3
818.700027E-3,627.038383E-3
818.428802E-3,626.968575E-3
818.377876E-3,627.083588E-3
818.133545E-3,626.774025E-3
818.203354E-3,626.855850E-3
817.965889E-3,626.689339E-3
817.687798E-3,626.569176E-3
817.722130E-3,626.708794E-3
817.239761E-3,626.366615E-3
817.280960E-3,626.475334E-3
816.848946E-3,626.269341E-3
816.435242E-3,626.200104E-3
816.371727E-3,626.185799E-3
816.106796E-3,625.946045E-3
816.030693E-3,626.053619E-3
815.619278E-3,625.895691E-3
815.374947E-3,625.749779E-3
815.311432E-3,625.791550E-3
815.004730E-3,625.373268E-3
814.952660E-3,625.503731E-3
814.607048E-3,625.337219E-3
814.153862E-3,625.155258E-3
813.801956E-3,625.118065E-3
813.074684E-3,624.676323E-3
812.783432E-3,624.725533E-3
812.212372E-3,624.459457E-3
811.483955E-3,624.208832E-3
811.337471E-3,624.306679E-3
810.719490E-3,623.866653E-3
810.620499E-3,623.921585E-3
810.515785E-3,623.810005E-3
810.442543E-3,623.684120E-3
810.964394E-3,624.023437E-3
811.643600E-3,624.248886E-3
813.814545E-3,625.062561E-3
816.817474E-3,626.157188E-3
820.908737E-3,627.477837E-3
825.725555E-3,629.361534E-3
830.240822E-3,630.809784E-3
834.726334E-3,632.543564E-3
838.196182E-3,633.719444E-3
840.395164E-3,634.521103E-3
841.714668E-3,635.250664E-3
841.593933E-3,634.987450E-3
841.185379E-3,635.114479E-3
839.860153E-3,634.618950E-3
838.211060E-3,633.832741E-3
836.608887E-3,633.392715E-3
834.725761E-3,632.574463E-3
833.492088E-3,632.262611E-3
832.252693E-3,631.860352E-3
831.385803E-3,631.500435E-3
831.057930E-3,631.538773E-3
830.629921E-3,631.113052E-3
830.766106E-3,631.302452E-3
830.990982E-3,631.454086E-3
831.267929E-3,631.323051E-3
831.771469E-3,631.647491E-3
831.666756E-3,631.505585E-3
831.784058E-3,631.689835E-3
831.360054E-3,631.598854E-3
830.585861E-3,631.171989E-3
829.681778E-3,630.889320E-3
828.129387E-3,630.210686E-3
827.080536E-3,629.977798E-3
826.018524E-3,629.485703E-3
825.355911E-3,629.150963E-3
825.388527E-3,629.344940E-3
825.367928E-3,629.225922E-3
825.865173E-3,629.400444E-3
826.363564E-3,629.516602E-3
826.793861E-3,629.675674E-3
827.432442E-3,630.071640E-3
827.426720E-3,629.784393E-3
827.635002E-3,630.005836E-3
827.554321E-3,629.945183E-3
827.044487E-3,629.644203E-3
826.873398E-3,629.746628E-3
826.007080E-3,629.411888E-3
825.667763E-3,629.287720E-3
825.000572E-3,629.027367E-3
824.206352E-3,628.662300E-3
823.731422E-3,628.637695E-3
822.866821E-3,628.278351E-3
822.483444E-3,628.186226E-3
821.831131E-3,627.849770E-3
821.233177E-3,627.652931E-3
821.029472E-3,627.710152E-3
820.396042E-3,627.347374E-3
820.119095E-3,627.354813E-3
819.815254E-3,627.153397E-3
819.286537E-3,626.974297E-3
819.116020E-3,626.986885E-3
818.593025E-3,626.527977E-3
818.435097E-3,626.605797E-3
818.076897E-3,626.389503E-3
817.648888E-3,626.256752E-3
817.683792E-3,626.426697E-3
817.236900E-3,626.079369E-3
817.307281E-3,626.116562E-3
817.047501E-3,626.029587E-3
816.843224E-3,625.819588E-3
816.983986E-3,625.981522E-3
816.589737E-3,625.774956E-3
816.609192E-3,625.845909E-3
816.452980E-3,625.695419E-3
816.280174E-3,625.558090E-3
816.367722E-3,625.699425E-3
815.887070E-3,625.542641E-3
815.868187E-3,625.589561E-3
815.633583E-3,625.524330E-3
815.299988E-3,625.230217E-3
815.332031E-3,625.437927E-3
814.843369E-3,625.146103E-3
814.735794E-3,625.118065E-3
814.445686E-3,625.018501E-3
814.073181E-3,624.783897E-3
814.152145E-3,624.975014E-3
813.610840E-3,624.615097E-3
813.578796E-3,624.685478E-3
813.414574E-3,624.639702E-3
813.210869E-3,624.405670E-3
813.185120E-3,624.687767E-3
812.822914E-3,624.561882E-3
812.778282E-3,624.607086E-3
812.572861E-3,624.529839E-3
812.215233E-3,624.238586E-3
812.409210E-3,624.384499E-3
811.850739E-3,624.093246E-3
811.685371E-3,624.161911E-3
811.292839E-3,623.895836E-3
810.881424E-3,623.787689E-3
810.687447E-3,623.806000E-3
810.005951E-3,623.390579E-3
809.727859E-3,623.479271E-3
809.326744E-3,623.172569E-3
808.930779E-3,622.980309E-3
809.220314E-3,623.267555E-3
809.189415E-3,623.149109E-3
809.963036E-3,623.390579E-3
811.411858E-3,623.966789E-3
813.905525E-3,624.797058E-3
817.989349E-3,626.466179E-3
822.447395E-3,627.956200E-3
827.587509E-3,629.798126E-3
832.337379E-3,631.450081E-3
836.238670E-3,632.733536E-3
839.574623E-3,634.079933E-3
841.160202E-3,634.620667E-3
842.051125E-3,635.017776E-3
841.702652E-3,634.904480E-3
840.460396E-3,634.345436E-3
839.272499E-3,634.152031E-3
837.289238E-3,633.287430E-3
835.727119E-3,632.856560E-3
834.166718E-3,632.236862E-3
832.606888E-3,631.569672E-3
831.938553E-3,631.445503E-3
831.072235E-3,630.981445E-3
830.824471E-3,631.044388E-3
830.852509E-3,630.908203E-3
830.775261E-3,630.784035E-3
831.545448E-3,631.266975E-3
831.715393E-3,631.138802E-3
832.301903E-3,631.364250E-3
832.538795E-3,631.583977E-3
832.474136E-3,631.509590E-3
832.577133E-3,631.690979E-3
831.666756E-3,631.184006E-3
830.670547E-3,630.952835E-3
829.337311E-3,630.373192E-3
827.754021E-3,629.730034E-3
826.968384E-3,629.608727E-3
826.107216E-3,629.144669E-3
825.956154E-3,629.086876E-3
825.903511E-3,629.034233E-3
826.080894E-3,628.973007E-3
826.770401E-3,629.392433E-3
826.868248E-3,629.260254E-3
827.186966E-3,629.343796E-3
827.407837E-3,629.478836E-3
827.402687E-3,629.322624E-3
827.593803E-3,629.583549E-3
827.133751E-3,629.302025E-3
826.800156E-3,629.267120E-3
826.288605E-3,629.099464E-3
825.533867E-3,628.666878E-3
825.338173E-3,628.789330E-3
824.576569E-3,628.316689E-3
824.177742E-3,628.207397E-3
823.592377E-3,628.123283E-3
822.908020E-3,627.829742E-3
822.612762E-3,627.889252E-3
822.052002E-3,627.473831E-3
821.767616E-3,627.474403E-3
821.438026E-3,627.368546E-3
820.988274E-3,627.191734E-3
820.901871E-3,627.299881E-3
820.269585E-3,626.863861E-3
820.109367E-3,626.917648E-3
819.851303E-3,626.947975E-3
819.455910E-3,626.736832E-3
819.482231E-3,626.747131E-3
818.979836E-3,626.544571E-3
818.912888E-3,626.495361E-3
818.851089E-3,626.447296E-3
818.552971E-3,626.192093E-3
818.720627E-3,626.422691E-3
818.499756E-3,626.155472E-3
818.484879E-3,626.314545E-3
818.409920E-3,626.379776E-3
818.089485E-3,626.133728E-3
818.304634E-3,626.319695E-3
818.016815E-3,626.129150E-3
818.051720E-3,626.263618E-3
817.932129E-3,626.224136E-3
817.718697E-3,626.006126E-3
817.854881E-3,626.271629E-3
817.540169E-3,626.005554E-3
817.500687E-3,626.006126E-3
817.338181E-3,625.975800E-3
816.979980E-3,625.786972E-3
816.985130E-3,625.915146E-3
816.432381E-3,625.572395E-3
816.263008E-3,625.584412E-3
816.094208E-3,625.671387E-3
815.783501E-3,625.375557E-3
815.765190E-3,625.455093E-3
815.244484E-3,625.243378E-3
815.176392E-3,625.290871E-3
815.183258E-3,625.286865E-3
814.877129E-3,625.236511E-3
815.084267E-3,625.350380E-3
814.750671E-3,625.122070E-3
814.659691E-3,625.064850E-3
814.613342E-3,625.163841E-3
814.176178E-3,624.872589E-3
814.227676E-3,625.014496E-3
813.826561E-3,624.750710E-3
813.710403E-3,624.767876E-3
813.476372E-3,624.766159E-3
813.036919E-3,624.504089E-3
812.949371E-3,624.527550E-3
812.446404E-3,624.086380E-3
812.148857E-3,624.161911E-3
811.993790E-3,624.269485E-3
811.515427E-3,624.011993E-3
811.626434E-3,624.129868E-3
811.339188E-3,623.935890E-3
811.507988E-3,623.943329E-3
812.223244E-3,624.398232E-3
813.617134E-3,624.686623E-3
816.521645E-3,625.792694E-3
819.961166E-3,626.891899E-3
824.517059E-3,628.613091E-3
829.435730E-3,630.512810E-3
833.892632E-3,632.036018E-3
837.808800E-3,633.598709E-3
840.351677E-3,634.474182E-3
841.905212E-3,634.985161E-3
842.479706E-3,635.270119E-3
841.806221E-3,634.988022E-3
840.737343E-3,634.913063E-3
839.138031E-3,634.059334E-3
837.384796E-3,633.579254E-3
835.723114E-3,633.061409E-3
833.948708E-3,632.381630E-3
832.781982E-3,631.980515E-3
831.595802E-3,631.359673E-3
831.095695E-3,631.403160E-3
830.877113E-3,631.345367E-3
830.818176E-3,631.121635E-3
831.164932E-3,631.333351E-3
831.249619E-3,631.323624E-3
831.683350E-3,631.383133E-3
831.958008E-3,631.597137E-3
831.870461E-3,631.479836E-3
831.873894E-3,631.753922E-3
830.942917E-3,631.240082E-3
830.062866E-3,630.902481E-3
828.937912E-3,630.552292E-3
827.455902E-3,629.914856E-3
826.780128E-3,629.752350E-3
825.988197E-3,629.387283E-3
825.796509E-3,629.312897E-3
826.123810E-3,629.508018E-3
826.346970E-3,629.367256E-3
827.028465E-3,629.858780E-3
827.392960E-3,629.823875E-3
827.879906E-3,630.113411E-3
828.233528E-3,630.378342E-3
827.994347E-3,630.055046E-3
828.091049E-3,630.250168E-3
827.556610E-3,630.022430E-3
827.055931E-3,629.903412E-3
826.562691E-3,629.752922E-3
825.767899E-3,629.305458E-3
825.199699E-3,629.350662E-3
824.411774E-3,628.869438E-3
823.797226E-3,628.680038E-3
823.324013E-3,628.657150E-3
822.581863E-3,628.130722E-3
822.074890E-3,628.095818E-3
821.397972E-3,627.745628E-3
821.032333E-3,627.718163E-3
820.662689E-3,627.627754E-3
819.970894E-3,627.240944E-3
819.727135E-3,627.372551E-3
819.174957E-3,626.930237E-3
818.860245E-3,626.758575E-3
818.540382E-3,626.825523E-3
817.999649E-3,626.391220E-3
817.943573E-3,626.411247E-3
817.451477E-3,626.259613E-3
817.071533E-3,626.088524E-3
816.910172E-3,626.127434E-3
816.494751E-3,625.742340E-3
816.573715E-3,625.888824E-3
816.139984E-3,625.565529E-3
815.903091E-3,625.522041E-3
815.768051E-3,625.489998E-3
815.300560E-3,625.273705E-3
815.417290E-3,625.378418E-3
815.089417E-3,625.181007E-3
815.002441E-3,625.150681E-3
814.945221E-3,625.306320E-3
814.579010E-3,624.899483E-3
814.698029E-3,625.132942E-3
814.347267E-3,624.913216E-3
814.184761E-3,624.769020E-3
813.918686E-3,624.816513E-3
813.372231E-3,624.553299E-3
813.388252E-3,624.655151E-3
812.972832E-3,624.326706E-3
812.796021E-3,624.403381E-3
812.702179E-3,624.461746E-3
812.251282E-3,624.149323E-3
812.269592E-3,624.315834E-3
811.981201E-3,624.063492E-3
811.768913E-3,623.955917E-3
811.862183E-3,624.206543E-3
811.380386E-3,623.871231E-3
811.386108E-3,623.997688E-3
810.981560E-3,623.642349E-3
810.795593E-3,623.639488E-3
810.625648E-3,623.609734E-3
809.959602E-3,623.130226E-3
809.766769E-3,623.197746E-3
809.144783E-3,623.047256E-3
808.915901E-3,622.863007E-3
808.643532E-3,622.899055E-3
808.067894E-3,622.451591E-3
808.103943E-3,622.658157E-3
807.834435E-3,622.576904E-3
808.051300E-3,622.653008E-3
808.504486E-3,622.862434E-3
809.152794E-3,622.900772E-3
811.202431E-3,623.756790E-3
814.278603E-3,624.784470E-3
818.473434E-3,626.383781E-3
823.367500E-3,628.408813E-3
828.009224E-3,629.869080E-3
832.624054E-3,631.712723E-3
