Notes :


2023-11-26 ¿ÀÀü 12:43:39
Volts
Ch : LED 2,Ch : LED 3,
159.263420E-3,167.697144E-3
159.881401E-3,168.768883E-3
159.693718E-3,168.959999E-3
159.933472E-3,169.565392E-3
159.811592E-3,169.621468E-3
159.902573E-3,169.799423E-3
159.897995E-3,169.734764E-3
159.689713E-3,169.183731E-3
159.470558E-3,169.066429E-3
159.401321E-3,168.696213E-3
159.440804E-3,168.459320E-3
159.586716E-3,168.376350E-3
159.565544E-3,168.137741E-3
159.755516E-3,168.487358E-3
159.629631E-3,168.504524E-3
159.787560E-3,168.837547E-3
159.956932E-3,169.271851E-3
160.338593E-3,169.929314E-3
160.382080E-3,170.435143E-3
160.280228E-3,170.645714E-3
160.512543E-3,171.157265E-3
160.695076E-3,171.683693E-3
160.833549E-3,172.012138E-3
161.107635E-3,172.519112E-3
161.068726E-3,172.694206E-3
161.221504E-3,173.178291E-3
160.865021E-3,173.545074E-3
161.103058E-3,173.459816E-3
161.355400E-3,173.769951E-3
161.323929E-3,173.822594E-3
161.472130E-3,173.980522E-3
161.615753E-3,174.062347E-3
161.520195E-3,174.119568E-3
161.557961E-3,174.220276E-3
161.563110E-3,174.117851E-3
161.566544E-3,173.906136E-3
161.666107E-3,174.339294E-3
161.508179E-3,174.080086E-3
161.651802E-3,174.325562E-3
161.486435E-3,174.333000E-3
161.536789E-3,174.395943E-3
161.680984E-3,174.425125E-3
161.539078E-3,174.454880E-3
161.652374E-3,174.712944E-3
161.116219E-3,174.557877E-3
161.519623E-3,174.835968E-3
161.716461E-3,175.158691E-3
161.687279E-3,175.080872E-3
161.906433E-3,175.339508E-3
161.799431E-3,175.465393E-3
161.956215E-3,175.590134E-3
162.040329E-3,175.762367E-3
161.991692E-3,175.772667E-3
162.298965E-3,176.494217E-3
162.198830E-3,176.276207E-3
162.320137E-3,176.462746E-3
162.304687E-3,176.578331E-3
162.323570E-3,176.643562E-3
162.502098E-3,176.940536E-3
162.412262E-3,176.949120E-3
162.719536E-3,177.061844E-3
162.692642E-3,177.327919E-3
162.488365E-3,177.206612E-3
162.602806E-3,177.363968E-3
162.464333E-3,177.311897E-3
162.582779E-3,177.508163E-3
162.756157E-3,177.649498E-3
162.652588E-3,177.803421E-3
162.807655E-3,177.985382E-3
162.799072E-3,177.770805E-3
162.938690E-3,178.299522E-3
163.088608E-3,178.559875E-3
163.140106E-3,178.670311E-3
163.294029E-3,179.124069E-3
163.315773E-3,179.129791E-3
163.367844E-3,179.249382E-3
163.367844E-3,179.510880E-3
163.193321E-3,179.217911E-3
163.759804E-3,178.796196E-3
163.140678E-3,178.648567E-3
162.774467E-3,177.794838E-3
162.208557E-3,176.233292E-3
161.256409E-3,174.142456E-3
160.401535E-3,171.696854E-3
159.497452E-3,168.972015E-3
158.797073E-3,166.559601E-3
158.227730E-3,164.679909E-3
157.854652E-3,163.398170E-3
157.626343E-3,162.220001E-3
157.394028E-3,161.520195E-3
157.467270E-3,161.537361E-3
157.692719E-3,162.066078E-3
157.768250E-3,162.624550E-3
158.197403E-3,163.580132E-3
158.345032E-3,164.423561E-3
158.600235E-3,165.232658E-3
158.994484E-3,166.303253E-3
158.994484E-3,166.575050E-3
159.182739E-3,166.971016E-3
159.111214E-3,167.037392E-3
159.226227E-3,167.219353E-3
159.243393E-3,167.049980E-3
159.166145E-3,166.829109E-3
159.255409E-3,166.849136E-3
159.102058E-3,166.797066E-3
159.312630E-3,167.390442E-3
159.443092E-3,167.956924E-3
159.607887E-3,168.487358E-3
159.852219E-3,169.242096E-3
159.857368E-3,169.444656E-3
159.921455E-3,169.585419E-3
159.998703E-3,169.603729E-3
159.684563E-3,169.426918E-3
159.881401E-3,169.260979E-3
159.724045E-3,168.955421E-3
159.734917E-3,168.615532E-3
159.712029E-3,168.382645E-3
159.591293E-3,168.203545E-3
159.674835E-3,168.215561E-3
159.715462E-3,168.228722E-3
159.858513E-3,168.627548E-3
160.352325E-3,169.209480E-3
160.216713E-3,169.512177E-3
160.432434E-3,170.128441E-3
160.419273E-3,170.464325E-3
160.689926E-3,171.055412E-3
160.970879E-3,171.522903E-3
161.029243E-3,171.825600E-3
161.369705E-3,172.465897E-3
161.244392E-3,172.755432E-3
161.585999E-3,173.314476E-3
161.573410E-3,173.442650E-3
161.480141E-3,173.497581E-3
161.708450E-3,173.779678E-3
161.640930E-3,173.811722E-3
161.771965E-3,174.084091E-3
161.759949E-3,174.284363E-3
161.695290E-3,174.129868E-3
161.787987E-3,174.219704E-3
161.504745E-3,174.147606E-3
161.820030E-3,174.373055E-3
161.741638E-3,174.533272E-3
161.738777E-3,174.418831E-3
161.936760E-3,174.566460E-3
161.885262E-3,174.600220E-3
162.015724E-3,174.684334E-3
162.052345E-3,174.718094E-3
161.964798E-3,174.707794E-3
162.363052E-3,174.465752E-3
162.158775E-3,174.743271E-3
162.210274E-3,175.032806E-3
162.241173E-3,175.313759E-3
162.154770E-3,175.243950E-3
162.347031E-3,175.556946E-3
162.297249E-3,175.617599E-3
162.405968E-3,175.969505E-3
162.573624E-3,176.165199E-3
162.660027E-3,176.315689E-3
162.731552E-3,176.552010E-3
162.647438E-3,176.505661E-3
162.856865E-3,176.872444E-3
162.892914E-3,177.031517E-3
162.812233E-3,177.098465E-3
163.069153E-3,177.390289E-3
162.987900E-3,177.561378E-3
163.092041E-3,177.688980E-3
163.175011E-3,178.269768E-3
163.109779E-3,178.023720E-3
163.283730E-3,178.178787E-3
163.242531E-3,178.151321E-3
163.389015E-3,178.152466E-3
163.447952E-3,178.476334E-3
163.311768E-3,178.324127E-3
163.889694E-3,178.677177E-3
163.636780E-3,178.719521E-3
163.673973E-3,178.923798E-3
163.744354E-3,179.230499E-3
163.667679E-3,179.302025E-3
163.959503E-3,179.689980E-3
163.890266E-3,179.754639E-3
163.938904E-3,179.950333E-3
164.027023E-3,179.927444E-3
163.672256E-3,179.667091E-3
164.065933E-3,180.143166E-3
163.958359E-3,180.213547E-3
164.027596E-3,179.976082E-3
163.940048E-3,179.782104E-3
163.397598E-3,178.597069E-3
162.928963E-3,177.171707E-3
162.095833E-3,175.052261E-3
161.296463E-3,172.804642E-3
160.122871E-3,170.262337E-3
159.525490E-3,168.069649E-3
159.031677E-3,166.350746E-3
158.731842E-3,164.878464E-3
158.621407E-3,164.049911E-3
158.636856E-3,163.771248E-3
158.657455E-3,163.862228E-3
158.955574E-3,164.497375E-3
159.060860E-3,165.116501E-3
159.553528E-3,165.891838E-3
159.764099E-3,166.910362E-3
159.769821E-3,167.563248E-3
160.153198E-3,168.449020E-3
160.122299E-3,168.855286E-3
160.316277E-3,169.255829E-3
160.398674E-3,169.551659E-3
160.306549E-3,169.565964E-3
160.447884E-3,169.722748E-3
159.980965E-3,169.569969E-3
160.194969E-3,169.670677E-3
160.471344E-3,169.999695E-3
160.557175E-3,170.407677E-3
160.934258E-3,171.216202E-3
161.017799E-3,171.535492E-3
161.129379E-3,171.901703E-3
161.057854E-3,172.004128E-3
160.885620E-3,171.676826E-3
160.785484E-3,171.689415E-3
160.464478E-3,170.726395E-3
160.362625E-3,170.213127E-3
160.232162E-3,169.940758E-3
160.094833E-3,169.354248E-3
160.134315E-3,169.418907E-3
159.974098E-3,169.024086E-3
159.622192E-3,169.141960E-3
159.998131E-3,169.485283E-3
160.103416E-3,169.753075E-3
160.398102E-3,170.336723E-3
160.564041E-3,170.760155E-3
160.768318E-3,171.382713E-3
161.103058E-3,172.012138E-3
161.175728E-3,172.443581E-3
161.468697E-3,173.215485E-3
161.029816E-3,172.881317E-3
161.533356E-3,173.645210E-3
161.755943E-3,174.217415E-3
161.697006E-3,174.570465E-3
161.905861E-3,174.860001E-3
161.799431E-3,174.752426E-3
161.920738E-3,175.013924E-3
161.969376E-3,175.141525E-3
161.897278E-3,175.171852E-3
162.481499E-3,175.226212E-3
162.025452E-3,175.243950E-3
161.837769E-3,175.257683E-3
161.915016E-3,175.316620E-3
161.826897E-3,175.284004E-3
161.999130E-3,175.390434E-3
161.793709E-3,175.387001E-3
161.884117E-3,175.489998E-3
161.975098E-3,175.445366E-3
161.587143E-3,175.110054E-3
161.847496E-3,175.403595E-3
161.725044E-3,175.199890E-3
161.846924E-3,175.627899E-3
161.976242E-3,175.776100E-3
161.816025E-3,175.691986E-3
162.127876E-3,175.972366E-3
161.897278E-3,175.953484E-3
162.058640E-3,176.086235E-3
162.340164E-3,176.760292E-3
162.195396E-3,176.573753E-3
162.383080E-3,176.726532E-3
162.334442E-3,176.968575E-3
162.432289E-3,177.061844E-3
162.565613E-3,177.343369E-3
162.450027E-3,177.370834E-3
162.680054E-3,177.627182E-3
162.650871E-3,177.812576E-3
163.128662E-3,178.395081E-3
162.984467E-3,178.156471E-3
162.812805E-3,178.091240E-3
163.019943E-3,178.263474E-3
162.900925E-3,178.377914E-3
162.993050E-3,178.472328E-3
163.100052E-3,178.754997E-3
163.043404E-3,178.677177E-3
163.180733E-3,178.916931E-3
163.199615E-3,178.996468E-3
163.312912E-3,179.251671E-3
163.421631E-3,179.553795E-3
163.316917E-3,179.767799E-3
163.537216E-3,179.973793E-3
163.478851E-3,179.820442E-3
163.594437E-3,179.877663E-3
164.035034E-3,180.734253E-3
163.592720E-3,179.943466E-3
163.585281E-3,179.542351E-3
163.103485E-3,178.602219E-3
162.633705E-3,177.342224E-3
161.957932E-3,175.296021E-3
160.826683E-3,172.782326E-3
160.012436E-3,170.405960E-3
159.248543E-3,167.840767E-3
157.896423E-3,164.757156E-3
157.915878E-3,163.660812E-3
157.344246E-3,162.507248E-3
157.573128E-3,162.191963E-3
157.601166E-3,161.892128E-3
157.857513E-3,162.130737E-3
157.975960E-3,162.943268E-3
158.031464E-3,163.614464E-3
158.434296E-3,164.609528E-3
158.001137E-3,165.148544E-3
158.718109E-3,165.960503E-3
159.083176E-3,166.662025E-3
159.009933E-3,166.829109E-3
159.198189E-3,167.105484E-3
159.202194E-3,167.146683E-3
159.097481E-3,167.078018E-3
158.988762E-3,166.937256E-3
158.892632E-3,166.666031E-3
158.650589E-3,167.374992E-3
158.843422E-3,167.182732E-3
159.056282E-3,167.510605E-3
159.424782E-3,168.233871E-3
159.525490E-3,168.939400E-3
159.888840E-3,169.470978E-3
159.805298E-3,169.516754E-3
159.710312E-3,169.476128E-3
159.758949E-3,169.382858E-3
159.205627E-3,168.745995E-3
159.395599E-3,168.618393E-3
159.274864E-3,168.182373E-3
159.171295E-3,167.879677E-3
159.205627E-3,167.716026E-3
159.027672E-3,167.459106E-3
159.183884E-3,167.830467E-3
159.159851E-3,167.844200E-3
159.194756E-3,168.313408E-3
159.383583E-3,168.781471E-3
159.354401E-3,168.968582E-3
159.597588E-3,169.533920E-3
159.561539E-3,169.939613E-3
159.811020E-3,170.412254E-3
160.129166E-3,170.911217E-3
160.141754E-3,171.304321E-3
160.410118E-3,171.785545E-3
160.383797E-3,172.130585E-3
160.549736E-3,172.470474E-3
160.777473E-3,172.862434E-3
160.703659E-3,173.015213E-3
160.983467E-3,173.343658E-3
160.882759E-3,173.280716E-3
161.045837E-3,173.411179E-3
161.144829E-3,173.664093E-3
160.989189E-3,173.554230E-3
161.091614E-3,173.617744E-3
160.945129E-3,173.500443E-3
160.945129E-3,173.566246E-3
161.093903E-3,173.637772E-3
161.008644E-3,173.506737E-3
161.135101E-3,173.721313E-3
160.990906E-3,173.664093E-3
161.150551E-3,173.752213E-3
160.886192E-3,173.525047E-3
160.874748E-3,173.867798E-3
161.203194E-3,174.061775E-3
161.185455E-3,174.128151E-3
161.268997E-3,174.454880E-3
161.405754E-3,174.577904E-3
161.363983E-3,174.476051E-3
161.544228E-3,174.871445E-3
161.507034E-3,175.039101E-3
161.686134E-3,174.684334E-3
161.706734E-3,175.328064E-3
161.618614E-3,175.345802E-3
161.894989E-3,175.955200E-3
161.812592E-3,175.939178E-3
162.009430E-3,176.107979E-3
162.054062E-3,176.410103E-3
161.947060E-3,176.268196E-3
162.301826E-3,176.516533E-3
161.790848E-3,176.382637E-3
162.085533E-3,176.770020E-3
162.159348E-3,176.842117E-3
162.083244E-3,176.730537E-3
162.269783E-3,177.156830E-3
162.214851E-3,177.131653E-3
162.332153E-3,177.206039E-3
162.395668E-3,177.441788E-3
162.301826E-3,177.461815E-3
162.516403E-3,177.688408E-3
162.432289E-3,177.746201E-3
162.568474E-3,177.997971E-3
162.805939E-3,178.241730E-3
162.726402E-3,178.431702E-3
162.928963E-3,178.650284E-3
162.766457E-3,178.573608E-3
162.372780E-3,178.614235E-3
162.756729E-3,178.720093E-3
162.680626E-3,178.595352E-3
162.814522E-3,178.729820E-3
162.603378E-3,178.078079E-3
162.378502E-3,177.301025E-3
161.753082E-3,175.689697E-3
160.858727E-3,173.388290E-3
159.996986E-3,171.034241E-3
158.995056E-3,168.423271E-3
158.299828E-3,166.095543E-3
157.835197E-3,163.985252E-3
157.196617E-3,162.194252E-3
157.173729E-3,161.273575E-3
156.842422E-3,160.625839E-3
157.015800E-3,160.695648E-3
157.164001E-3,161.160278E-3
157.188606E-3,161.640930E-3
157.813454E-3,162.809944E-3
157.766533E-3,163.463974E-3
158.050919E-3,164.272499E-3
158.248329E-3,165.073013E-3
158.246613E-3,165.418053E-3
158.480644E-3,165.864944E-3
158.391953E-3,165.888977E-3
158.343315E-3,165.817451E-3
158.343315E-3,165.725327E-3
158.367348E-3,165.005493E-3
158.410835E-3,165.235519E-3
158.239174E-3,165.276146E-3
158.303833E-3,165.684700E-3
158.472633E-3,166.303253E-3
158.490372E-3,166.689491E-3
158.969879E-3,167.510033E-3
159.053993E-3,168.001556E-3
159.209061E-3,168.352318E-3
159.126091E-3,168.739128E-3
158.993912E-3,168.386078E-3
159.109497E-3,168.229866E-3
158.962440E-3,167.781830E-3
158.996201E-3,167.607307E-3
158.934402E-3,167.327499E-3
158.905220E-3,167.061424E-3
158.903503E-3,167.173004E-3
158.961296E-3,167.348099E-3
159.096909E-3,167.822456E-3
159.376717E-3,168.180084E-3
159.364128E-3,168.307114E-3
159.599876E-3,169.033813E-3
159.690285E-3,169.289017E-3
159.931755E-3,169.925308E-3
160.175514E-3,170.603371E-3
160.296249E-3,171.126366E-3
160.542870E-3,171.726036E-3
160.554314E-3,171.878242E-3
160.705948E-3,172.333717E-3
160.998917E-3,172.690773E-3
160.879898E-3,172.833824E-3
161.099625E-3,173.094749E-3
161.085320E-3,173.122215E-3
161.228943E-3,173.233795E-3
161.251259E-3,173.918724E-3
161.097336E-3,173.604012E-3
161.235237E-3,173.558807E-3
161.184883E-3,173.487854E-3
161.286736E-3,173.586845E-3
161.380005E-3,173.927879E-3
161.195755E-3,173.611450E-3
161.394882E-3,173.784256E-3
161.286163E-3,173.824310E-3
161.603165E-3,173.605156E-3
161.523628E-3,174.041748E-3
161.388016E-3,174.050903E-3
161.487579E-3,174.257469E-3
161.385155E-3,174.377632E-3
161.464119E-3,174.355888E-3
161.636353E-3,174.638557E-3
161.464691E-3,174.557304E-3
161.729622E-3,174.852562E-3
161.967659E-3,174.430847E-3
161.963081E-3,175.141525E-3
162.027740E-3,175.531769E-3
161.947060E-3,175.502586E-3
162.174225E-3,175.835609E-3
162.107277E-3,175.926018E-3
162.277222E-3,176.224136E-3
162.458611E-3,176.603508E-3
162.354469E-3,176.699638E-3
163.029671E-3,177.466393E-3
162.730408E-3,177.182007E-3
162.715530E-3,177.295876E-3
162.795067E-3,177.474403E-3
162.735558E-3,177.490425E-3
162.942696E-3,177.648926E-3
162.847710E-3,177.781677E-3
162.843704E-3,177.769661E-3
163.026237E-3,177.933311E-3
162.891769E-3,178.299522E-3
163.128662E-3,178.365898E-3
163.068008E-3,178.364754E-3
163.260841E-3,178.485489E-3
163.364410E-3,178.830528E-3
163.304901E-3,178.799057E-3
163.544083E-3,179.029083E-3
163.682556E-3,179.347801E-3
163.692856E-3,179.594994E-3
163.823891E-3,179.744911E-3
163.676834E-3,179.875374E-3
163.850212E-3,180.051041E-3
163.820457E-3,180.103683E-3
163.830185E-3,180.170631E-3
163.895988E-3,179.948044E-3
163.659096E-3,179.558372E-3
163.477135E-3,179.228210E-3
162.720680E-3,177.521896E-3
162.051201E-3,175.465393E-3
161.218643E-3,173.028946E-3
160.170937E-3,170.306969E-3
159.679985E-3,168.086815E-3
159.043121E-3,165.884399E-3
158.715248E-3,164.394951E-3
158.449745E-3,163.607025E-3
158.496666E-3,163.379288E-3
158.532143E-3,163.343811E-3
158.465767E-3,163.478279E-3
158.775902E-3,164.280510E-3
159.047127E-3,165.276718E-3
159.187317E-3,166.100693E-3
159.542656E-3,166.952705E-3
159.683418E-3,167.605019E-3
159.882545E-3,168.165779E-3
160.231018E-3,169.119644E-3
159.996414E-3,169.008064E-3
160.063362E-3,169.044685E-3
160.019302E-3,168.865585E-3
160.066795E-3,168.802643E-3
160.031891E-3,168.851852E-3
159.943199E-3,168.778038E-3
160.214424E-3,169.294739E-3
160.358620E-3,169.784546E-3
160.858727E-3,171.082878E-3
160.776901E-3,171.307755E-3
160.630989E-3,171.179008E-3
160.728264E-3,171.211052E-3
160.446167E-3,170.923805E-3
160.374641E-3,170.583916E-3
160.165787E-3,170.326424E-3
159.871101E-3,169.710159E-3
160.019302E-3,169.436073E-3
159.799576E-3,169.223785E-3
159.876823E-3,168.883324E-3
159.860229E-3,168.936539E-3
159.764099E-3,168.905640E-3
160.009575E-3,169.348526E-3
160.054779E-3,169.735336E-3
160.303688E-3,170.143890E-3
159.988403E-3,170.459175E-3
160.235596E-3,170.979881E-3
160.714531E-3,171.641922E-3
160.797501E-3,172.151184E-3
160.977745E-3,172.596359E-3
161.074448E-3,173.163414E-3
161.080170E-3,173.284149E-3
161.315346E-3,173.717880E-3
161.275291E-3,173.866653E-3
161.653519E-3,174.212265E-3
161.471558E-3,174.425697E-3
161.381721E-3,174.334717E-3
161.520767E-3,174.679756E-3
161.401176E-3,174.510956E-3
161.488724E-3,174.549294E-3
161.558533E-3,174.860001E-3
161.331367E-3,174.667168E-3
161.576843E-3,174.815941E-3
162.040901E-3,175.088882E-3
161.663818E-3,174.993324E-3
161.597443E-3,174.832535E-3
161.402893E-3,174.660301E-3
161.569977E-3,174.957848E-3
161.482430E-3,174.842262E-3
161.533356E-3,174.925804E-3
161.622620E-3,175.090027E-3
161.356544E-3,174.950981E-3
161.875534E-3,175.029945E-3
161.687279E-3,175.216484E-3
161.717033E-3,175.558090E-3
161.825180E-3,175.866508E-3
161.587715E-3,175.818443E-3
161.798859E-3,175.964928E-3
161.795998E-3,176.019859E-3
161.894417E-3,176.309395E-3
162.179375E-3,176.526833E-3
161.771965E-3,176.109695E-3
162.116432E-3,176.683617E-3
162.112427E-3,176.826096E-3
162.203979E-3,177.008057E-3
162.335014E-3,177.318764E-3
162.177086E-3,177.394867E-3
162.385368E-3,177.604866E-3
162.254906E-3,177.675247E-3
162.369919E-3,177.742195E-3
162.535858E-3,177.701569E-3
162.401390E-3,177.856636E-3
162.666893E-3,178.252029E-3
162.642860E-3,178.409958E-3
162.740707E-3,178.644562E-3
162.926674E-3,179.036522E-3
162.819672E-3,179.048538E-3
163.512611E-3,179.556656E-3
163.157272E-3,179.529762E-3
163.128090E-3,179.444504E-3
163.207626E-3,179.470825E-3
162.961578E-3,179.263115E-3
163.073730E-3,179.214478E-3
162.739563E-3,178.595352E-3
162.344742E-3,177.627182E-3
161.679840E-3,176.010132E-3
160.617256E-3,173.874092E-3
159.888840E-3,171.416473E-3
158.926392E-3,168.780899E-3
158.312988E-3,166.153336E-3
157.789993E-3,164.126015E-3
157.271004E-3,162.429428E-3
157.252693E-3,161.649513E-3
156.984901E-3,161.174011E-3
157.200050E-3,161.367416E-3
157.818031E-3,162.248611E-3
157.562828E-3,162.601089E-3
157.553673E-3,163.430786E-3
158.012009E-3,164.233017E-3
158.271790E-3,165.204620E-3
158.561897E-3,165.914154E-3
158.508110E-3,166.413116E-3
158.691216E-3,166.777039E-3
158.719826E-3,166.863441E-3
158.940697E-3,166.859436E-3
158.847427E-3,167.023087E-3
158.551025E-3,166.662598E-3
158.766174E-3,166.721535E-3
158.630562E-3,166.723824E-3
158.751869E-3,167.083168E-3
158.983040E-3,167.619324E-3
159.001350E-3,168.169212E-3
159.440231E-3,169.028664E-3
159.247971E-3,169.342232E-3
159.412193E-3,169.422913E-3
159.519196E-3,169.463539E-3
159.304047E-3,169.143105E-3
159.327507E-3,168.948555E-3
159.100342E-3,168.503380E-3
159.083176E-3,168.272209E-3
159.049416E-3,168.162346E-3
158.857727E-3,167.793274E-3
159.070587E-3,167.670250E-3
159.049988E-3,167.793846E-3
159.133530E-3,168.095398E-3
159.316063E-3,168.616104E-3
159.281158E-3,168.886757E-3
159.558678E-3,169.572830E-3
159.658813E-3,169.869232E-3
159.893417E-3,170.428848E-3
160.133171E-3,171.188164E-3
160.102844E-3,171.414185E-3
160.445023E-3,171.987534E-3
160.512543E-3,172.316551E-3
160.591507E-3,172.590065E-3
160.760307E-3,173.154259E-3
160.597801E-3,173.079300E-3
160.873032E-3,173.411751E-3
160.763741E-3,173.783684E-3
160.885620E-3,173.767662E-3
161.002350E-3,173.966217E-3
160.816956E-3,173.808289E-3
161.013794E-3,173.925591E-3
160.972595E-3,173.851204E-3
160.957146E-3,173.929596E-3
161.016655E-3,174.120712E-3
160.793495E-3,173.920441E-3
161.151695E-3,173.570824E-3
160.961723E-3,173.790550E-3
160.813522E-3,173.962212E-3
160.927391E-3,174.102402E-3
160.870743E-3,174.168777E-3
161.115074E-3,174.440575E-3
160.978317E-3,174.347305E-3
161.116791E-3,174.403954E-3
161.150551E-3,174.718094E-3
161.371994E-3,175.065422E-3
161.343384E-3,174.961281E-3
161.208916E-3,174.821663E-3
161.366844E-3,175.072861E-3
161.477280E-3,175.387001E-3
161.259842E-3,175.356102E-3
161.539650E-3,175.689697E-3
161.508179E-3,175.827599E-3
161.606026E-3,176.101112E-3
161.594009E-3,176.454163E-3
161.510468E-3,176.316833E-3
161.848068E-3,176.747131E-3
161.837769E-3,176.926231E-3
161.975098E-3,177.010918E-3
162.012291E-3,177.127647E-3
161.936188E-3,176.968002E-3
162.066650E-3,177.371979E-3
162.152481E-3,177.366829E-3
162.253761E-3,177.676392E-3
162.394524E-3,177.803993E-3
162.211990E-3,177.698135E-3
162.487793E-3,177.950478E-3
162.436867E-3,178.162766E-3
162.553024E-3,178.347588E-3
162.747574E-3,178.619957E-3
163.102341E-3,178.561020E-3
162.992477E-3,178.915787E-3
162.831116E-3,179.041672E-3
162.771034E-3,179.153252E-3
162.842560E-3,179.141808E-3
162.572479E-3,178.785324E-3
162.550163E-3,178.531837E-3
162.092400E-3,177.398872E-3
161.471558E-3,175.798416E-3
160.365486E-3,173.525620E-3
159.427071E-3,170.839119E-3
158.787346E-3,168.371201E-3
157.996559E-3,165.755081E-3
157.456970E-3,163.728333E-3
157.087898E-3,162.100983E-3
156.616974E-3,160.958862E-3
156.653023E-3,160.511971E-3
156.632423E-3,160.667610E-3
156.282806E-3,161.240959E-3
156.986618E-3,161.846352E-3
156.992912E-3,162.599373E-3
157.510185E-3,163.668251E-3
157.723618E-3,164.287376E-3
157.997131E-3,165.079308E-3
158.270645E-3,165.736771E-3
158.110428E-3,165.941620E-3
158.268356E-3,166.172218E-3
157.846642E-3,165.535355E-3
158.092690E-3,165.982819E-3
158.205986E-3,165.802002E-3
158.012581E-3,165.588570E-3
158.100700E-3,165.634346E-3
158.128166E-3,165.792847E-3
158.353615E-3,166.371346E-3
158.650017E-3,167.139816E-3
158.662605E-3,167.778969E-3
159.358406E-3,167.960358E-3
159.079742E-3,168.272781E-3
159.002495E-3,168.451881E-3
159.053421E-3,168.541145E-3
158.868599E-3,168.184090E-3
159.048271E-3,168.068504E-3
158.801079E-3,167.734909E-3
158.785629E-3,167.628479E-3
158.863449E-3,167.473984E-3
158.379364E-3,166.681480E-3
158.726120E-3,167.362404E-3
158.867455E-3,167.585564E-3
159.027100E-3,167.903709E-3
159.272003E-3,168.642998E-3
159.249687E-3,169.034958E-3
159.655380E-3,169.572258E-3
160.061646E-3,169.943047E-3
160.187531E-3,170.556450E-3
160.349464E-3,171.254539E-3
160.311127E-3,171.487427E-3
160.681915E-3,172.150612E-3
160.743713E-3,172.612381E-3
160.918236E-3,172.969437E-3
161.113358E-3,173.265839E-3
161.051559E-3,173.351097E-3
161.017799E-3,173.849487E-3
161.099625E-3,173.748779E-3
161.249542E-3,173.789406E-3
161.391449E-3,174.027443E-3
161.293030E-3,173.990250E-3
161.461830E-3,174.308968E-3
161.433220E-3,174.169350E-3
161.480713E-3,174.334717E-3
161.632347E-3,174.468613E-3
161.797714E-3,174.080658E-3
161.763382E-3,174.365044E-3
161.559677E-3,174.475479E-3
161.636353E-3,174.727249E-3
161.711884E-3,174.745560E-3
161.587143E-3,174.667740E-3
161.744499E-3,174.942398E-3
161.694145E-3,174.896622E-3
161.820030E-3,175.277138E-3
161.521339E-3,174.976730E-3
161.722755E-3,175.146103E-3
162.022018E-3,175.250816E-3
162.046623E-3,175.512314E-3
162.133598E-3,175.778389E-3
162.338448E-3,176.177216E-3
162.184525E-3,176.213264E-3
162.399673E-3,176.552582E-3
162.424850E-3,176.620674E-3
162.760735E-3,177.127075E-3
162.765312E-3,177.262688E-3
162.629700E-3,177.292442E-3
162.903786E-3,177.606583E-3
162.804794E-3,177.793121E-3
162.980461E-3,177.925301E-3
163.183594E-3,178.030586E-3
162.975883E-3,177.852058E-3
163.068008E-3,178.092957E-3
162.879753E-3,178.284645E-3
163.104630E-3,178.359032E-3
163.354111E-3,178.589058E-3
163.198471E-3,178.512383E-3
163.443947E-3,178.816223E-3
163.500023E-3,179.026222E-3
163.577271E-3,179.212761E-3
163.782120E-3,179.427338E-3
163.526917E-3,179.451942E-3
163.710022E-3,179.837036E-3
163.741493E-3,180.016136E-3
163.845062E-3,180.048180E-3
163.895988E-3,180.251884E-3
163.713455E-3,180.020714E-3
163.693428E-3,180.080795E-3
163.608742E-3,179.671669E-3
163.565254E-3,179.025650E-3
162.935257E-3,177.614021E-3
161.891556E-3,175.401878E-3
161.196327E-3,173.004913E-3
160.242462E-3,170.337296E-3
159.494591E-3,167.893982E-3
159.017372E-3,165.926743E-3
158.466911E-3,164.137459E-3
158.316994E-3,163.329506E-3
158.141899E-3,163.283730E-3
158.216858E-3,163.180161E-3
158.349609E-3,163.528633E-3
158.533287E-3,164.093399E-3
158.933830E-3,165.226364E-3
159.140968E-3,166.005707E-3
159.471130E-3,166.914940E-3
159.781265E-3,167.734337E-3
159.755516E-3,168.457603E-3
159.662819E-3,168.917656E-3
159.859085E-3,169.027519E-3
160.057068E-3,168.996620E-3
160.153198E-3,169.259262E-3
159.950638E-3,169.044685E-3
160.122871E-3,169.298172E-3
160.109138E-3,169.342232E-3
160.247612E-3,169.734192E-3
160.655022E-3,170.434570E-3
160.903931E-3,171.145821E-3
161.030960E-3,171.624756E-3
160.928535E-3,171.772385E-3
160.879898E-3,171.719742E-3
160.912514E-3,171.418762E-3
160.546875E-3,170.934677E-3
160.430717E-3,170.558167E-3
160.235596E-3,169.826889E-3
160.055923E-3,169.366837E-3
160.128021E-3,169.335365E-3
159.848785E-3,168.909073E-3
159.948921E-3,169.103622E-3
159.860229E-3,169.121933E-3
159.987259E-3,169.571686E-3
160.281372E-3,169.899559E-3
160.192680E-3,170.254326E-3
160.580063E-3,170.901489E-3
160.626411E-3,171.335220E-3
160.864449E-3,171.894836E-3
161.077309E-3,172.481346E-3
161.063004E-3,172.840691E-3
161.442947E-3,173.320770E-3
161.364555E-3,173.685265E-3
161.550522E-3,174.049759E-3
161.627769E-3,174.445724E-3
161.095047E-3,174.056625E-3
161.491013E-3,174.493790E-3
161.622047E-3,174.656296E-3
161.670113E-3,174.958420E-3
161.755943E-3,175.106621E-3
161.647224E-3,174.837685E-3
161.775398E-3,175.016212E-3
161.641502E-3,174.866867E-3
161.647797E-3,174.889755E-3
161.896706E-3,174.566460E-3
161.628914E-3,174.833107E-3
161.516190E-3,175.068283E-3
161.539650E-3,175.086021E-3
161.595726E-3,174.980736E-3
161.706734E-3,175.191307E-3
161.508179E-3,175.063133E-3
161.776543E-3,175.226784E-3
161.648369E-3,175.285721E-3
161.316490E-3,174.872017E-3
161.636353E-3,175.308609E-3
161.638069E-3,175.207329E-3
161.887550E-3,175.682259E-3
161.757660E-3,175.849342E-3
161.750221E-3,175.976944E-3
161.897850E-3,176.162338E-3
161.767960E-3,176.156616E-3
162.005997E-3,176.438141E-3
162.365341E-3,176.626968E-3
162.189674E-3,176.877022E-3
162.321281E-3,176.992035E-3
162.177658E-3,177.066994E-3
162.343025E-3,177.241516E-3
162.246323E-3,177.410889E-3
162.373352E-3,177.646637E-3
162.546158E-3,177.816010E-3
162.495232E-3,177.856636E-3
162.935829E-3,177.889824E-3
162.796783E-3,178.213120E-3
162.862587E-3,178.635979E-3
163.066292E-3,178.918648E-3
163.055992E-3,179.036522E-3
163.256836E-3,179.427338E-3
163.184738E-3,179.337502E-3
163.467407E-3,179.367256E-3
163.394165E-3,179.555511E-3
163.114357E-3,179.233360E-3
163.112068E-3,179.032516E-3
162.778473E-3,178.312683E-3
162.162781E-3,177.147675E-3
161.537933E-3,175.100899E-3
160.568047E-3,172.607803E-3
159.758949E-3,170.104408E-3
159.105492E-3,167.873955E-3
158.294678E-3,165.397453E-3
157.833481E-3,163.466835E-3
157.351112E-3,161.955070E-3
157.368279E-3,161.368561E-3
157.228661E-3,161.237526E-3
157.322502E-3,161.465836E-3
157.575417E-3,162.050629E-3
157.637787E-3,162.792778E-3
157.502747E-3,163.646507E-3
157.998276E-3,164.507675E-3
158.229446E-3,165.299606E-3
158.591080E-3,166.160202E-3
158.635139E-3,166.427994E-3
158.844566E-3,166.821098E-3
158.848572E-3,166.830254E-3
158.779335E-3,166.819382E-3
158.765602E-3,166.820526E-3
158.460045E-3,166.016006E-3
158.696365E-3,166.629982E-3
158.698654E-3,166.539001E-3
158.979607E-3,167.186165E-3
159.234810E-3,168.026161E-3
159.250832E-3,168.577766E-3
159.551239E-3,169.179726E-3
159.534645E-3,169.326210E-3
159.547234E-3,169.364548E-3
159.468842E-3,169.277573E-3
159.312630E-3,168.826103E-3
159.417343E-3,168.626976E-3
159.191322E-3,168.309975E-3
159.130669E-3,167.954636E-3
159.132957E-3,167.926025E-3
158.952713E-3,167.705154E-3
159.089470E-3,167.920876E-3
159.107780E-3,167.886543E-3
159.227371E-3,168.460464E-3
159.475136E-3,168.835831E-3
159.480286E-3,168.985748E-3
159.805298E-3,169.563103E-3
159.845924E-3,170.015717E-3
160.064507E-3,170.708656E-3
160.221863E-3,171.124649E-3
160.146332E-3,171.367264E-3
160.561180E-3,171.994400E-3
160.561180E-3,172.274208E-3
160.797501E-3,172.625542E-3
160.886765E-3,173.019791E-3
160.778618E-3,172.956276E-3
161.022949E-3,173.253822E-3
160.943985E-3,173.474693E-3
160.972595E-3,173.492432E-3
161.243820E-3,174.159050E-3
160.938263E-3,173.738480E-3
161.012650E-3,173.693848E-3
161.005211E-3,173.656654E-3
160.984039E-3,173.750496E-3
161.040688E-3,173.839760E-3
160.942841E-3,173.692131E-3
161.081314E-3,173.865509E-3
160.996056E-3,174.036598E-3
161.398888E-3,174.057770E-3
161.278725E-3,174.056053E-3
160.882759E-3,174.074936E-3
161.076164E-3,174.304390E-3
161.111069E-3,174.306107E-3
161.277580E-3,174.372482E-3
161.346817E-3,174.568748E-3
161.251831E-3,174.660301E-3
161.512756E-3,174.933815E-3
161.495590E-3,175.190163E-3
161.614609E-3,175.279999E-3
161.741066E-3,175.583267E-3
161.623192E-3,175.619888E-3
161.726189E-3,176.012421E-3
161.762238E-3,175.937462E-3
161.804008E-3,175.974083E-3
161.998558E-3,176.262474E-3
161.879539E-3,176.424980E-3
162.217140E-3,176.737404E-3
162.122154E-3,176.684189E-3
162.148476E-3,176.748276E-3
162.297249E-3,176.907349E-3
162.179947E-3,176.925659E-3
162.329292E-3,177.178574E-3
162.297821E-3,177.243233E-3
162.370491E-3,177.272415E-3
162.534714E-3,177.538490E-3
162.413406E-3,178.087807E-3
162.658882E-3,178.138733E-3
162.685776E-3,178.227997E-3
162.787056E-3,178.485489E-3
162.867737E-3,178.709221E-3
162.706947E-3,178.599930E-3
162.851715E-3,178.761292E-3
163.141823E-3,178.785896E-3
162.931252E-3,178.486061E-3
162.712097E-3,178.308678E-3
162.136459E-3,177.200890E-3
161.585999E-3,175.546646E-3
160.643005E-3,173.241234E-3
159.751511E-3,170.737267E-3
158.965874E-3,168.218994E-3
157.963371E-3,165.446663E-3
157.494736E-3,163.534927E-3
