Notes :


2023-11-26 ¿ÀÀü 12:07:17
Volts
Ch : LED 2,Ch : LED 3,
267.212105E-3,423.482323E-3
267.222977E-3,423.521233E-3
267.174911E-3,423.668861E-3
267.279053E-3,423.815918E-3
267.028999E-3,423.648262E-3
267.130280E-3,423.593330E-3
266.913986E-3,423.431969E-3
266.238785E-3,422.408867E-3
265.232277E-3,421.170044E-3
263.509941E-3,418.980789E-3
261.871147E-3,416.681671E-3
260.007477E-3,414.140511E-3
258.188438E-3,411.494064E-3
256.921577E-3,409.405518E-3
255.910492E-3,407.563591E-3
255.612373E-3,406.584549E-3
255.456734E-3,406.106758E-3
255.607224E-3,406.173134E-3
256.081009E-3,406.875801E-3
256.308746E-3,407.312393E-3
256.993675E-3,408.340645E-3
257.667160E-3,409.406090E-3
258.291435E-3,410.249519E-3
258.948898E-3,411.310959E-3
259.287071E-3,411.948395E-3
259.901619E-3,412.586403E-3
260.040665E-3,412.768364E-3
260.005760E-3,412.800980E-3
260.153389E-3,412.929153E-3
259.877586E-3,412.962914E-3
259.928513E-3,412.980080E-3
260.222054E-3,413.461304E-3
260.606575E-3,413.988876E-3
261.444283E-3,415.011406E-3
261.958694E-3,415.635681E-3
262.449074E-3,416.326904E-3
262.560654E-3,416.429329E-3
262.370110E-3,416.377831E-3
262.388992E-3,416.233063E-3
262.203598E-3,415.722656E-3
262.088585E-3,415.364456E-3
261.664581E-3,414.933586E-3
261.403084E-3,414.475822E-3
261.357880E-3,414.382553E-3
261.196518E-3,414.130211E-3
261.438560E-3,414.371109E-3
261.565590E-3,414.781380E-3
261.638260E-3,414.859772E-3
262.187004E-3,415.265465E-3
262.256241E-3,415.596771E-3
262.690544E-3,416.248512E-3
262.950325E-3,416.745758E-3
263.205528E-3,417.116547E-3
263.631821E-3,417.745399E-3
263.608360E-3,417.983437E-3
263.793182E-3,418.421173E-3
263.817787E-3,418.575096E-3
263.718224E-3,418.553925E-3
264.083290E-3,419.120407E-3
264.060402E-3,419.216537E-3
264.311600E-3,419.593620E-3
264.313889E-3,419.741249E-3
264.306450E-3,419.810486E-3
264.510155E-3,419.981003E-3
264.494705E-3,420.001030E-3
264.883804E-3,420.399857E-3
265.114975E-3,420.637321E-3
265.308952E-3,420.811844E-3
265.775871E-3,421.379471E-3
266.009331E-3,421.543121E-3
266.643333E-3,422.013474E-3
267.050743E-3,422.173119E-3
267.312813E-3,422.260094E-3
267.555428E-3,422.461510E-3
267.520523E-3,422.360229E-3
267.741966E-3,422.615433E-3
267.779732E-3,422.729874E-3
267.739677E-3,422.729874E-3
267.811775E-3,422.822571E-3
267.419815E-3,422.486115E-3
267.477036E-3,422.620010E-3
267.448425E-3,422.595406E-3
267.419815E-3,422.504997E-3
267.461014E-3,422.745895E-3
267.214394E-3,422.668076E-3
267.308235E-3,422.827721E-3
267.102242E-3,422.834587E-3
266.963196E-3,422.781944E-3
267.218399E-3,423.082924E-3
267.157173E-3,423.153877E-3
267.486763E-3,423.593903E-3
267.469025E-3,423.770142E-3
267.521095E-3,423.884010E-3
267.895317E-3,424.239349E-3
267.956543E-3,424.334908E-3
268.327332E-3,424.708557E-3
268.311310E-3,424.597549E-3
267.952538E-3,424.076271E-3
267.204666E-3,423.088074E-3
265.589905E-3,420.979500E-3
263.920212E-3,418.700981E-3
261.948967E-3,416.055107E-3
260.069847E-3,413.097382E-3
258.649635E-3,410.710144E-3
257.311249E-3,408.399010E-3
256.703568E-3,406.874657E-3
256.305313E-3,405.838966E-3
256.081009E-3,405.421257E-3
256.476402E-3,405.838394E-3
256.595421E-3,406.379128E-3
257.166481E-3,407.280350E-3
257.632256E-3,408.168983E-3
257.960129E-3,408.951187E-3
258.607292E-3,409.959412E-3
258.738899E-3,410.391998E-3
259.002113E-3,410.935020E-3
259.106255E-3,411.210251E-3
258.958054E-3,411.127281E-3
258.932877E-3,411.152458E-3
258.648491E-3,410.832024E-3
258.718300E-3,410.828590E-3
258.609581E-3,410.718727E-3
258.682251E-3,410.791969E-3
259.175491E-3,411.424255E-3
259.493065E-3,411.902618E-3
260.237503E-3,412.831306E-3
260.638046E-3,413.671303E-3
260.832596E-3,414.100456E-3
261.050606E-3,414.547348E-3
260.790825E-3,414.407730E-3
260.906982E-3,414.537621E-3
260.733604E-3,414.285278E-3
260.432053E-3,413.894463E-3
260.275841E-3,413.768005E-3
259.854698E-3,412.999535E-3
259.868431E-3,412.957191E-3
259.781456E-3,412.887383E-3
259.718513E-3,412.987518E-3
259.962273E-3,413.202095E-3
259.905624E-3,413.389206E-3
260.354233E-3,414.031219E-3
260.505867E-3,414.578819E-3
260.747337E-3,415.029144E-3
261.222839E-3,415.838242E-3
261.435699E-3,416.095161E-3
262.026787E-3,416.970062E-3
262.383842E-3,417.245293E-3
262.554359E-3,417.493057E-3
262.924576E-3,417.997742E-3
263.073349E-3,418.197441E-3
263.280487E-3,418.612289E-3
263.408661E-3,418.907547E-3
263.406372E-3,418.957329E-3
263.830376E-3,419.268036E-3
263.836098E-3,419.284058E-3
264.015198E-3,419.580460E-3
263.951111E-3,419.648552E-3
263.912773E-3,419.669151E-3
264.143944E-3,419.878578E-3
263.993454E-3,419.856834E-3
264.138794E-3,419.971848E-3
263.947678E-3,419.952393E-3
263.877869E-3,419.855118E-3
264.078140E-3,419.958115E-3
263.749695E-3,419.845963E-3
263.881302E-3,420.125771E-3
263.839531E-3,420.059967E-3
263.798904E-3,419.993019E-3
264.023781E-3,420.293999E-3
263.858414E-3,420.343208E-3
264.102173E-3,420.640755E-3
264.191437E-3,420.768929E-3
264.249802E-3,420.791817E-3
264.569092E-3,421.104813E-3
264.447212E-3,421.025848E-3
264.682961E-3,421.353722E-3
264.815140E-3,421.490479E-3
264.900398E-3,421.746254E-3
265.130424E-3,422.108459E-3
265.120697E-3,422.066116E-3
265.440559E-3,422.357941E-3
265.505219E-3,422.559929E-3
265.600777E-3,422.688103E-3
265.990448E-3,423.149872E-3
266.048813E-3,423.115540E-3
266.393852E-3,423.667145E-3
266.529465E-3,423.913193E-3
266.667366E-3,423.965263E-3
266.948318E-3,424.342346E-3
266.853905E-3,424.335480E-3
267.015266E-3,424.631310E-3
267.138290E-3,424.636459E-3
267.061615E-3,424.556923E-3
266.974068E-3,424.480820E-3
266.421890E-3,423.795319E-3
265.683174E-3,422.797966E-3
264.067841E-3,420.820999E-3
262.125206E-3,418.172836E-3
260.162544E-3,415.425682E-3
258.000183E-3,412.298012E-3
256.478119E-3,409.607506E-3
255.203247E-3,407.155037E-3
254.162407E-3,405.116272E-3
253.961563E-3,404.215050E-3
253.757286E-3,403.730392E-3
254.176140E-3,404.164696E-3
254.470253E-3,404.781532E-3
254.894829E-3,405.721664E-3
255.659866E-3,406.957626E-3
256.058693E-3,407.781029E-3
256.804848E-3,408.796120E-3
257.073212E-3,409.545135E-3
257.317543E-3,409.849548E-3
257.544708E-3,410.215759E-3
257.363319E-3,410.177994E-3
257.350159E-3,410.174561E-3
257.184219E-3,409.950256E-3
257.015991E-3,409.607506E-3
257.014275E-3,409.720230E-3
256.896400E-3,409.395790E-3
257.175064E-3,409.749985E-3
257.477760E-3,410.268402E-3
257.857704E-3,410.881805E-3
258.416176E-3,411.863708E-3
258.617020E-3,412.565231E-3
259.026146E-3,413.101959E-3
259.081078E-3,413.372040E-3
259.089661E-3,413.405228E-3
259.082794E-3,413.566589E-3
258.725739E-3,413.099098E-3
258.817863E-3,413.160324E-3
258.599854E-3,412.891388E-3
258.563232E-3,412.451363E-3
258.597565E-3,412.650490E-3
258.414459E-3,412.332344E-3
258.795547E-3,412.667656E-3
258.912277E-3,412.946892E-3
259.116554E-3,413.282204E-3
259.502220E-3,413.933945E-3
259.654427E-3,414.375687E-3
260.257530E-3,415.287781E-3
260.611725E-3,415.789032E-3
260.971069E-3,416.179848E-3
261.482048E-3,416.971779E-3
261.681747E-3,417.210388E-3
262.102318E-3,417.570305E-3
262.376976E-3,417.902184E-3
262.508011E-3,418.194008E-3
262.877083E-3,418.552208E-3
262.882233E-3,418.746758E-3
263.168335E-3,419.204521E-3
263.155746E-3,419.176483E-3
263.002968E-3,419.233704E-3
263.310242E-3,419.560432E-3
263.338280E-3,419.607353E-3
263.661003E-3,419.939804E-3
263.647270E-3,419.764709E-3
263.483620E-3,419.690895E-3
263.631248E-3,419.986725E-3
263.480186E-3,419.777870E-3
263.658142E-3,419.918633E-3
263.790321E-3,419.934082E-3
263.689613E-3,420.025635E-3
263.748550E-3,420.173836E-3
263.627815E-3,420.176125E-3
263.924789E-3,420.414734E-3
263.987732E-3,420.483398E-3
264.067268E-3,420.602417E-3
264.333916E-3,421.047592E-3
264.278412E-3,421.039581E-3
264.692116E-3,421.429825E-3
264.771080E-3,421.457291E-3
264.810562E-3,421.658707E-3
265.149879E-3,422.074127E-3
265.240860E-3,422.052383E-3
265.352440E-3,422.381973E-3
265.460587E-3,422.654915E-3
265.607643E-3,422.713852E-3
265.942955E-3,423.145294E-3
265.823364E-3,423.029137E-3
266.114044E-3,423.325539E-3
266.099739E-3,423.303223E-3
266.168404E-3,423.277473E-3
266.443634E-3,423.739815E-3
266.445923E-3,423.626518E-3
266.659355E-3,423.950958E-3
266.686821E-3,424.029922E-3
266.773796E-3,424.271965E-3
267.127419E-3,424.625015E-3
267.230415E-3,424.773216E-3
267.450142E-3,425.062752E-3
267.609215E-3,425.156593E-3
267.609215E-3,425.310516E-3
267.776299E-3,425.534821E-3
267.633247E-3,425.483894E-3
267.899895E-3,425.900459E-3
267.788315E-3,425.574303E-3
267.394066E-3,425.214958E-3
266.632462E-3,424.282265E-3
264.971352E-3,422.157097E-3
263.170052E-3,419.852257E-3
261.049461E-3,416.962624E-3
258.965492E-3,413.816071E-3
257.355881E-3,410.997963E-3
255.730820E-3,408.274841E-3
255.154037E-3,406.616020E-3
254.685974E-3,405.389786E-3
254.587555E-3,404.804420E-3
254.917717E-3,405.041313E-3
255.134010E-3,405.654144E-3
255.790329E-3,406.805992E-3
256.321335E-3,407.920074E-3
256.835175E-3,408.868790E-3
257.595634E-3,409.933090E-3
257.916641E-3,410.824013E-3
258.460808E-3,411.542130E-3
258.494568E-3,411.801338E-3
258.448792E-3,411.833954E-3
258.561516E-3,412.033081E-3
258.328056E-3,411.644554E-3
258.316612E-3,411.487770E-3
258.241081E-3,411.242867E-3
258.310890E-3,411.088943E-3
258.594131E-3,411.599350E-3
258.748055E-3,412.030792E-3
259.415817E-3,412.948036E-3
259.879303E-3,413.722801E-3
260.266685E-3,414.380836E-3
260.606003E-3,414.955330E-3
260.581398E-3,414.940453E-3
260.714149E-3,415.125847E-3
260.606575E-3,414.973640E-3
260.371971E-3,414.474678E-3
260.332489E-3,414.316177E-3
259.934235E-3,413.864708E-3
260.039520E-3,413.800621E-3
259.890175E-3,413.748550E-3
259.907341E-3,413.734818E-3
260.311317E-3,414.365959E-3
260.357666E-3,414.514160E-3
260.840607E-3,415.098381E-3
261.201096E-3,415.566444E-3
261.510086E-3,416.068840E-3
262.120628E-3,416.829300E-3
262.377548E-3,417.106247E-3
262.922859E-3,417.823792E-3
263.239861E-3,418.260384E-3
263.566589E-3,418.469810E-3
263.916779E-3,419.098663E-3
263.895035E-3,419.317818E-3
264.300728E-3,419.758987E-3
264.477539E-3,420.061111E-3
264.647484E-3,420.203590E-3
264.990234E-3,420.549202E-3
264.907265E-3,420.497131E-3
265.082932E-3,420.752907E-3
265.131569E-3,421.028709E-3
265.182495E-3,420.887947E-3
265.443993E-3,420.919991E-3
265.220833E-3,420.885658E-3
265.323830E-3,421.183777E-3
265.310669E-3,421.249580E-3
265.308380E-3,421.386337E-3
265.525246E-3,421.531677E-3
265.545845E-3,421.349144E-3
265.668297E-3,421.549988E-3
265.680313E-3,421.571159E-3
265.650558E-3,421.530533E-3
265.912056E-3,421.716499E-3
265.830231E-3,421.711349E-3
266.052818E-3,422.065544E-3
266.140366E-3,422.227478E-3
266.124916E-3,422.295570E-3
266.411591E-3,422.551346E-3
266.381836E-3,422.677803E-3
266.705132E-3,423.073196E-3
266.898537E-3,423.240852E-3
267.014694E-3,423.490334E-3
267.400360E-3,423.777008E-3
267.410660E-3,423.687744E-3
267.662430E-3,423.954964E-3
267.687035E-3,424.088860E-3
267.642403E-3,424.194145E-3
267.985725E-3,424.353218E-3
267.802620E-3,424.325752E-3
268.182564E-3,424.636459E-3
268.159103E-3,424.679375E-3
268.205452E-3,424.826431E-3
268.551636E-3,425.345421E-3
268.529892E-3,425.427246E-3
268.930435E-3,425.603485E-3
268.929291E-3,425.701904E-3
268.915558E-3,425.750542E-3
269.215393E-3,426.041794E-3
269.226265E-3,426.317024E-3
269.573593E-3,426.603127E-3
269.602203E-3,426.718712E-3
269.634247E-3,426.715851E-3
269.798470E-3,426.791382E-3
269.739532E-3,426.663780E-3
269.726372E-3,426.659203E-3
269.193649E-3,426.058960E-3
267.990875E-3,424.617004E-3
266.579819E-3,422.621155E-3
264.365387E-3,419.930649E-3
262.390137E-3,417.129135E-3
260.528183E-3,414.398003E-3
259.004974E-3,411.866570E-3
258.161545E-3,410.004044E-3
257.277489E-3,408.396149E-3
257.101822E-3,407.680893E-3
257.124710E-3,407.582474E-3
257.423401E-3,408.133507E-3
258.075714E-3,409.091377E-3
258.586121E-3,410.044098E-3
259.490776E-3,411.327553E-3
260.018921E-3,412.538910E-3
260.595703E-3,413.474464E-3
261.189079E-3,414.343643E-3
261.381912E-3,414.697838E-3
261.750412E-3,415.232277E-3
261.741257E-3,415.508652E-3
261.552429E-3,415.180206E-3
261.528969E-3,415.163040E-3
261.166763E-3,415.002823E-3
261.448288E-3,415.224838E-3
261.711502E-3,415.702057E-3
262.150955E-3,416.143799E-3
262.758064E-3,416.995811E-3
262.921715E-3,417.455292E-3
263.198662E-3,417.755127E-3
263.160324E-3,417.770004E-3
262.881088E-3,417.608643E-3
262.789536E-3,417.572594E-3
262.453079E-3,416.921997E-3
262.228203E-3,416.658211E-3
261.827660E-3,416.090584E-3
261.402512E-3,415.540695E-3
261.456299E-3,415.588188E-3
261.328697E-3,415.284920E-3
261.542702E-3,415.501785E-3
261.685181E-3,415.722656E-3
261.800766E-3,416.131783E-3
262.489128E-3,416.795540E-3
262.724304E-3,417.216110E-3
263.305664E-3,418.001175E-3
263.725090E-3,418.563652E-3
264.117050E-3,419.154167E-3
264.597130E-3,419.825363E-3
264.667511E-3,420.143509E-3
265.024567E-3,420.649910E-3
265.264320E-3,420.914841E-3
265.395927E-3,421.251869E-3
265.770149E-3,421.766853E-3
265.767860E-3,421.923637E-3
266.002464E-3,422.282982E-3
266.027069E-3,422.178268E-3
266.002464E-3,422.058678E-3
266.299438E-3,422.285843E-3
266.039658E-3,422.146225E-3
266.233635E-3,422.333908E-3
266.088295E-3,422.317314E-3
266.025925E-3,422.289848E-3
266.149521E-3,422.472954E-3
265.960121E-3,422.304153E-3
266.086006E-3,422.695541E-3
266.177559E-3,422.578239E-3
266.215324E-3,422.710419E-3
266.378403E-3,422.804832E-3
266.277122E-3,422.686958E-3
266.414452E-3,422.890663E-3
266.419601E-3,422.877502E-3
266.311455E-3,422.826576E-3
266.567802E-3,423.253441E-3
266.538620E-3,423.205376E-3
266.862488E-3,423.613358E-3
267.016983E-3,423.784447E-3
266.924858E-3,423.738670E-3
267.273903E-3,424.071121E-3
267.205811E-3,424.123192E-3
267.564583E-3,424.557495E-3
267.646980E-3,424.620438E-3
267.755699E-3,424.575806E-3
268.009186E-3,424.907112E-3
267.910194E-3,424.813271E-3
268.123055E-3,425.262451E-3
268.227768E-3,425.321960E-3
268.339348E-3,425.355721E-3
268.631744E-3,425.745392E-3
268.577385E-3,425.724792E-3
268.753624E-3,426.183701E-3
269.004822E-3,426.451492E-3
269.153595E-3,426.658058E-3
269.419670E-3,426.972198E-3
269.270325E-3,426.971054E-3
269.572449E-3,427.142143E-3
269.692612E-3,427.334976E-3
269.724083E-3,427.243423E-3
269.807625E-3,427.377892E-3
269.619370E-3,427.201653E-3
269.567871E-3,427.126694E-3
268.791389E-3,426.224899E-3
267.414665E-3,424.638748E-3
265.772438E-3,422.634315E-3
263.480759E-3,419.822502E-3
261.568451E-3,417.166328E-3
259.657288E-3,414.169121E-3
257.990456E-3,411.401367E-3
256.958771E-3,409.552574E-3
256.198311E-3,407.935524E-3
256.059265E-3,407.433701E-3
256.093597E-3,407.267189E-3
256.263542E-3,407.589340E-3
256.954765E-3,408.609009E-3
257.489777E-3,409.591484E-3
258.349800E-3,410.892105E-3
258.888245E-3,412.043381E-3
259.453011E-3,412.969208E-3
260.111046E-3,414.040947E-3
260.352516E-3,414.500999E-3
260.684967E-3,415.016556E-3
260.643768E-3,414.981079E-3
260.525322E-3,414.914703E-3
260.575104E-3,414.931297E-3
260.363388E-3,414.530754E-3
260.582542E-3,414.697266E-3
260.559082E-3,414.847755E-3
260.841751E-3,415.237999E-3
261.451721E-3,416.136932E-3
261.743546E-3,416.531754E-3
262.157822E-3,417.262459E-3
262.266541E-3,417.514801E-3
262.216759E-3,417.475891E-3
262.261391E-3,417.513084E-3
261.955833E-3,417.148590E-3
261.939240E-3,416.878510E-3
261.586189E-3,416.415024E-3
261.393356E-3,415.984154E-3
261.233711E-3,415.827942E-3
260.878944E-3,415.538406E-3
261.104393E-3,415.652847E-3
261.168480E-3,415.839958E-3
261.373901E-3,415.994453E-3
261.833954E-3,416.766930E-3
262.086868E-3,417.095375E-3
262.599564E-3,417.795181E-3
262.917709E-3,418.353653E-3
263.265610E-3,418.848038E-3
263.852692E-3,419.539261E-3
264.073563E-3,419.928360E-3
264.715576E-3,420.604134E-3
264.911842E-3,420.998383E-3
265.042305E-3,421.390915E-3
265.479469E-3,421.838379E-3
265.546989E-3,421.766853E-3
265.826797E-3,422.082710E-3
265.950394E-3,422.268105E-3
265.906906E-3,422.275543E-3
266.032791E-3,422.597122E-3
265.985870E-3,422.428894E-3
266.222763E-3,422.772789E-3
266.174698E-3,422.685814E-3
266.200447E-3,422.656631E-3
266.280556E-3,422.854042E-3
266.109467E-3,422.549057E-3
266.352654E-3,422.760773E-3
266.249657E-3,422.811699E-3
266.186142E-3,422.740173E-3
266.371536E-3,422.968483E-3
266.258240E-3,422.823715E-3
266.370964E-3,423.021698E-3
266.341209E-3,423.111534E-3
266.398430E-3,423.291779E-3
266.719437E-3,423.510361E-3
266.774368E-3,423.566437E-3
267.122841E-3,423.787308E-3
267.118835E-3,423.964119E-3
267.206383E-3,424.040794E-3
267.553139E-3,424.451065E-3
267.569160E-3,424.538612E-3
267.917061E-3,424.915695E-3
268.030357E-3,425.117683E-3
268.095589E-3,425.245857E-3
268.434334E-3,425.611496E-3
268.376541E-3,425.660133E-3
268.676376E-3,425.801468E-3
268.726730E-3,425.953102E-3
268.668938E-3,425.861549E-3
269.053459E-3,426.238632E-3
269.039726E-3,426.089859E-3
269.056892E-3,426.288414E-3
269.116974E-3,426.325607E-3
269.084930E-3,426.384544E-3
269.433975E-3,426.678085E-3
269.292641E-3,426.631165E-3
269.555283E-3,426.904678E-3
269.676018E-3,427.178764E-3
269.835091E-3,427.175903E-3
270.049095E-3,427.475739E-3
270.049095E-3,427.500343E-3
270.368385E-3,427.795601E-3
270.465088E-3,427.962112E-3
270.477676E-3,427.956963E-3
270.703125E-3,428.297997E-3
270.495415E-3,428.054810E-3
270.371246E-3,427.854538E-3
270.014763E-3,427.420807E-3
268.870926E-3,426.021767E-3
267.399788E-3,424.420738E-3
265.143585E-3,421.690178E-3
263.123703E-3,418.986511E-3
260.981369E-3,415.794182E-3
259.029007E-3,412.959480E-3
257.924080E-3,410.770226E-3
256.834030E-3,409.061050E-3
256.676674E-3,408.243942E-3
256.603432E-3,408.051682E-3
256.755638E-3,408.137512E-3
257.334137E-3,409.156609E-3
257.798767E-3,409.949112E-3
258.623314E-3,411.338425E-3
259.272766E-3,412.457657E-3
259.936523E-3,413.516235E-3
260.694122E-3,414.344215E-3
260.820580E-3,414.882088E-3
261.194801E-3,415.488625E-3
261.267471E-3,415.536690E-3
261.146736E-3,415.387917E-3
261.238861E-3,415.470314E-3
260.816574E-3,414.944458E-3
260.977936E-3,414.933586E-3
260.887527E-3,414.974213E-3
260.963631E-3,415.115547E-3
261.539841E-3,415.854263E-3
261.821938E-3,416.346931E-3
262.327194E-3,416.953468E-3
262.594986E-3,417.293358E-3
262.548065E-3,417.362022E-3
262.817001E-3,417.855263E-3
262.602425E-3,417.530251E-3
262.597275E-3,417.339134E-3
262.303162E-3,416.955185E-3
262.015915E-3,416.588402E-3
262.007904E-3,416.531754E-3
261.731529E-3,416.203308E-3
261.828232E-3,416.202736E-3
261.848259E-3,416.251945E-3
261.886024E-3,416.464233E-3
262.443352E-3,417.147446E-3
262.576103E-3,417.375755E-3
263.146591E-3,417.984581E-3
263.537979E-3,418.571091E-3
263.911629E-3,419.087791E-3
264.530182E-3,419.839668E-3
264.772224E-3,420.233917E-3
265.340996E-3,421.039581E-3
265.772438E-3,421.389198E-3
265.979576E-3,421.481895E-3
266.401863E-3,422.023201E-3
266.505432E-3,422.345924E-3
266.864204E-3,422.741318E-3
267.015839E-3,422.937012E-3
267.011261E-3,423.009109E-3
267.308807E-3,423.192787E-3
267.210388E-3,423.134995E-3
267.507362E-3,423.527527E-3
267.575455E-3,423.536682E-3
267.525673E-3,423.436546E-3
267.781448E-3,423.835373E-3
267.643547E-3,423.736954E-3
267.947960E-3,423.760986E-3
267.915344E-3,423.752403E-3
267.838669E-3,423.586464E-3
267.877007E-3,423.855400E-3
267.807770E-3,423.735237E-3
268.091011E-3,424.098587E-3
268.095016E-3,424.115181E-3
268.041801E-3,424.117470E-3
268.395424E-3,424.392128E-3
268.375397E-3,424.357224E-3
268.634033E-3,424.740028E-3
268.778229E-3,424.896812E-3
268.903542E-3,424.994659E-3
269.323540E-3,425.277901E-3
269.336128E-3,425.344849E-3
269.595337E-3,425.642395E-3
269.714928E-3,425.781441E-3
269.793320E-3,425.901604E-3
270.157242E-3,426.350784E-3
270.164108E-3,426.368523E-3
270.520020E-3,426.686668E-3
270.635605E-3,426.902962E-3
270.812988E-3,427.063179E-3
271.138000E-3,427.420235E-3
271.057320E-3,427.284050E-3
271.314240E-3,427.403641E-3
271.267891E-3,427.515221E-3
271.244431E-3,427.495766E-3
271.560860E-3,427.891159E-3
271.463013E-3,427.816772E-3
271.829224E-3,427.999306E-3
271.945381E-3,428.150368E-3
271.960831E-3,428.135490E-3
272.173119E-3,428.417015E-3
272.139359E-3,428.447342E-3
272.537613E-3,428.796959E-3
272.720718E-3,429.030418E-3
272.754478E-3,429.076195E-3
273.004532E-3,429.341698E-3
272.908401E-3,429.161453E-3
273.056602E-3,429.369736E-3
273.104668E-3,429.384041E-3
272.894669E-3,429.072189E-3
272.430611E-3,428.557777E-3
271.113396E-3,427.232552E-3
269.484901E-3,425.213242E-3
267.424965E-3,422.631454E-3
265.071487E-3,419.708061E-3
263.309097E-3,417.245293E-3
261.599350E-3,414.636040E-3
260.580826E-3,412.854195E-3
259.883881E-3,411.537552E-3
259.539413E-3,410.714722E-3
259.667015E-3,410.863495E-3
259.893036E-3,411.163902E-3
260.660934E-3,412.177277E-3
261.340141E-3,413.176346E-3
261.951828E-3,414.256668E-3
262.794113E-3,415.545845E-3
263.280487E-3,416.364098E-3
264.027786E-3,417.346001E-3
264.359093E-3,417.872429E-3
264.547920E-3,418.290710E-3
264.771652E-3,418.525314E-3
264.550781E-3,418.416595E-3
264.650917E-3,418.298721E-3
264.599991E-3,418.144798E-3
264.552498E-3,418.140793E-3
265.013123E-3,418.626022E-3
265.356445E-3,419.003105E-3
265.888023E-3,419.825935E-3
266.166115E-3,420.247650E-3
266.246796E-3,420.390701E-3
266.444778E-3,420.650482E-3
266.144371E-3,420.417023E-3
266.031647E-3,420.098877E-3
265.653992E-3,419.540405E-3
265.212822E-3,419.090080E-3
264.983940E-3,418.718147E-3
264.572525E-3,418.176270E-3
264.463806E-3,418.121338E-3
264.439201E-3,418.084717E-3
264.406586E-3,418.157959E-3
264.848900E-3,418.504715E-3
265.168190E-3,418.796539E-3
265.745544E-3,419.498062E-3
266.112328E-3,419.972992E-3
266.433334E-3,420.432472E-3
267.090797E-3,421.170616E-3
267.247009E-3,421.507072E-3
267.812347E-3,422.274399E-3
268.176270E-3,422.784805E-3
268.376541E-3,423.070908E-3
268.724442E-3,423.426819E-3
268.737030E-3,423.423958E-3
268.993950E-3,423.757553E-3
269.083214E-3,423.930359E-3
269.112396E-3,424.068260E-3
269.360161E-3,424.312592E-3
269.206238E-3,424.196434E-3
269.289780E-3,424.243355E-3
269.246864E-3,424.206734E-3
269.114685E-3,424.188995E-3
269.285774E-3,424.394989E-3
269.061470E-3,424.203300E-3
269.108963E-3,424.493408E-3
269.056320E-3,424.325752E-3
269.083214E-3,424.372673E-3
269.237137E-3,424.540901E-3
269.155312E-3,424.293709E-3
269.350433E-3,424.460220E-3
269.310379E-3,424.460793E-3
269.278336E-3,424.403000E-3
269.462585E-3,424.636459E-3
269.380188E-3,424.584389E-3
269.678879E-3,424.866486E-3
269.788742E-3,424.812126E-3
269.699478E-3,424.903679E-3
269.911194E-3,425.380325E-3
269.881439E-3,425.378036E-3
270.201874E-3,425.673294E-3
270.301437E-3,425.844955E-3
270.346642E-3,425.984573E-3
270.682526E-3,426.326180E-3
270.652771E-3,426.349068E-3
271.069336E-3,426.690674E-3
270.934296E-3,426.683807E-3
270.913696E-3,426.551628E-3
271.257591E-3,426.924706E-3
271.062469E-3,426.805687E-3
271.314240E-3,427.071190E-3
271.489906E-3,427.166176E-3
271.301079E-3,427.148437E-3
271.675301E-3,427.525520E-3
271.635818E-3,427.505493E-3
271.941948E-3,427.874565E-3
271.983147E-3,428.096581E-3
271.935654E-3,428.056526E-3
272.189140E-3,428.392982E-3
272.225761E-3,428.386688E-3
272.469521E-3,428.759766E-3
272.582245E-3,428.834724E-3
272.352219E-3,428.648758E-3
272.603416E-3,428.756905E-3
272.333336E-3,428.625298E-3
272.080421E-3,428.303719E-3
271.273613E-3,427.182770E-3
269.638824E-3,425.561714E-3
267.880440E-3,423.371887E-3
265.518951E-3,420.558929E-3
263.603210E-3,417.997169E-3
261.709785E-3,415.332985E-3
260.219193E-3,412.780952E-3
259.442139E-3,411.399651E-3
258.833313E-3,410.199165E-3
258.787537E-3,409.980011E-3
258.806419E-3,410.093880E-3
259.205246E-3,410.678101E-3
259.924507E-3,411.812210E-3
260.516167E-3,412.755775E-3
261.425400E-3,414.021492E-3
262.047958E-3,414.963913E-3
262.546921E-3,415.736961E-3
263.105965E-3,416.587830E-3
263.175774E-3,416.965485E-3
263.481331E-3,417.425537E-3
263.492203E-3,417.301369E-3
263.321686E-3,417.064476E-3
263.464737E-3,417.038155E-3
263.240433E-3,416.781235E-3
263.480186E-3,417.151451E-3
263.793182E-3,417.640114E-3
264.113617E-3,418.212891E-3
264.625168E-3,418.935013E-3
264.752197E-3,419.062614E-3
264.977074E-3,419.352150E-3
264.908981E-3,419.470596E-3
264.739609E-3,419.209671E-3
264.624023E-3,419.181061E-3
264.177704E-3,418.417168E-3
264.019203E-3,418.085289E-3
263.618088E-3,417.565155E-3
263.286781E-3,417.156601E-3
263.306808E-3,417.122841E-3
263.134575E-3,417.003250E-3
263.322830E-3,417.225838E-3
263.420105E-3,417.584610E-3
263.651848E-3,417.783165E-3
264.148521E-3,418.389130E-3
264.440918E-3,418.776512E-3
264.992523E-3,419.607353E-3
265.398216E-3,420.093155E-3
265.666008E-3,420.609856E-3
266.244507E-3,421.183777E-3
266.464806E-3,421.444130E-3
266.865921E-3,422.117043E-3
267.251015E-3,422.401428E-3
267.449570E-3,422.751617E-3
267.740822E-3,423.203659E-3
267.729950E-3,423.080063E-3
267.965126E-3,423.295212E-3
268.083000E-3,423.424530E-3
267.994881E-3,423.373604E-3
268.274689E-3,423.851395E-3
268.124199E-3,423.573303E-3
268.246078E-3,423.742104E-3
268.152809E-3,423.687172E-3
268.099594E-3,423.734665E-3
268.250084E-3,423.946953E-3
268.194580E-3,423.843956E-3
268.310165E-3,424.031067E-3
268.248940E-3,423.970413E-3
268.179703E-3,423.901176E-3
268.409157E-3,424.138069E-3
268.338776E-3,423.927498E-3
268.494987E-3,424.122047E-3
268.489265E-3,424.230194E-3
268.512726E-3,424.364662E-3
268.765640E-3,424.475098E-3
268.869781E-3,424.536324E-3
269.139290E-3,424.786949E-3
269.312096E-3,425.154877E-3
269.422531E-3,425.165749E-3
269.814491E-3,425.508499E-3
269.696045E-3,425.510788E-3
270.002747E-3,425.918198E-3
270.143509E-3,426.048660E-3
270.316315E-3,426.267815E-3
270.578384E-3,426.664352E-3
270.544624E-3,426.548195E-3
270.902252E-3,426.750755E-3
270.973206E-3,426.903534E-3
271.073341E-3,426.914406E-3
271.257591E-3,427.159882E-3
270.995522E-3,426.967049E-3
271.138000E-3,427.149582E-3
271.151733E-3,427.079773E-3
271.184349E-3,427.153587E-3
271.452141E-3,427.536964E-3
271.356010E-3,427.503777E-3
271.529961E-3,427.713203E-3
271.600914E-3,427.837944E-3
271.717072E-3,427.960396E-3
272.013474E-3,428.286552E-3
271.916771E-3,428.252220E-3
272.166252E-3,428.636742E-3
272.138214E-3,428.717995E-3
272.158813E-3,428.624153E-3
272.365952E-3,428.831291E-3
272.262955E-3,428.596115E-3
272.236061E-3,428.655052E-3
271.629524E-3,427.898026E-3
270.318031E-3,426.489258E-3
268.723297E-3,424.721718E-3
266.384697E-3,421.719933E-3
264.269829E-3,418.968773E-3
262.196159E-3,416.134071E-3
260.448074E-3,413.567162E-3
259.358597E-3,411.756134E-3
258.483124E-3,410.140800E-3
258.407021E-3,409.502792E-3
258.266830E-3,409.279633E-3
258.500862E-3,409.526825E-3
259.101677E-3,410.493279E-3
259.605789E-3,411.415672E-3
260.449791E-3,412.512016E-3
261.106682E-3,413.638687E-3
261.657143E-3,414.462662E-3
262.303734E-3,415.536118E-3
262.512589E-3,415.775871E-3
262.964058E-3,416.203308E-3
262.743187E-3,416.071129E-3
262.520027E-3,415.814209E-3
262.526894E-3,415.783882E-3
262.276268E-3,415.355301E-3
262.227631E-3,415.232849E-3
262.232208E-3,415.202522E-3
262.319183E-3,415.373611E-3
262.878227E-3,416.099739E-3
263.158607E-3,416.580963E-3
263.750839E-3,417.272186E-3
263.884735E-3,417.675018E-3
263.849258E-3,417.723083E-3
264.010048E-3,417.941093E-3
263.683319E-3,417.622375E-3
263.754272E-3,417.498779E-3
263.611221E-3,417.150879E-3
263.135719E-3,416.732025E-3
263.009262E-3,416.533470E-3
262.704277E-3,416.408157E-3
263.018990E-3,416.488266E-3
263.015556E-3,416.622734E-3
263.204384E-3,416.812706E-3
263.613510E-3,417.460442E-3
263.776016E-3,417.718506E-3
264.364243E-3,418.387413E-3
264.714432E-3,418.791389E-3
265.066338E-3,419.304657E-3
265.660858E-3,420.017624E-3
265.957832E-3,420.313454E-3
266.433907E-3,420.906258E-3
266.677094E-3,421.254158E-3
266.817284E-3,421.567154E-3
267.265892E-3,422.123337E-3
267.232132E-3,422.212601E-3
267.709351E-3,422.672653E-3
267.810631E-3,422.629738E-3
267.704201E-3,422.597122E-3
267.871284E-3,422.861481E-3
267.808342E-3,422.926712E-3
268.083000E-3,423.114967E-3
268.135071E-3,423.046875E-3
268.021202E-3,423.102379E-3
268.075562E-3,423.432541E-3
268.018341E-3,423.234558E-3
268.313599E-3,423.384476E-3
268.319893E-3,423.299789E-3
268.240356E-3,423.219681E-3
268.484116E-3,423.546982E-3
268.332481E-3,423.393631E-3
268.520737E-3,423.781013E-3
268.574524E-3,423.790741E-3
268.578529E-3,423.585320E-3
268.995094E-3,423.994446E-3
268.993378E-3,424.100304E-3
269.284058E-3,424.329758E-3
269.276047E-3,424.415588E-3
269.349289E-3,424.636459E-3
269.817352E-3,425.098228E-3
269.793320E-3,425.213814E-3
270.248222E-3,425.592041E-3
270.360947E-3,425.581169E-3
270.385551E-3,425.650406E-3
270.679092E-3,425.941658E-3
270.796967E-3,426.041794E-3
271.113396E-3,426.433182E-3
271.204948E-3,426.466370E-3
271.233559E-3,426.605415E-3
271.386909E-3,426.806831E-3
271.314812E-3,426.747322E-3
271.552849E-3,427.008247E-3
271.644974E-3,427.192497E-3
271.716499E-3,427.174759E-3
271.963120E-3,427.409363E-3
271.841240E-3,427.392769E-3
272.158241E-3,427.536392E-3
272.248077E-3,427.745247E-3
272.375107E-3,427.654839E-3
272.595978E-3,428.014755E-3
272.446060E-3,427.932930E-3
272.746468E-3,428.209305E-3
272.846603E-3,428.396988E-3
272.954178E-3,428.598976E-3
273.265457E-3,428.806686E-3
