Notes :


2023-11-23 ¿ÀÈÄ 11:00:01
Volts
Ch : LED 2,Ch : LED 3,
365.610123E-3,194.203377E-3
365.081978E-3,192.701340E-3
365.559196E-3,193.088722E-3
365.922546E-3,193.792534E-3
366.188049E-3,194.622231E-3
367.373657E-3,196.182632E-3
368.091774E-3,197.708130E-3
369.266510E-3,199.445915E-3
369.679642E-3,200.751686E-3
369.703102E-3,201.734161E-3
370.475578E-3,202.776146E-3
370.774269E-3,203.565788E-3
371.464920E-3,203.913689E-3
371.365929E-3,204.311371E-3
370.839500E-3,204.039574E-3
371.038055E-3,204.318810E-3
371.143913E-3,204.045868E-3
371.348763E-3,204.619789E-3
371.495247E-3,204.854965E-3
371.341896E-3,205.143929E-3
371.958160E-3,205.903244E-3
372.062874E-3,206.457138E-3
372.640800E-3,207.219887E-3
372.595024E-3,207.281113E-3
371.991920E-3,206.839371E-3
372.093201E-3,206.791878E-3
371.942711E-3,206.171608E-3
371.775055E-3,206.268883E-3
371.650314E-3,205.596542E-3
371.004295E-3,204.949951E-3
371.470070E-3,204.957390E-3
371.353340E-3,204.635811E-3
371.454620E-3,204.817772E-3
371.598244E-3,205.031204E-3
371.797371E-3,205.354500E-3
372.120667E-3,206.058311E-3
372.152138E-3,206.241989E-3
372.111511E-3,206.810188E-3
372.429085E-3,207.427025E-3
372.453690E-3,207.955742E-3
373.258781E-3,209.019470E-3
373.372078E-3,209.439468E-3
373.701096E-3,210.109520E-3
373.980904E-3,210.587311E-3
373.972893E-3,211.209297E-3
374.166870E-3,211.594963E-3
374.053574E-3,211.759186E-3
374.388313E-3,212.257576E-3
374.560547E-3,212.727356E-3
374.550819E-3,212.744522E-3
374.947929E-3,213.261795E-3
374.489594E-3,213.178825E-3
375.155067E-3,213.895226E-3
375.134468E-3,213.846016E-3
374.885559E-3,213.508987E-3
375.247192E-3,213.981628E-3
374.955940E-3,214.035416E-3
375.453186E-3,214.427948E-3
375.353050E-3,214.324951E-3
374.720764E-3,213.597679E-3
375.148201E-3,214.080048E-3
374.953651E-3,214.094353E-3
375.341034E-3,214.357567E-3
375.278091E-3,214.426231E-3
374.923897E-3,213.880920E-3
375.274086E-3,214.327812E-3
374.862671E-3,214.285469E-3
375.555038E-3,214.843941E-3
375.556183E-3,215.221596E-3
375.036049E-3,215.272522E-3
375.461197E-3,215.651894E-3
375.523567E-3,215.764618E-3
376.014519E-3,216.419220E-3
376.016808E-3,216.564560E-3
375.814247E-3,216.345406E-3
376.047134E-3,216.792870E-3
375.643730E-3,216.414642E-3
375.345039E-3,215.489388E-3
374.378014E-3,213.557053E-3
373.369217E-3,210.820198E-3
372.046280E-3,207.903671E-3
369.952583E-3,204.139709E-3
368.976402E-3,200.952530E-3
367.808533E-3,198.563004E-3
367.147636E-3,196.955681E-3
366.898727E-3,195.796967E-3
366.454124E-3,195.077133E-3
366.937637E-3,195.647621E-3
367.300987E-3,196.648407E-3
367.689514E-3,197.902679E-3
368.769836E-3,199.670219E-3
369.572067E-3,200.677872E-3
370.540810E-3,202.592468E-3
370.932770E-3,204.101372E-3
371.327591E-3,204.930496E-3
372.006226E-3,206.051445E-3
371.748734E-3,206.319809E-3
372.235680E-3,206.966972E-3
372.167015E-3,207.362938E-3
371.720123E-3,207.408714E-3
372.307205E-3,207.987213E-3
372.153854E-3,208.009529E-3
373.042488E-3,208.788300E-3
373.164368E-3,209.300995E-3
372.759247E-3,209.545326E-3
373.234177E-3,210.119247E-3
372.798157E-3,209.997940E-3
373.148346E-3,210.139275E-3
372.954369E-3,209.565353E-3
372.112083E-3,208.192635E-3
372.438240E-3,207.999229E-3
371.667480E-3,206.923485E-3
371.882629E-3,207.024193E-3
371.657753E-3,206.430244E-3
371.236038E-3,205.940437E-3
371.411133E-3,206.069183E-3
371.212006E-3,205.839729E-3
371.686935E-3,206.785011E-3
372.013664E-3,207.289696E-3
372.181892E-3,207.592964E-3
372.680283E-3,208.411789E-3
372.482300E-3,208.983421E-3
372.958374E-3,209.785652E-3
373.341179E-3,210.284042E-3
373.245049E-3,210.880852E-3
373.592949E-3,211.768341E-3
373.658752E-3,212.123108E-3
373.758316E-3,212.572289E-3
374.120522E-3,212.703896E-3
374.267578E-3,213.445473E-3
374.531937E-3,214.205360E-3
374.416924E-3,214.260864E-3
374.505615E-3,214.305496E-3
374.695015E-3,214.400482E-3
374.398041E-3,214.544106E-3
374.814034E-3,215.174675E-3
374.470139E-3,214.903450E-3
374.966812E-3,215.390396E-3
375.149918E-3,215.542603E-3
374.989128E-3,215.285683E-3
375.016022E-3,215.424728E-3
374.566841E-3,215.085411E-3
374.851799E-3,215.804100E-3
374.922180E-3,215.566063E-3
374.692154E-3,215.247345E-3
375.017166E-3,215.378380E-3
374.580574E-3,214.863396E-3
374.884415E-3,215.676498E-3
375.013733E-3,215.834427E-3
374.632645E-3,215.531731E-3
375.022316E-3,215.987778E-3
374.630928E-3,215.856743E-3
375.330734E-3,216.422081E-3
375.191689E-3,216.905594E-3
374.811172E-3,216.954231E-3
375.323296E-3,217.382240E-3
374.976540E-3,217.342186E-3
375.625420E-3,217.664337E-3
375.416565E-3,217.235184E-3
374.720192E-3,215.907669E-3
374.141121E-3,214.204216E-3
372.669983E-3,211.091423E-3
371.359062E-3,207.730293E-3
369.765472E-3,204.221535E-3
367.912102E-3,200.511360E-3
367.167664E-3,197.831154E-3
366.108513E-3,195.579529E-3
365.624428E-3,194.380188E-3
365.449905E-3,193.833160E-3
365.546036E-3,194.061470E-3
366.209793E-3,194.962692E-3
366.772270E-3,195.461655E-3
367.678642E-3,197.502136E-3
368.437386E-3,199.103165E-3
368.874550E-3,200.268745E-3
369.811821E-3,201.815414E-3
370.178032E-3,202.610207E-3
370.740509E-3,203.975487E-3
370.879555E-3,204.467583E-3
370.937920E-3,204.525948E-3
371.140480E-3,204.941940E-3
370.759964E-3,204.412651E-3
371.177673E-3,205.106735E-3
371.190834E-3,205.197144E-3
370.740509E-3,204.754257E-3
371.241188E-3,205.700111E-3
371.125031E-3,205.948448E-3
372.187614E-3,207.024765E-3
372.239113E-3,207.393265E-3
371.947861E-3,207.584381E-3
372.254562E-3,207.785797E-3
371.957588E-3,207.257652E-3
371.967888E-3,207.299423E-3
371.883774E-3,206.721497E-3
371.636581E-3,206.399918E-3
371.495247E-3,205.879211E-3
371.157074E-3,205.334473E-3
371.554184E-3,205.365944E-3
371.850586E-3,205.282974E-3
372.156143E-3,205.395699E-3
372.181892E-3,206.018829E-3
372.366142E-3,206.197357E-3
372.750664E-3,206.758118E-3
372.711754E-3,206.953239E-3
372.951508E-3,207.645607E-3
373.598671E-3,208.736801E-3
373.614693E-3,208.651543E-3
374.295044E-3,209.828568E-3
374.527359E-3,210.607910E-3
374.367142E-3,210.796738E-3
374.867821E-3,211.798096E-3
374.586296E-3,211.878777E-3
375.355339E-3,212.637520E-3
375.177383E-3,212.960815E-3
375.244904E-3,213.074112E-3
375.655746E-3,213.639450E-3
375.252914E-3,213.543320E-3
375.799942E-3,213.987350E-3
375.819969E-3,214.045143E-3
375.861740E-3,214.013100E-3
376.088333E-3,214.417648E-3
375.621986E-3,214.354706E-3
375.839424E-3,214.096069E-3
375.821114E-3,214.208221E-3
375.687790E-3,214.352417E-3
376.051712E-3,214.465141E-3
375.699234E-3,214.101791E-3
375.787926E-3,214.200211E-3
375.567627E-3,214.226532E-3
375.292969E-3,214.313507E-3
375.589943E-3,214.655685E-3
375.506401E-3,214.343262E-3
375.771332E-3,214.230537E-3
375.755310E-3,214.591026E-3
376.010513E-3,215.059090E-3
376.182175E-3,215.564346E-3
376.105499E-3,215.557480E-3
376.178169E-3,216.003227E-3
376.155281E-3,216.269875E-3
376.216507E-3,216.442680E-3
376.425362E-3,216.638947E-3
376.219940E-3,216.333961E-3
376.044273E-3,215.572929E-3
375.197983E-3,214.093781E-3
374.205780E-3,211.034775E-3
372.653961E-3,207.879639E-3
370.829773E-3,203.930283E-3
369.537163E-3,200.930786E-3
368.050003E-3,197.533607E-3
366.707039E-3,194.982147E-3
366.563988E-3,193.747902E-3
366.021538E-3,192.860413E-3
366.624641E-3,193.427467E-3
367.000580E-3,194.087219E-3
367.417717E-3,194.861984E-3
368.416786E-3,196.648407E-3
368.939781E-3,197.705269E-3
370.379448E-3,199.928856E-3
371.012878E-3,201.333046E-3
370.851517E-3,201.976776E-3
371.677208E-3,202.856827E-3
371.622849E-3,203.105164E-3
372.261429E-3,203.901672E-3
372.364426E-3,203.962326E-3
371.899223E-3,203.770638E-3
372.025108E-3,204.100227E-3
371.697807E-3,203.688812E-3
372.021103E-3,204.012680E-3
372.541237E-3,204.399490E-3
372.591019E-3,205.248642E-3
373.096275E-3,205.875206E-3
373.127747E-3,206.144142E-3
373.262787E-3,206.607056E-3
373.305702E-3,206.331825E-3
373.281670E-3,206.375885E-3
373.152924E-3,206.250000E-3
372.905159E-3,205.624580E-3
372.754097E-3,205.302429E-3
372.493744E-3,204.670715E-3
372.219658E-3,204.343414E-3
372.250557E-3,204.433250E-3
371.954727E-3,204.046440E-3
372.457695E-3,204.574585E-3
372.621918E-3,204.752541E-3
372.587585E-3,205.038643E-3
373.116302E-3,205.706978E-3
373.056793E-3,206.069756E-3
373.917389E-3,207.293701E-3
374.160576E-3,207.862473E-3
374.237823E-3,208.077049E-3
374.650955E-3,209.048080E-3
374.444962E-3,209.258652E-3
375.070381E-3,210.337830E-3
375.256348E-3,210.758972E-3
375.325012E-3,210.836792E-3
375.520706E-3,211.474228E-3
375.222015E-3,211.293983E-3
375.683212E-3,212.091637E-3
375.758743E-3,212.179756E-3
375.545883E-3,212.414360E-3
375.743866E-3,212.635231E-3
375.664330E-3,212.277603E-3
375.697517E-3,212.750816E-3
375.605392E-3,212.538528E-3
375.835419E-3,212.838936E-3
376.165009E-3,213.056946E-3
375.856018E-3,213.054657E-3
375.889206E-3,213.067818E-3
375.856590E-3,212.904739E-3
375.959587E-3,212.519646E-3
376.198196E-3,212.870407E-3
375.790215E-3,212.638092E-3
375.638008E-3,212.580872E-3
375.971031E-3,212.657547E-3
375.754166E-3,213.081551E-3
376.263428E-3,213.435745E-3
375.845718E-3,213.483238E-3
376.315498E-3,214.081192E-3
376.191330E-3,214.471436E-3
376.519775E-3,214.352989E-3
376.724625E-3,215.135193E-3
376.480293E-3,215.031624E-3
376.943207E-3,215.720558E-3
376.812172E-3,216.061592E-3
376.708031E-3,215.722847E-3
376.941490E-3,215.863609E-3
376.264000E-3,214.933205E-3
376.048851E-3,213.717270E-3
374.960518E-3,211.370087E-3
373.224449E-3,207.841873E-3
371.878624E-3,204.478455E-3
370.218086E-3,200.511360E-3
369.346046E-3,198.014259E-3
368.239975E-3,195.637321E-3
367.454910E-3,193.826866E-3
367.402840E-3,193.481827E-3
367.401695E-3,193.356514E-3
368.021965E-3,194.544983E-3
368.773842E-3,195.555496E-3
369.505119E-3,197.127342E-3
370.461273E-3,198.894310E-3
370.810890E-3,199.918556E-3
371.828270E-3,201.490974E-3
372.237396E-3,202.633667E-3
372.496605E-3,203.553772E-3
372.818756E-3,204.352570E-3
372.549248E-3,204.211807E-3
372.950363E-3,204.739380E-3
372.798157E-3,204.721642E-3
373.066521E-3,204.766846E-3
373.287392E-3,205.117607E-3
373.217010E-3,205.319595E-3
373.573494E-3,205.877495E-3
373.773766E-3,206.633949E-3
373.891068E-3,206.857681E-3
374.092484E-3,207.288551E-3
373.808670E-3,207.202721E-3
373.619843E-3,206.746674E-3
373.402405E-3,206.391907E-3
373.114586E-3,205.443192E-3
372.968102E-3,205.157089E-3
372.427368E-3,204.267883E-3
372.430801E-3,204.174042E-3
372.298050E-3,203.499413E-3
372.157860E-3,203.339767E-3
372.699165E-3,203.758621E-3
372.344971E-3,203.701401E-3
373.147774E-3,204.948235E-3
373.392677E-3,205.799103E-3
373.587799E-3,205.995369E-3
373.985481E-3,206.854248E-3
373.677063E-3,207.270241E-3
374.244118E-3,208.152580E-3
374.705887E-3,208.673859E-3
374.914742E-3,208.744240E-3
375.116730E-3,209.554482E-3
375.002289E-3,209.698105E-3
375.031471E-3,210.046005E-3
375.187111E-3,210.397911E-3
375.247765E-3,210.784149E-3
375.384521E-3,211.303711E-3
375.104713E-3,211.319160E-3
375.324440E-3,211.639023E-3
375.392532E-3,211.789513E-3
375.339890E-3,211.670494E-3
375.735855E-3,212.155151E-3
375.371933E-3,211.809540E-3
375.750732E-3,212.267303E-3
375.470924E-3,212.014389E-3
375.240898E-3,211.635017E-3
375.624847E-3,212.143135E-3
375.057220E-3,211.683655E-3
375.452614E-3,212.108231E-3
375.509834E-3,211.995506E-3
375.718689E-3,211.878777E-3
375.609398E-3,212.192345E-3
375.224304E-3,211.681938E-3
375.596809E-3,212.182617E-3
375.503540E-3,212.243271E-3
375.720406E-3,212.438393E-3
375.908089E-3,212.919044E-3
375.667191E-3,213.031197E-3
375.871468E-3,213.432884E-3
375.865173E-3,213.776207E-3
375.850868E-3,214.359283E-3
376.195335E-3,214.651680E-3
376.195908E-3,214.671135E-3
375.990486E-3,214.952660E-3
375.635719E-3,214.131546E-3
374.994278E-3,213.018036E-3
374.451256E-3,211.126328E-3
372.956085E-3,208.111382E-3
371.763039E-3,204.789162E-3
370.345116E-3,201.617432E-3
368.985558E-3,198.255157E-3
368.514633E-3,196.075630E-3
367.440033E-3,193.651772E-3
367.486382E-3,193.038940E-3
367.340469E-3,192.236710E-3
367.786217E-3,192.404938E-3
368.559837E-3,193.866920E-3
368.669701E-3,194.869423E-3
369.800377E-3,196.693039E-3
370.293045E-3,197.992516E-3
371.061516E-3,199.008179E-3
372.063446E-3,200.620651E-3
371.906090E-3,201.222038E-3
372.816467E-3,202.141571E-3
372.714043E-3,202.397346E-3
372.698021E-3,202.504921E-3
372.867393E-3,202.684593E-3
372.253418E-3,202.249718E-3
372.885704E-3,202.864838E-3
372.740936E-3,203.137779E-3
372.958374E-3,203.879356E-3
373.590088E-3,204.489899E-3
373.584366E-3,204.476738E-3
374.150848E-3,205.483246E-3
373.950005E-3,205.578804E-3
373.591805E-3,205.586243E-3
373.756599E-3,205.372810E-3
373.129463E-3,204.792023E-3
373.265648E-3,204.251289E-3
373.076820E-3,203.369522E-3
373.115730E-3,203.019333E-3
372.797585E-3,202.855682E-3
372.533798E-3,202.419090E-3
372.561836E-3,202.424240E-3
372.518349E-3,202.553558E-3
372.816467E-3,203.046799E-3
373.242187E-3,203.571510E-3
373.148346E-3,204.025841E-3
373.464775E-3,204.854965E-3
373.669624E-3,205.685806E-3
373.796082E-3,206.400490E-3
374.795151E-3,207.431030E-3
374.542809E-3,207.634735E-3
374.908447E-3,208.302498E-3
375.217438E-3,208.724213E-3
375.437164E-3,208.985710E-3
375.767326E-3,209.808540E-3
375.400543E-3,209.773636E-3
375.940704E-3,210.417938E-3
375.904083E-3,210.428238E-3
376.098061E-3,210.698318E-3
376.147842E-3,211.045647E-3
375.837708E-3,210.657692E-3
376.426506E-3,211.388397E-3
376.229095E-3,211.489677E-3
376.461983E-3,211.569214E-3
376.472282E-3,211.738586E-3
376.042557E-3,211.188126E-3
376.465416E-3,211.415863E-3
376.510048E-3,211.389542E-3
376.330948E-3,211.506271E-3
376.315498E-3,211.566353E-3
375.911522E-3,211.161804E-3
375.825691E-3,211.152077E-3
376.047707E-3,211.098862E-3
375.969315E-3,211.239624E-3
376.373863E-3,211.518860E-3
375.949287E-3,211.344337E-3
375.952721E-3,211.464500E-3
376.316071E-3,211.590958E-3
376.366997E-3,211.498260E-3
376.732635E-3,212.433243E-3
376.556969E-3,212.659836E-3
376.805305E-3,213.016319E-3
376.511192E-3,213.391113E-3
376.631927E-3,214.056587E-3
377.309990E-3,214.665985E-3
377.241325E-3,214.632225E-3
377.331734E-3,214.778709E-3
377.089119E-3,214.664841E-3
376.645088E-3,213.888931E-3
376.165009E-3,211.973763E-3
374.416924E-3,208.603477E-3
373.221016E-3,205.328751E-3
371.232605E-3,201.600838E-3
369.327164E-3,197.861481E-3
368.216515E-3,194.757271E-3
366.686440E-3,191.930580E-3
366.834068E-3,191.123772E-3
366.404915E-3,190.247726E-3
366.400337E-3,190.376472E-3
367.104721E-3,191.102028E-3
367.424583E-3,191.710854E-3
368.684578E-3,193.446922E-3
369.038773E-3,194.635963E-3
369.854164E-3,196.301651E-3
370.486450E-3,197.110748E-3
370.440674E-3,197.494698E-3
370.905304E-3,198.601341E-3
371.080971E-3,198.742104E-3
371.018600E-3,198.839378E-3
371.155357E-3,198.863411E-3
370.762253E-3,198.575592E-3
370.751953E-3,198.516083E-3
370.801163E-3,198.551559E-3
370.635223E-3,198.631096E-3
371.340752E-3,199.272537E-3
371.555901E-3,199.651909E-3
371.993065E-3,200.488472E-3
372.104073E-3,201.064682E-3
372.151566E-3,201.456642E-3
372.542953E-3,201.979065E-3
372.279739E-3,201.741600E-3
372.590446E-3,201.983070E-3
372.225952E-3,201.568222E-3
371.756172E-3,201.599121E-3
372.209930E-3,201.150513E-3
371.760178E-3,200.390625E-3
372.303200E-3,200.799179E-3
372.041130E-3,200.640678E-3
372.062874E-3,200.972557E-3
372.409630E-3,201.374245E-3
372.389603E-3,201.411438E-3
372.715187E-3,201.825714E-3
372.991562E-3,202.466583E-3
373.476219E-3,203.174973E-3
373.869896E-3,204.152870E-3
373.856735E-3,204.570580E-3
374.228668E-3,205.247498E-3
374.260139E-3,205.727005E-3
374.589157E-3,205.733871E-3
375.011444E-3,206.513786E-3
374.523926E-3,206.646538E-3
375.061226E-3,207.366371E-3
375.256920E-3,207.568932E-3
375.567627E-3,207.616425E-3
375.716400E-3,208.191490E-3
375.425720E-3,208.272743E-3
375.669479E-3,208.454704E-3
375.475502E-3,208.650970E-3
375.385666E-3,208.875847E-3
375.868034E-3,208.994293E-3
375.666046E-3,208.768272E-3
375.896072E-3,209.021759E-3
375.964165E-3,208.935356E-3
375.878334E-3,209.034920E-3
375.929832E-3,209.416580E-3
375.976181E-3,208.970261E-3
375.930405E-3,209.076691E-3
375.814819E-3,209.081268E-3
375.929832E-3,209.121895E-3
376.424217E-3,209.528732E-3
375.983620E-3,209.132767E-3
376.008224E-3,209.292412E-3
376.012802E-3,209.183121E-3
376.013374E-3,209.276390E-3
376.305199E-3,210.090637E-3
376.120377E-3,209.912682E-3
376.490021E-3,210.385895E-3
376.349831E-3,210.491180E-3
376.783562E-3,210.999870E-3
377.043915E-3,211.809540E-3
376.955223E-3,211.962891E-3
377.305984E-3,212.464714E-3
377.356339E-3,212.778854E-3
377.407837E-3,212.927055E-3
377.900505E-3,213.485527E-3
377.454758E-3,213.268661E-3
377.971458E-3,213.982773E-3
377.346611E-3,213.640022E-3
376.964951E-3,212.609482E-3
376.224518E-3,210.785294E-3
374.367714E-3,207.269669E-3
373.226738E-3,204.166031E-3
371.369934E-3,200.236702E-3
369.725990E-3,196.505356E-3
368.385315E-3,193.490410E-3
367.093277E-3,191.049385E-3
367.183685E-3,190.144730E-3
367.021751E-3,189.739037E-3
367.202568E-3,189.766502E-3
367.920113E-3,191.021919E-3
368.136978E-3,191.872215E-3
369.031334E-3,193.299866E-3
369.657326E-3,194.536400E-3
370.509338E-3,196.133995E-3
371.369362E-3,197.415161E-3
371.248055E-3,197.769928E-3
371.557617E-3,198.568726E-3
371.618271E-3,198.620224E-3
371.233749E-3,198.790741E-3
371.644592E-3,198.925781E-3
371.345901E-3,198.278618E-3
371.963310E-3,198.476601E-3
371.720123E-3,198.255730E-3
371.876907E-3,198.608780E-3
372.381592E-3,199.753761E-3
372.441101E-3,200.134277E-3
373.154640E-3,201.325607E-3
373.200417E-3,201.648331E-3
373.108292E-3,201.798248E-3
373.313713E-3,201.983643E-3
373.004723E-3,201.150513E-3
373.307419E-3,201.191711E-3
372.722054E-3,200.417519E-3
372.278595E-3,200.122833E-3
372.093773E-3,199.951744E-3
371.856880E-3,199.362373E-3
372.368431E-3,199.767494E-3
372.126961E-3,199.934578E-3
372.487450E-3,200.042152E-3
372.968674E-3,200.905609E-3
373.085976E-3,201.244354E-3
373.467636E-3,202.175331E-3
373.586655E-3,202.569008E-3
373.768616E-3,203.113174E-3
374.394608E-3,204.060173E-3
374.435234E-3,204.198647E-3
374.997711E-3,205.231476E-3
374.638367E-3,205.565643E-3
374.916458E-3,205.734444E-3
375.193405E-3,206.500626E-3
375.002861E-3,206.365585E-3
375.700951E-3,207.181549E-3
375.285530E-3,207.091713E-3
375.351334E-3,207.481384E-3
375.417709E-3,207.521439E-3
375.274658E-3,207.320023E-3
375.852013E-3,207.889366E-3
375.833702E-3,207.953453E-3
375.953865E-3,207.745743E-3
375.919533E-3,208.126831E-3
375.626564E-3,208.082771E-3
376.091766E-3,208.463287E-3
375.995636E-3,208.260155E-3
376.151848E-3,207.940292E-3
376.059151E-3,208.342552E-3
375.554466E-3,207.762337E-3
375.860023E-3,208.150291E-3
375.877762E-3,208.187485E-3
375.609398E-3,208.288765E-3
375.659752E-3,208.511925E-3
375.353622E-3,208.243561E-3
375.791359E-3,208.688736E-3
375.747871E-3,208.769989E-3
375.690079E-3,208.971977E-3
376.084900E-3,209.434891E-3
375.905228E-3,209.683800E-3
376.130676E-3,210.162163E-3
376.268578E-3,210.549545E-3
376.574135E-3,211.212158E-3
376.799583E-3,211.506271E-3
376.648521E-3,211.821556E-3
376.846504E-3,212.198639E-3
376.674271E-3,212.152863E-3
376.712608E-3,212.223244E-3
376.836205E-3,212.570572E-3
376.515770E-3,212.212372E-3
376.385880E-3,211.495972E-3
375.262642E-3,209.235764E-3
373.904228E-3,206.578445E-3
372.450829E-3,203.399849E-3
370.454407E-3,199.669647E-3
369.293404E-3,196.575737E-3
367.857170E-3,193.493271E-3
366.889000E-3,191.433334E-3
366.740227E-3,190.232277E-3
366.140556E-3,189.705276E-3
366.644096E-3,190.063477E-3
366.916466E-3,190.686035E-3
367.816544E-3,191.440201E-3
368.594170E-3,193.099022E-3
368.894005E-3,194.341278E-3
369.618416E-3,195.445633E-3
370.126534E-3,196.538544E-3
370.400620E-3,197.469521E-3
371.253777E-3,198.227692E-3
370.932770E-3,198.553848E-3
371.173668E-3,198.768425E-3
370.954514E-3,198.241425E-3
371.054077E-3,198.240280E-3
371.298981E-3,198.362732E-3
371.115875E-3,198.476601E-3
371.808243E-3,199.412155E-3
371.924400E-3,199.982643E-3
372.168732E-3,200.861549E-3
372.524071E-3,201.103020E-3
372.446823E-3,201.508713E-3
372.971535E-3,202.059746E-3
372.785568E-3,201.751900E-3
372.764969E-3,201.350212E-3
372.629929E-3,201.201439E-3
372.001076E-3,200.439262E-3
372.282028E-3,200.246429E-3
372.012520E-3,199.808121E-3
371.797943E-3,199.649048E-3
372.063446E-3,199.976349E-3
371.805382E-3,199.880791E-3
372.287750E-3,200.642395E-3
372.152710E-3,200.815773E-3
372.695732E-3,201.415443E-3
373.233032E-3,202.451706E-3
373.118019E-3,202.903175E-3
373.606682E-3,203.560638E-3
373.675346E-3,204.242134E-3
374.095917E-3,204.805756E-3
374.394608E-3,205.522728E-3
374.169731E-3,205.787086E-3
374.474716E-3,206.540108E-3
374.477577E-3,206.650543E-3
374.725342E-3,206.802750E-3
375.163651E-3,207.256508E-3
374.866676E-3,207.051659E-3
375.568771E-3,207.835579E-3
375.120163E-3,207.984352E-3
375.018883E-3,207.925415E-3
375.343323E-3,208.059311E-3
375.297546E-3,207.949448E-3
375.771332E-3,208.314514E-3
375.604820E-3,208.588600E-3
375.683784E-3,208.258438E-3
375.705528E-3,208.608627E-3
375.256920E-3,208.695030E-3
375.658035E-3,208.973694E-3
375.679779E-3,208.824348E-3
375.816536E-3,209.009171E-3
375.860596E-3,209.044075E-3
375.546455E-3,208.783722E-3
376.016235E-3,209.096146E-3
375.862312E-3,209.109306E-3
375.970459E-3,209.152794E-3
375.983047E-3,209.423447E-3
375.718689E-3,209.294701E-3
375.888634E-3,209.594536E-3
375.976181E-3,209.629440E-3
376.124382E-3,209.996223E-3
376.334381E-3,210.444260E-3
376.162720E-3,210.312653E-3
376.435661E-3,210.729790E-3
376.574707E-3,210.982132E-3
376.530647E-3,211.534309E-3
376.979828E-3,212.395477E-3
376.833344E-3,212.431526E-3
376.897430E-3,212.991142E-3
377.073097E-3,213.134766E-3
377.136040E-3,213.583374E-3
377.566338E-3,213.962173E-3
377.112579E-3,213.621140E-3
377.315140E-3,213.434601E-3
376.668549E-3,212.250137E-3
376.277161E-3,210.654259E-3
374.879265E-3,208.522797E-3
372.931480E-3,204.496193E-3
371.249771E-3,200.733948E-3
369.154930E-3,196.810913E-3
367.668343E-3,192.934799E-3
366.860390E-3,190.932655E-3
365.911102E-3,189.149094E-3
365.661049E-3,188.565445E-3
365.733719E-3,188.290215E-3
366.294479E-3,188.735390E-3
367.178535E-3,190.340424E-3
367.410851E-3,191.271973E-3
368.364143E-3,192.781448E-3
368.819046E-3,193.973923E-3
369.481087E-3,195.086288E-3
370.020676E-3,195.924568E-3
369.883919E-3,195.835304E-3
370.337105E-3,196.273613E-3
370.274162E-3,196.256447E-3
370.084190E-3,195.916557E-3
370.033264E-3,195.967484E-3
369.568062E-3,195.162392E-3
369.973183E-3,195.346642E-3
369.830132E-3,195.368958E-3
370.159721E-3,195.584106E-3
370.614624E-3,196.533966E-3
370.843506E-3,196.998024E-3
371.467781E-3,197.986794E-3
371.726418E-3,198.724937E-3
371.945572E-3,199.226189E-3
372.292328E-3,199.845886E-3
372.171021E-3,199.722862E-3
372.821617E-3,199.967766E-3
372.940636E-3,199.372673E-3
372.830772E-3,199.203873E-3
372.871971E-3,199.256516E-3
372.691727E-3,198.901176E-3
373.008156E-3,199.250221E-3
372.994995E-3,199.314308E-3
372.883415E-3,199.568367E-3
373.405266E-3,200.244141E-3
373.330307E-3,200.541115E-3
373.710823E-3,201.179123E-3
373.884773E-3,201.536179E-3
374.240685E-3,202.709198E-3
374.994850E-3,203.316307E-3
375.000572E-3,203.489113E-3
375.394249E-3,204.006386E-3
375.258636E-3,204.383469E-3
375.409698E-3,205.086708E-3
375.854301E-3,205.772209E-3
375.837708E-3,205.818558E-3
376.273727E-3,206.252861E-3
376.066589E-3,206.483459E-3
376.479149E-3,206.738663E-3
376.833344E-3,207.134628E-3
376.320076E-3,206.854820E-3
377.124596E-3,207.508278E-3
376.803017E-3,207.540894E-3
376.934624E-3,207.734299E-3
377.037048E-3,207.805252E-3
376.835060E-3,207.495689E-3
377.031326E-3,207.911110E-3
376.884842E-3,207.861328E-3
376.871681E-3,207.915688E-3
377.129173E-3,208.245277E-3
376.951790E-3,208.119392E-3
377.177238E-3,208.445549E-3
376.979256E-3,208.333969E-3
377.366638E-3,208.550835E-3
377.438736E-3,209.015465E-3
377.267647E-3,209.084129E-3
377.608681E-3,209.561348E-3
377.443886E-3,209.426308E-3
377.779770E-3,209.865189E-3
377.958298E-3,210.171318E-3
377.644157E-3,209.900665E-3
378.079605E-3,210.715485E-3
378.009796E-3,210.608482E-3
378.112793E-3,210.902023E-3
378.004646E-3,210.882568E-3
377.800369E-3,210.858536E-3
378.345680E-3,211.295700E-3
378.276443E-3,211.536598E-3
378.491592E-3,211.988068E-3
378.786278E-3,212.420654E-3
378.648949E-3,212.424088E-3
378.814316E-3,212.756538E-3
378.899574E-3,212.710190E-3
379.077530E-3,213.268089E-3
379.800224E-3,214.128113E-3
379.377365E-3,214.150429E-3
379.313278E-3,214.373016E-3
379.096985E-3,214.141846E-3
379.207993E-3,214.005661E-3
379.142761E-3,213.460922E-3
378.132248E-3,211.669350E-3
377.218437E-3,209.354782E-3
375.243759E-3,205.789375E-3
373.556900E-3,202.162170E-3
371.961594E-3,198.449707E-3
370.232391E-3,194.811630E-3
369.593239E-3,192.614365E-3
368.632507E-3,190.937233E-3
368.363571E-3,190.248299E-3
368.367577E-3,190.297508E-3
368.686867E-3,190.522385E-3
369.825554E-3,191.870499E-3
370.428085E-3,193.033791E-3
371.201706E-3,194.664574E-3
371.999931E-3,195.969200E-3
372.204208E-3,196.539116E-3
372.873116E-3,197.419167E-3
372.802162E-3,197.945023E-3
372.727203E-3,198.390198E-3
372.939491E-3,198.216248E-3
372.579002E-3,197.785378E-3
372.565269E-3,197.658920E-3
372.376442E-3,197.216034E-3
372.105217E-3,196.897316E-3
372.385025E-3,197.308731E-3
372.336960E-3,197.317314E-3
372.905731E-3,198.185921E-3
373.340607E-3,199.079704E-3
373.792648E-3,199.848175E-3
374.286461E-3,200.873566E-3
374.273872E-3,200.923920E-3
374.331093E-3,201.119041E-3
374.210930E-3,200.712204E-3
374.165154E-3,200.571442E-3
374.220657E-3,200.518227E-3
373.790932E-3,199.884224E-3
373.674202E-3,199.794960E-3
373.623848E-3,199.473381E-3
373.519707E-3,199.736023E-3
374.007225E-3,200.327682E-3
373.985481E-3,200.549126E-3
374.226379E-3,201.217461E-3
374.428368E-3,201.400566E-3
374.585724E-3,202.107239E-3
375.283813E-3,202.946091E-3
375.304413E-3,203.330612E-3
375.885201E-3,204.367447E-3
375.687218E-3,204.523659E-3
376.149559E-3,205.065536E-3
376.436234E-3,205.656052E-3
376.382446E-3,205.623436E-3
376.944351E-3,206.570435E-3
376.717758E-3,206.544113E-3
376.873970E-3,206.592178E-3
377.110291E-3,207.014465E-3
376.777267E-3,206.799316E-3
376.885414E-3,207.001877E-3
376.942062E-3,206.811333E-3
377.008438E-3,207.435608E-3
377.351761E-3,207.920265E-3
377.244186E-3,207.873344E-3
377.327156E-3,208.159447E-3
376.966095E-3,207.982635E-3
377.254486E-3,208.091927E-3
377.533150E-3,208.450127E-3
377.173805E-3,208.276176E-3
377.531433E-3,208.923912E-3
377.352333E-3,208.702469E-3
377.678490E-3,209.070396E-3
377.630997E-3,208.986855E-3
377.371788E-3,208.863831E-3
377.861023E-3,209.311295E-3
377.622414E-3,209.261513E-3
377.470779E-3,209.262085E-3
377.741432E-3,209.678650E-3
377.641869E-3,209.441757E-3
377.640152E-3,209.861755E-3
377.497673E-3,209.808540E-3
377.732277E-3,210.386467E-3
378.075600E-3,210.783577E-3
377.772331E-3,210.658836E-3
378.067589E-3,210.993576E-3
377.976608E-3,211.336899E-3
378.303909E-3,211.518860E-3
378.602600E-3,212.182045E-3
378.426361E-3,212.405777E-3
378.993416E-3,213.142776E-3
378.962517E-3,213.173676E-3
378.830338E-3,213.600540E-3
379.064941E-3,213.903809E-3
378.840065E-3,213.900948E-3
379.234314E-3,214.572144E-3
378.994560E-3,214.272308E-3
379.027176E-3,214.220238E-3
378.453827E-3,213.307571E-3
377.802658E-3,211.432457E-3
376.778412E-3,209.139061E-3
375.024033E-3,205.849457E-3
373.356056E-3,202.356720E-3
371.720123E-3,198.794174E-3
369.969749E-3,195.452499E-3
368.799019E-3,192.986298E-3
368.001366E-3,191.130638E-3
367.943001E-3,190.628815E-3
368.272018E-3,191.147232E-3
368.834496E-3,191.730881E-3
369.513702E-3,192.932510E-3
370.023537E-3,194.029999E-3
370.831490E-3,195.395279E-3
371.769905E-3,196.864700E-3
371.990776E-3,197.739601E-3
372.796440E-3,199.014473E-3
372.873688E-3,199.425316E-3
373.044205E-3,199.687386E-3
373.178673E-3,199.602127E-3
372.771263E-3,199.412727E-3
372.940063E-3,199.348068E-3
372.421646E-3,199.056816E-3
372.462273E-3,199.184418E-3
373.068237E-3,199.880219E-3
373.008156E-3,200.007820E-3
373.717117E-3,201.133919E-3
373.723984E-3,201.569939E-3
374.231529E-3,202.448845E-3
374.659538E-3,203.138924E-3
374.375153E-3,202.896309E-3
374.925041E-3,203.271675E-3
374.287605E-3,202.667427E-3
374.044991E-3,202.396774E-3
374.062157E-3,201.886940E-3
373.542023E-3,201.177406E-3
373.729134E-3,201.479530E-3
373.678780E-3,201.172829E-3
373.849297E-3,201.363373E-3
374.025536E-3,201.742172E-3
373.871613E-3,201.794815E-3
374.313927E-3,202.458572E-3
374.406624E-3,203.001595E-3
374.630356E-3,203.700256E-3
375.318146E-3,204.750252E-3
375.407410E-3,205.177116E-3
375.745010E-3,205.924988E-3
375.815964E-3,206.095505E-3
376.022530E-3,207.190704E-3
376.490593E-3,207.578087E-3
376.155853E-3,207.828140E-3
376.922607E-3,208.293915E-3
376.898003E-3,208.467865E-3
377.239037E-3,208.626366E-3
377.257347E-3,208.997154E-3
377.117729E-3,208.856392E-3
377.141762E-3,209.456635E-3
376.993561E-3,209.313583E-3
377.017021E-3,209.646606E-3
377.538300E-3,210.122681E-3
377.519989E-3,209.699821E-3
377.519417E-3,209.588242E-3
377.185249E-3,209.764481E-3
377.091980E-3,209.815979E-3
377.675056E-3,210.342407E-3
377.458191E-3,209.990501E-3
377.538300E-3,210.253143E-3
377.336311E-3,210.140419E-3
