Notes :


2023-11-22 ¿ÀÈÄ 11:35:08
Volts
Ch : LED 2,Ch : LED 3,
849.817085E-3,679.264069E-3
849.890900E-3,679.455185E-3
849.940109E-3,679.372215E-3
850.139236E-3,679.795647E-3
850.148392E-3,679.876328E-3
850.019646E-3,679.694366E-3
850.135231E-3,679.844856E-3
849.954414E-3,679.606247E-3
850.012779E-3,679.659462E-3
849.884033E-3,679.567909E-3
849.675751E-3,679.276085E-3
849.538422E-3,678.951645E-3
849.055481E-3,678.497887E-3
848.761940E-3,678.256416E-3
848.428917E-3,677.910233E-3
848.001480E-3,677.484512E-3
847.874451E-3,677.395821E-3
847.727394E-3,677.099991E-3
847.706223E-3,677.016449E-3
847.498512E-3,676.838493E-3
847.242737E-3,676.631355E-3
847.115707E-3,676.514626E-3
846.753502E-3,676.332092E-3
846.672821E-3,676.218796E-3
846.487427E-3,676.111794E-3
846.483421E-3,676.027107E-3
846.630478E-3,676.012802E-3
846.487427E-3,675.782776E-3
846.493149E-3,675.918961E-3
846.219635E-3,675.742722E-3
845.962143E-3,675.509834E-3
845.839119E-3,675.341606E-3
845.568466E-3,675.080109E-3
845.666885E-3,675.028038E-3
845.724678E-3,675.067520E-3
845.859718E-3,674.913025E-3
846.183014E-3,674.902153E-3
846.003914E-3,674.797440E-3
845.935822E-3,674.875259E-3
845.662880E-3,674.712181E-3
845.327568E-3,674.497604E-3
845.188522E-3,674.550247E-3
845.018005E-3,674.317360E-3
845.232582E-3,674.425507E-3
845.393372E-3,674.428368E-3
845.551872E-3,674.503326E-3
845.738983E-3,674.617195E-3
845.543861E-3,674.490166E-3
845.640564E-3,674.403191E-3
845.308685E-3,674.332809E-3
844.996262E-3,674.240112E-3
844.726181E-3,674.086189E-3
844.432068E-3,673.720551E-3
844.491005E-3,673.592377E-3
844.386864E-3,673.489380E-3
844.223213E-3,673.274231E-3
844.150543E-3,673.215866E-3
843.995476E-3,673.138046E-3
844.026375E-3,673.102570E-3
843.999481E-3,673.143196E-3
844.133377E-3,673.461342E-3
845.114708E-3,674.474144E-3
846.465683E-3,676.072311E-3
848.518753E-3,678.294754E-3
850.678253E-3,680.593300E-3
852.775383E-3,682.945061E-3
854.748344E-3,685.099411E-3
855.901909E-3,686.455536E-3
856.747627E-3,687.379074E-3
856.778526E-3,687.590218E-3
856.376839E-3,687.097549E-3
855.808067E-3,686.417198E-3
854.893112E-3,685.384941E-3
854.199600E-3,684.465408E-3
853.276062E-3,683.419991E-3
852.434349E-3,682.360268E-3
851.737976E-3,681.559181E-3
851.010132E-3,680.744934E-3
850.596428E-3,680.336952E-3
850.300026E-3,680.179596E-3
850.290871E-3,679.967880E-3
850.508881E-3,680.212212E-3
850.710297E-3,680.371857E-3
850.999832E-3,680.727768E-3
851.111412E-3,680.929756E-3
851.115417E-3,680.860519E-3
851.035881E-3,680.960655E-3
850.592995E-3,680.552673E-3
850.459099E-3,680.228233E-3
850.161552E-3,679.922104E-3
849.966431E-3,679.587936E-3
850.142097E-3,679.706955E-3
850.011063E-3,679.583931E-3
850.185585E-3,679.698372E-3
850.316048E-3,679.861450E-3
850.184441E-3,679.892921E-3
850.281715E-3,680.039406E-3
850.233078E-3,679.978180E-3
850.360680E-3,680.094910E-3
850.452805E-3,680.125237E-3
850.458527E-3,679.938126E-3
850.564384E-3,679.847717E-3
850.229645E-3,679.565620E-3
850.052834E-3,679.220581E-3
849.530411E-3,678.869820E-3
848.840904E-3,678.458405E-3
848.472977E-3,678.186035E-3
848.066139E-3,677.727127E-3
848.056984E-3,677.510834E-3
847.941399E-3,677.249336E-3
847.798347E-3,677.045059E-3
847.809219E-3,676.950645E-3
847.484779E-3,676.577568E-3
847.288513E-3,676.497459E-3
846.976662E-3,676.272011E-3
846.773529E-3,676.018524E-3
846.635056E-3,676.067734E-3
846.432495E-3,675.914383E-3
846.562386E-3,676.049423E-3
846.617889E-3,676.028252E-3
846.577263E-3,675.973320E-3
846.748352E-3,676.112938E-3
846.492004E-3,675.968742E-3
846.453094E-3,675.997925E-3
846.318054E-3,675.938416E-3
846.154404E-3,675.793076E-3
846.368980E-3,676.007652E-3
846.219063E-3,675.741005E-3
846.370697E-3,675.816536E-3
846.293449E-3,675.737000E-3
846.203041E-3,675.758171E-3
846.239662E-3,675.857162E-3
846.046829E-3,675.645447E-3
845.904922E-3,675.572777E-3
845.812225E-3,675.468636E-3
845.636559E-3,675.374222E-3
845.833397E-3,675.539589E-3
845.780754E-3,675.417137E-3
845.817375E-3,675.398254E-3
845.715523E-3,675.391388E-3
845.520973E-3,675.110435E-3
845.380211E-3,675.102425E-3
845.031166E-3,674.827194E-3
844.948196E-3,674.676704E-3
844.668961E-3,674.377441E-3
844.334793E-3,674.132538E-3
844.353104E-3,673.999214E-3
844.159698E-3,673.791504E-3
844.141388E-3,673.630714E-3
844.071579E-3,673.459625E-3
843.741989E-3,673.209572E-3
843.862152E-3,673.261070E-3
843.588066E-3,673.150063E-3
843.672752E-3,673.325729E-3
844.090462E-3,673.830986E-3
845.043182E-3,674.936485E-3
846.819305E-3,676.862526E-3
848.786545E-3,678.964806E-3
851.182938E-3,681.529999E-3
853.236008E-3,683.825111E-3
854.684830E-3,685.546875E-3
855.893326E-3,687.003136E-3
856.189728E-3,687.504387E-3
856.141663E-3,687.597084E-3
855.646706E-3,687.195396E-3
854.891396E-3,686.363983E-3
854.231071E-3,685.404396E-3
853.251457E-3,684.265137E-3
852.334213E-3,683.268929E-3
851.492500E-3,682.185173E-3
850.613594E-3,681.285667E-3
850.113487E-3,680.774689E-3
849.621391E-3,680.216217E-3
849.467468E-3,679.942703E-3
849.457741E-3,680.149841E-3
849.648857E-3,680.184174E-3
849.950981E-3,680.384445E-3
850.061989E-3,680.522346E-3
850.268555E-3,680.652237E-3
850.032806E-3,680.508614E-3
849.636841E-3,680.270004E-3
849.464607E-3,679.967880E-3
849.066353E-3,679.729843E-3
848.872948E-3,679.464912E-3
848.838043E-3,679.468918E-3
848.974800E-3,679.476357E-3
849.404526E-3,679.769897E-3
849.573326E-3,679.946136E-3
849.864006E-3,680.264282E-3
850.059128E-3,680.512047E-3
850.064278E-3,680.566978E-3
850.232506E-3,680.706596E-3
849.971581E-3,680.586433E-3
849.935532E-3,680.413628E-3
849.757004E-3,680.126953E-3
849.315834E-3,679.706955E-3
849.124146E-3,679.428864E-3
848.479843E-3,678.949356E-3
848.002625E-3,678.531647E-3
847.571754E-3,678.117371E-3
847.170639E-3,677.592659E-3
846.978378E-3,677.420998E-3
846.578979E-3,677.015305E-3
846.509171E-3,676.773834E-3
846.492004E-3,676.738930E-3
846.215630E-3,676.531219E-3
846.210480E-3,676.543236E-3
846.041107E-3,676.341248E-3
845.877457E-3,676.213646E-3
845.751572E-3,676.069450E-3
845.528412E-3,676.056290E-3
845.607376E-3,676.102066E-3
845.463753E-3,675.938988E-3
845.461464E-3,675.910950E-3
845.472908E-3,675.987053E-3
845.317268E-3,675.904655E-3
845.404243E-3,675.892067E-3
845.256615E-3,675.732994E-3
845.256042E-3,675.710678E-3
845.257187E-3,675.694656E-3
845.159912E-3,675.484657E-3
845.284081E-3,675.581932E-3
845.103264E-3,675.445175E-3
845.036316E-3,675.378799E-3
845.000267E-3,675.328445E-3
844.774246E-3,675.241470E-3
844.848061E-3,675.380516E-3
844.691277E-3,675.175095E-3
844.697571E-3,675.128174E-3
844.690132E-3,675.077248E-3
844.453239E-3,674.802017E-3
844.454956E-3,674.792862E-3
844.155121E-3,674.447250E-3
843.926239E-3,674.320221E-3
843.842697E-3,674.192047E-3
843.483353E-3,673.782921E-3
843.408966E-3,673.618698E-3
842.964935E-3,673.416710E-3
842.904854E-3,673.204994E-3
842.946053E-3,673.085403E-3
842.683411E-3,672.886848E-3
842.768669E-3,672.837639E-3
842.558670E-3,672.652817E-3
842.985535E-3,673.068810E-3
843.557167E-3,674.039268E-3
844.862938E-3,675.535583E-3
846.780968E-3,677.595520E-3
848.859787E-3,679.992485E-3
851.152611E-3,682.401466E-3
853.162766E-3,684.495735E-3
854.580116E-3,686.046982E-3
855.352020E-3,687.111282E-3
855.243874E-3,687.374496E-3
854.930305E-3,687.060356E-3
854.454231E-3,686.460114E-3
853.571892E-3,685.492516E-3
852.797699E-3,684.562683E-3
851.856422E-3,683.376503E-3
851.036453E-3,682.365417E-3
850.453377E-3,681.622696E-3
849.700356E-3,680.715752E-3
849.373627E-3,680.326653E-3
848.887825E-3,679.898071E-3
848.829460E-3,679.902649E-3
849.044609E-3,679.896927E-3
849.092102E-3,680.123520E-3
849.522400E-3,680.415916E-3
849.601936E-3,680.449677E-3
849.734688E-3,680.482292E-3
849.668884E-3,680.470276E-3
849.239731E-3,680.001640E-3
848.878098E-3,679.645157E-3
848.340797E-3,679.182816E-3
847.982025E-3,678.839493E-3
848.187447E-3,678.787994E-3
848.236084E-3,678.798866E-3
848.484421E-3,678.959084E-3
848.635483E-3,679.154205E-3
848.756218E-3,679.329300E-3
848.898697E-3,679.486656E-3
848.796272E-3,679.549026E-3
848.935318E-3,679.567909E-3
848.792267E-3,679.467201E-3
848.779678E-3,679.370499E-3
848.832893E-3,679.278946E-3
848.539352E-3,678.873825E-3
848.470688E-3,678.701591E-3
848.039818E-3,678.227234E-3
847.586632E-3,677.973747E-3
847.169495E-3,677.572060E-3
846.732903E-3,677.102280E-3
846.470261E-3,676.948929E-3
846.220207E-3,676.510620E-3
846.109772E-3,676.336670E-3
846.025085E-3,676.169014E-3
845.738411E-3,675.873184E-3
845.839691E-3,675.857162E-3
845.524406E-3,675.540733E-3
845.405388E-3,675.569916E-3
845.461464E-3,675.504684E-3
845.205688E-3,675.281525E-3
845.269775E-3,675.334167E-3
845.159912E-3,675.197411E-3
845.138741E-3,675.132179E-3
845.150757E-3,675.184250E-3
845.032310E-3,674.975395E-3
845.041466E-3,675.034904E-3
844.839478E-3,674.963951E-3
844.840050E-3,674.857521E-3
844.774818E-3,674.838066E-3
844.648361E-3,674.626350E-3
844.768524E-3,674.636650E-3
844.730759E-3,674.549103E-3
844.707298E-3,674.608040E-3
844.674683E-3,674.666405E-3
844.453812E-3,674.494743E-3
844.459534E-3,674.524498E-3
844.256401E-3,674.325371E-3
844.255257E-3,674.194336E-3
844.287872E-3,674.231529E-3
844.137383E-3,674.065018E-3
844.336510E-3,674.182892E-3
844.331932E-3,674.127960E-3
844.128227E-3,674.161720E-3
844.076157E-3,674.044991E-3
843.754578E-3,673.714256E-3
843.612671E-3,673.677063E-3
843.346596E-3,673.409271E-3
843.146324E-3,673.187256E-3
843.118858E-3,673.079681E-3
842.760086E-3,672.724915E-3
842.775536E-3,672.633362E-3
842.529488E-3,672.359276E-3
842.571831E-3,672.235107E-3
842.524910E-3,672.184753E-3
842.292595E-3,671.886635E-3
842.456818E-3,672.213936E-3
842.936325E-3,672.869110E-3
844.042397E-3,674.231529E-3
845.888901E-3,676.230812E-3
847.809219E-3,678.372002E-3
850.139809E-3,681.021881E-3
852.176285E-3,683.209991E-3
853.840828E-3,684.899712E-3
854.974365E-3,686.116791E-3
855.290794E-3,686.538506E-3
855.283928E-3,686.635780E-3
854.751778E-3,685.970879E-3
854.022789E-3,685.206413E-3
853.272057E-3,684.340668E-3
852.258110E-3,683.179665E-3
851.525688E-3,682.331657E-3
850.708580E-3,681.378937E-3
850.069427E-3,680.806732E-3
849.585915E-3,680.277443E-3
849.172211E-3,679.726410E-3
849.254036E-3,679.784775E-3
849.197960E-3,679.756737E-3
849.406242E-3,679.905510E-3
849.772453E-3,680.232239E-3
849.913216E-3,680.455971E-3
850.177002E-3,680.763245E-3
850.099182E-3,680.603027E-3
849.872017E-3,680.395889E-3
849.562454E-3,680.206490E-3
848.953056E-3,679.591370E-3
848.740768E-3,679.324722E-3
848.527908E-3,678.945923E-3
848.557091E-3,678.787422E-3
848.804855E-3,678.929901E-3
848.720169E-3,678.790855E-3
848.946762E-3,679.146767E-3
848.943329E-3,679.107857E-3
848.902702E-3,679.232597E-3
848.952484E-3,679.403114E-3
848.819160E-3,679.286957E-3
848.883247E-3,679.257774E-3
848.802567E-3,678.978539E-3
848.771095E-3,678.782845E-3
848.654938E-3,678.641510E-3
848.193741E-3,678.091621E-3
847.900772E-3,677.979469E-3
847.433281E-3,677.447891E-3
847.104836E-3,677.281380E-3
846.924019E-3,676.950645E-3
846.572685E-3,676.508904E-3
846.600723E-3,676.395035E-3
846.397591E-3,676.193619E-3
846.302032E-3,676.028824E-3
846.249962E-3,675.953865E-3
845.891762E-3,675.529861E-3
845.804787E-3,675.611115E-3
845.653725E-3,675.504684E-3
845.553589E-3,675.428009E-3
845.571327E-3,675.441170E-3
845.426559E-3,675.182533E-3
845.648003E-3,675.399971E-3
845.651436E-3,675.383949E-3
845.618820E-3,675.356483E-3
845.693207E-3,675.363922E-3
845.494080E-3,675.115585E-3
845.426559E-3,675.288963E-3
845.299530E-3,675.238037E-3
845.270348E-3,675.082397E-3
845.365906E-3,675.163078E-3
845.170784E-3,674.929047E-3
845.216560E-3,674.967384E-3
845.175934E-3,674.882126E-3
844.995689E-3,674.750519E-3
845.082092E-3,674.723625E-3
844.847488E-3,674.454689E-3
844.967079E-3,674.500465E-3
844.799995E-3,674.435234E-3
844.725037E-3,674.460411E-3
844.786263E-3,674.464417E-3
844.564819E-3,674.230957E-3
844.703865E-3,674.234962E-3
844.648933E-3,674.116516E-3
844.553375E-3,674.113083E-3
844.493294E-3,674.081612E-3
844.295311E-3,673.695946E-3
844.211769E-3,673.632431E-3
843.968010E-3,673.433304E-3
843.585777E-3,673.186111E-3
843.464470E-3,673.101997E-3
843.184662E-3,672.855949E-3
843.221855E-3,672.765541E-3
843.095970E-3,672.694588E-3
842.975235E-3,672.502327E-3
842.999268E-3,672.425652E-3
842.817307E-3,672.226524E-3
842.827606E-3,672.274590E-3
842.880821E-3,672.538376E-3
843.366623E-3,673.175240E-3
844.712448E-3,674.604607E-3
846.490860E-3,676.556396E-3
848.811722E-3,678.984261E-3
850.899696E-3,681.459618E-3
852.814293E-3,683.530998E-3
854.423332E-3,685.293961E-3
855.192375E-3,686.187744E-3
855.470467E-3,686.683273E-3
855.302238E-3,686.525917E-3
854.708862E-3,686.014366E-3
854.062271E-3,685.244751E-3
853.115273E-3,684.174156E-3
852.332497E-3,683.231163E-3
851.378632E-3,682.194901E-3
850.513458E-3,681.229591E-3
849.893761E-3,680.659103E-3
849.204826E-3,680.001068E-3
849.062920E-3,679.708099E-3
848.957634E-3,679.685783E-3
849.081802E-3,679.799652E-3
849.453735E-3,680.007362E-3
849.662018E-3,680.203056E-3
850.057983E-3,680.566978E-3
850.100327E-3,680.707741E-3
849.944115E-3,680.518913E-3
849.751282E-3,680.422211E-3
849.163628E-3,679.737854E-3
848.842621E-3,679.599380E-3
848.667526E-3,679.372215E-3
848.608589E-3,679.156494E-3
848.748207E-3,679.369354E-3
848.848915E-3,679.274940E-3
849.231148E-3,679.726982E-3
849.398232E-3,679.850006E-3
849.503517E-3,679.918098E-3
849.510384E-3,680.172157E-3
849.461174E-3,680.070877E-3
849.520683E-3,680.165863E-3
849.358749E-3,679.896355E-3
849.185371E-3,679.722977E-3
849.052048E-3,679.466629E-3
848.719597E-3,679.105568E-3
848.450661E-3,678.897858E-3
848.079300E-3,678.497314E-3
847.694206E-3,678.131104E-3
847.483063E-3,677.961731E-3
847.098541E-3,677.493095E-3
847.030449E-3,677.504539E-3
846.856499E-3,677.224731E-3
846.584702E-3,677.023888E-3
846.522331E-3,676.931190E-3
846.156120E-3,676.705742E-3
846.251678E-3,676.689720E-3
846.105194E-3,676.505470E-3
845.832825E-3,676.329803E-3
845.892906E-3,676.229668E-3
845.716095E-3,676.060867E-3
845.841408E-3,676.130676E-3
845.808792E-3,675.933266E-3
845.626259E-3,675.881195E-3
845.590210E-3,675.904083E-3
845.418549E-3,675.764465E-3
845.436859E-3,675.732994E-3
845.313263E-3,675.589371E-3
845.233154E-3,675.456047E-3
845.126724E-3,675.411987E-3
845.061493E-3,675.303841E-3
845.117569E-3,675.331306E-3
845.175362E-3,675.264359E-3
845.044327E-3,675.175095E-3
845.051765E-3,675.294113E-3
844.801140E-3,675.077820E-3
844.823456E-3,675.196838E-3
844.757652E-3,675.252342E-3
844.588280E-3,675.095558E-3
844.630051E-3,675.215721E-3
844.398308E-3,674.933624E-3
844.346809E-3,674.881554E-3
844.252396E-3,674.732780E-3
844.113350E-3,674.534798E-3
844.044113E-3,674.433517E-3
843.677330E-3,674.069023E-3
843.523979E-3,673.958015E-3
843.187523E-3,673.703384E-3
842.926025E-3,673.381805E-3
842.859077E-3,673.284531E-3
842.553520E-3,673.097420E-3
842.708015E-3,672.995567E-3
842.597580E-3,672.884560E-3
842.439079E-3,672.859383E-3
842.776108E-3,673.130035E-3
843.301392E-3,673.790359E-3
844.622040E-3,675.319290E-3
846.282005E-3,677.132607E-3
848.384285E-3,679.385948E-3
850.578117E-3,681.764030E-3
852.295303E-3,683.648300E-3
853.727531E-3,685.361481E-3
854.574394E-3,686.248970E-3
854.716873E-3,686.548233E-3
854.651070E-3,686.420631E-3
854.094887E-3,685.802650E-3
853.442574E-3,685.226440E-3
852.854347E-3,684.215927E-3
851.848412E-3,683.234596E-3
851.025009E-3,682.388306E-3
850.122070E-3,681.433868E-3
849.608803E-3,680.921173E-3
849.148750E-3,680.453110E-3
848.839188E-3,680.064011E-3
849.052048E-3,680.203629E-3
849.120712E-3,680.093193E-3
849.335861E-3,680.455399E-3
849.626541E-3,680.725479E-3
849.732399E-3,680.827904E-3
849.854851E-3,680.925751E-3
849.568748E-3,680.699158E-3
849.321556E-3,680.431366E-3
848.982239E-3,679.936409E-3
848.606300E-3,679.646873E-3
848.543358E-3,679.441452E-3
848.381424E-3,679.233170E-3
848.611450E-3,679.197693E-3
848.790550E-3,679.382515E-3
848.873520E-3,679.474068E-3
849.104118E-3,679.832268E-3
848.999405E-3,679.698372E-3
849.164772E-3,679.954147E-3
849.129868E-3,679.904938E-3
849.133873E-3,679.894066E-3
849.176216E-3,679.916382E-3
848.916435E-3,679.528427E-3
848.866081E-3,679.257774E-3
848.583984E-3,678.980255E-3
848.086739E-3,678.544807E-3
847.812080E-3,678.312492E-3
847.153473E-3,677.706528E-3
846.968651E-3,677.510834E-3
846.633911E-3,677.254486E-3
846.402168E-3,676.888847E-3
846.475983E-3,676.744652E-3
846.233368E-3,676.516914E-3
846.199608E-3,676.461983E-3
846.067429E-3,676.234818E-3
845.832825E-3,675.952148E-3
845.760727E-3,675.951004E-3
845.556450E-3,675.723267E-3
845.627975E-3,675.751305E-3
845.468330E-3,675.669479E-3
845.512962E-3,675.613403E-3
845.650864E-3,675.816536E-3
845.491219E-3,675.762177E-3
845.568466E-3,675.825119E-3
845.422554E-3,675.818825E-3
845.257187E-3,675.672913E-3
845.360756E-3,675.747871E-3
845.234299E-3,675.636864E-3
845.256615E-3,675.532150E-3
845.180511E-3,675.555611E-3
845.216560E-3,675.405121E-3
845.338440E-3,675.529861E-3
845.110703E-3,675.318146E-3
845.173073E-3,675.270081E-3
845.008278E-3,675.212860E-3
844.923592E-3,675.157928E-3
844.931030E-3,675.220299E-3
844.755363E-3,675.107002E-3
844.785690E-3,675.062370E-3
844.691849E-3,674.967957E-3
844.676399E-3,674.761963E-3
844.814301E-3,674.920464E-3
844.615173E-3,674.749947E-3
844.416618E-3,674.618340E-3
844.372559E-3,674.369431E-3
844.045258E-3,674.071312E-3
844.010353E-3,674.010658E-3
843.641853E-3,673.688507E-3
843.608093E-3,673.532867E-3
843.384361E-3,673.241615E-3
843.206406E-3,672.965813E-3
843.111420E-3,672.867393E-3
842.848778E-3,672.688866E-3
842.911720E-3,672.721481E-3
842.887115E-3,672.763252E-3
842.951202E-3,672.837639E-3
843.704224E-3,673.680496E-3
844.736481E-3,674.825478E-3
846.508026E-3,676.792717E-3
848.505020E-3,679.075241E-3
850.521469E-3,681.397820E-3
852.604294E-3,683.739281E-3
854.070282E-3,685.346031E-3
855.193520E-3,686.676407E-3
855.634689E-3,687.194252E-3
855.535698E-3,687.045479E-3
855.426407E-3,686.763954E-3
854.600143E-3,685.943413E-3
853.824806E-3,685.148621E-3
853.051758E-3,684.210205E-3
852.145386E-3,683.169937E-3
851.717949E-3,682.561684E-3
850.875664E-3,681.705666E-3
850.466537E-3,681.275368E-3
850.222778E-3,680.972099E-3
850.179291E-3,680.875397E-3
850.555801E-3,681.148338E-3
850.762367E-3,681.224442E-3
851.149750E-3,681.636429E-3
851.352882E-3,681.806946E-3
851.336288E-3,681.861305E-3
851.427841E-3,681.897926E-3
851.078224E-3,681.443024E-3
850.741196E-3,681.137466E-3
850.228500E-3,680.601311E-3
849.763298E-3,680.134392E-3
849.720955E-3,679.875755E-3
849.557877E-3,679.561043E-3
849.510956E-3,679.519272E-3
849.590492E-3,679.567337E-3
849.437141E-3,679.607964E-3
849.716949E-3,679.895782E-3
849.662018E-3,679.921532E-3
849.802208E-3,680.002785E-3
849.807358E-3,679.998207E-3
849.698639E-3,679.894066E-3
849.868584E-3,679.943275E-3
849.672318E-3,679.668045E-3
849.540710E-3,679.405975E-3
849.289513E-3,679.167366E-3
848.920441E-3,678.742218E-3
848.718452E-3,678.644371E-3
848.178291E-3,678.175735E-3
847.936249E-3,677.989197E-3
847.687912E-3,677.766037E-3
847.322845E-3,677.365494E-3
847.419548E-3,677.350044E-3
847.154617E-3,677.044487E-3
847.085381E-3,676.859093E-3
846.953773E-3,676.819038E-3
846.703148E-3,676.563263E-3
846.693420E-3,676.618195E-3
846.582985E-3,676.342964E-3
846.526909E-3,676.342392E-3
846.489143E-3,676.178169E-3
846.295738E-3,676.211357E-3
846.340370E-3,676.215935E-3
846.185303E-3,675.962448E-3
846.265984E-3,675.884056E-3
846.162415E-3,675.886345E-3
845.961571E-3,675.712395E-3
846.058846E-3,675.728416E-3
845.816803E-3,675.567055E-3
845.750427E-3,675.470924E-3
845.749283E-3,675.433731E-3
845.674896E-3,675.280380E-3
845.730972E-3,675.438309E-3
845.631981E-3,675.296402E-3
845.522118E-3,675.292397E-3
845.472908E-3,675.112152E-3
845.281792E-3,674.934769E-3
845.383072E-3,675.096130E-3
845.167351E-3,674.751663E-3
845.096397E-3,674.730492E-3
845.091820E-3,674.684143E-3
844.927025E-3,674.531364E-3
844.966507E-3,674.708176E-3
844.757080E-3,674.626923E-3
844.733620E-3,674.578285E-3
844.698715E-3,674.558258E-3
844.584846E-3,674.391174E-3
844.651222E-3,674.517632E-3
844.402885E-3,674.112511E-3
844.375420E-3,674.039268E-3
844.309616E-3,673.956871E-3
843.978882E-3,673.689079E-3
843.964005E-3,673.568916E-3
843.583488E-3,673.289108E-3
843.491936E-3,673.122597E-3
843.273354E-3,672.916603E-3
843.130875E-3,672.643661E-3
843.215561E-3,672.791862E-3
843.133736E-3,672.594452E-3
843.178940E-3,672.698021E-3
843.424416E-3,673.047066E-3
843.921089E-3,673.645592E-3
845.237732E-3,675.078964E-3
846.838760E-3,676.878548E-3
848.772812E-3,679.157066E-3
851.003265E-3,681.529427E-3
852.786827E-3,683.551598E-3
854.401016E-3,685.294533E-3
855.235863E-3,686.331940E-3
855.742836E-3,686.896706E-3
855.605507E-3,686.965942E-3
855.006981E-3,686.236382E-3
854.455376E-3,685.542297E-3
853.535843E-3,684.531784E-3
852.771378E-3,683.692932E-3
852.020645E-3,682.832909E-3
851.189804E-3,681.956291E-3
850.747490E-3,681.408691E-3
850.197601E-3,680.830193E-3
850.117493E-3,680.632210E-3
850.235367E-3,680.764389E-3
850.345802E-3,680.767822E-3
850.753784E-3,681.084251E-3
850.946617E-3,681.257629E-3
851.160622E-3,681.511688E-3
851.360893E-3,681.701088E-3
851.098251E-3,681.542015E-3
850.872803E-3,681.378937E-3
850.451088E-3,680.870247E-3
850.043106E-3,680.486298E-3
849.638557E-3,680.045700E-3
849.389648E-3,679.683495E-3
849.480057E-3,679.703522E-3
849.552155E-3,679.687500E-3
849.583626E-3,679.733276E-3
849.799919E-3,679.923248E-3
849.711800E-3,680.044556E-3
850.009918E-3,680.232239E-3
849.933815E-3,680.250549E-3
849.912071E-3,680.323219E-3
849.927521E-3,680.344963E-3
849.766159E-3,680.031967E-3
849.679756E-3,680.051422E-3
849.443436E-3,679.626274E-3
849.140739E-3,679.332161E-3
848.846054E-3,679.062653E-3
848.361969E-3,678.699303E-3
848.183441E-3,678.571129E-3
847.834396E-3,678.116798E-3
847.632980E-3,677.908516E-3
847.624969E-3,677.750587E-3
847.410393E-3,677.495384E-3
847.428131E-3,677.445602E-3
847.219849E-3,677.164078E-3
847.014999E-3,677.113724E-3
846.898270E-3,677.188110E-3
846.633339E-3,676.928329E-3
846.612740E-3,676.943779E-3
846.647072E-3,676.946068E-3
846.583557E-3,676.866531E-3
846.650505E-3,676.893425E-3
846.436501E-3,676.679993E-3
846.644783E-3,676.746941E-3
846.468544E-3,676.638794E-3
846.441078E-3,676.581573E-3
846.362114E-3,676.589584E-3
846.101761E-3,676.424789E-3
846.142387E-3,676.462555E-3
846.100044E-3,676.312637E-3
846.007919E-3,676.218796E-3
845.997047E-3,676.226807E-3
845.878029E-3,676.159286E-3
845.905495E-3,676.268578E-3
845.856285E-3,676.096916E-3
845.681763E-3,676.013374E-3
845.639420E-3,675.963020E-3
845.498085E-3,675.822258E-3
845.542145E-3,675.893784E-3
845.403099E-3,675.755310E-3
845.275497E-3,675.776482E-3
845.343590E-3,675.752449E-3
845.151329E-3,675.625992E-3
845.156479E-3,675.613976E-3
844.925308E-3,675.372505E-3
844.827461E-3,675.264931E-3
844.836044E-3,675.214577E-3
844.488144E-3,674.955368E-3
844.460106E-3,674.915314E-3
844.175720E-3,674.716759E-3
844.000053E-3,674.423790E-3
843.869019E-3,674.272156E-3
843.561172E-3,673.923683E-3
843.549156E-3,673.935699E-3
843.403244E-3,673.729706E-3
843.351173E-3,673.622704E-3
843.305969E-3,673.573494E-3
843.066788E-3,673.501968E-3
843.323708E-3,673.833275E-3
843.736267E-3,674.334526E-3
844.783401E-3,675.526428E-3
846.570969E-3,677.414131E-3
848.331642E-3,679.417419E-3
850.358963E-3,681.634712E-3
852.019501E-3,683.500099E-3
853.339005E-3,685.162926E-3
854.302597E-3,686.383438E-3
854.625893E-3,686.701012E-3
854.774094E-3,686.809158E-3
854.318619E-3,686.321068E-3
853.716087E-3,685.632133E-3
853.014565E-3,684.835052E-3
851.993752E-3,683.703232E-3
851.200104E-3,682.791710E-3
850.376129E-3,681.929398E-3
849.752998E-3,681.211853E-3
849.437141E-3,680.797005E-3
849.066353E-3,680.406189E-3
849.140167E-3,680.430794E-3
849.197388E-3,680.378723E-3
849.461174E-3,680.672264E-3
849.783325E-3,680.791283E-3
849.765015E-3,680.698586E-3
849.910927E-3,680.775833E-3
849.766731E-3,680.552673E-3
849.349594E-3,680.201912E-3
848.888969E-3,679.879189E-3
848.435211E-3,679.396820E-3
848.446083E-3,679.241180E-3
848.344803E-3,678.899002E-3
848.525620E-3,679.039764E-3
848.728752E-3,679.223442E-3
848.838615E-3,679.378510E-3
849.097252E-3,679.787636E-3
849.154472E-3,679.841423E-3
849.228859E-3,679.936409E-3
849.373055E-3,680.047417E-3
849.230003E-3,679.866600E-3
849.277496E-3,679.868889E-3
849.160767E-3,679.826546E-3
848.978806E-3,679.379082E-3
848.862076E-3,679.242325E-3
848.356819E-3,678.776550E-3
848.045540E-3,678.516197E-3
847.636986E-3,678.068161E-3
847.356606E-3,677.675056E-3
847.103691E-3,677.588081E-3
846.758080E-3,677.162361E-3
846.704292E-3,677.011871E-3
846.601868E-3,676.773262E-3
846.459389E-3,676.702881E-3
846.388435E-3,676.703453E-3
846.050835E-3,676.352692E-3
846.096611E-3,676.266861E-3
845.975304E-3,676.163292E-3
845.849419E-3,675.992775E-3
845.930672E-3,676.066017E-3
845.723534E-3,675.914955E-3
845.843697E-3,675.958443E-3
845.738983E-3,675.946426E-3
845.834541E-3,675.808525E-3
845.801353E-3,675.791931E-3
845.550728E-3,675.545883E-3
845.695496E-3,675.738144E-3
845.463181E-3,675.643158E-3
845.404816E-3,675.561905E-3
845.498085E-3,675.518990E-3
845.358467E-3,675.246620E-3
845.409966E-3,675.267220E-3
845.220566E-3,675.148773E-3
845.170784E-3,675.159073E-3
845.118713E-3,675.069809E-3
844.876671E-3,674.782562E-3
844.858360E-3,674.791718E-3
844.767380E-3,674.670410E-3
844.651794E-3,674.528503E-3
844.665527E-3,674.514198E-3
844.390297E-3,674.284172E-3
844.491577E-3,674.384308E-3
844.359970E-3,674.154854E-3
844.238663E-3,674.184608E-3
844.251251E-3,674.205208E-3
844.094467E-3,674.098778E-3
844.140816E-3,674.097633E-3
844.057274E-3,673.932838E-3
843.934822E-3,673.824692E-3
843.903351E-3,673.704529E-3
843.676186E-3,673.503113E-3
843.606949E-3,673.401833E-3
843.366051E-3,673.158073E-3
843.186378E-3,672.955513E-3
843.038750E-3,672.790146E-3
842.779541E-3,672.501755E-3
842.768669E-3,672.489166E-3
842.744064E-3,672.328949E-3
842.704010E-3,672.298622E-3
842.870522E-3,672.328949E-3
842.770958E-3,672.373009E-3
843.358040E-3,672.986412E-3
844.243240E-3,674.113083E-3
845.697212E-3,675.867462E-3
847.718239E-3,678.088760E-3
849.749565E-3,680.316925E-3
851.925087E-3,682.761383E-3
853.490639E-3,684.582710E-3
854.625893E-3,685.816383E-3
855.291939E-3,686.632347E-3
855.230141E-3,686.621475E-3
854.956055E-3,686.228943E-3
854.456520E-3,685.582924E-3
853.639412E-3,684.712601E-3
853.033447E-3,683.850288E-3
852.018929E-3,682.788849E-3
851.492500E-3,682.111931E-3
850.833321E-3,681.417847E-3
850.338936E-3,680.854225E-3
850.182724E-3,680.611610E-3
850.081444E-3,680.429077E-3
850.368690E-3,680.673981E-3
850.626183E-3,680.861664E-3
851.039314E-3,681.035614E-3
851.445007E-3,681.491089E-3
851.450729E-3,681.573486E-3
851.546288E-3,681.828690E-3
851.429558E-3,681.586075E-3
851.087379E-3,681.341743E-3
850.683403E-3,680.972099E-3
850.057983E-3,680.228806E-3
849.979019E-3,679.880333E-3
849.722099E-3,679.516983E-3
849.611092E-3,679.284668E-3
849.799919E-3,679.377365E-3
849.676895E-3,679.455757E-3
849.833679E-3,679.558182E-3
849.847984E-3,679.599380E-3
849.766159E-3,679.692650E-3
849.952698E-3,679.825401E-3
849.810791E-3,679.824829E-3
849.952126E-3,679.845428E-3
849.917793E-3,679.652596E-3
849.769592E-3,679.370499E-3
849.623108E-3,679.222298E-3
849.137878E-3,678.803444E-3
848.924446E-3,678.643227E-3
848.545074E-3,678.278160E-3
848.126793E-3,677.881050E-3
847.951126E-3,677.683067E-3
847.687340E-3,677.346611E-3
847.562027E-3,677.267647E-3
847.403526E-3,677.055931E-3
847.283936E-3,676.799583E-3
847.183800E-3,676.723480E-3
846.929741E-3,676.410484E-3
846.910858E-3,676.431084E-3
846.814728E-3,676.380157E-3
846.566391E-3,676.264000E-3
846.660233E-3,676.218796E-3
846.466255E-3,675.971031E-3
846.564102E-3,676.028252E-3
846.520042E-3,675.996780E-3
846.288300E-3,675.782204E-3
846.390152E-3,675.835991E-3
846.142387E-3,675.743866E-3
846.229935E-3,675.791931E-3
846.166420E-3,675.613403E-3
846.095467E-3,675.405121E-3
846.086311E-3,675.427437E-3
845.938683E-3,675.298119E-3
845.862007E-3,675.344467E-3
845.826530E-3,675.179672E-3
845.630836E-3,675.002289E-3
845.752144E-3,675.059509E-3
845.545006E-3,674.831200E-3
845.523834E-3,674.835205E-3
845.429993E-3,674.699593E-3
845.262909E-3,674.474144E-3
845.236588E-3,674.530792E-3
845.009422E-3,674.335098E-3
845.055771E-3,674.185181E-3
844.866943E-3,674.079323E-3
844.631767E-3,674.061012E-3
844.617462E-3,673.951721E-3
844.467545E-3,673.677635E-3
844.488144E-3,673.790359E-3
844.437218E-3,673.768044E-3
844.379997E-3,673.734283E-3
844.495583E-3,673.794365E-3
844.276428E-3,673.583794E-3
844.330788E-3,673.555756E-3
844.136238E-3,673.277092E-3
843.876457E-3,673.090553E-3
843.937111E-3,673.128891E-3
843.569183E-3,672.746086E-3
843.502808E-3,672.779846E-3
843.337440E-3,672.497177E-3
843.049049E-3,672.144699E-3
843.154907E-3,672.191048E-3
843.027306E-3,671.962166E-3
843.073082E-3,672.007370E-3
843.049622E-3,671.858597E-3
842.954063E-3,671.877480E-3
843.510246E-3,672.528648E-3
844.123650E-3,673.349762E-3
845.541000E-3,675.049782E-3
847.357750E-3,677.049065E-3
849.261475E-3,679.156494E-3
851.408958E-3,681.538010E-3
852.999687E-3,683.378220E-3
