Notes :


2023-11-23 ¿ÀÈÄ 11:00:46
Volts
Ch : LED 2,Ch : LED 3,
371.015739E-3,195.212746E-3
372.521210E-3,197.117043E-3
373.174095E-3,198.243141E-3
374.176025E-3,199.675941E-3
374.823761E-3,200.862122E-3
374.753380E-3,201.525307E-3
375.345039E-3,202.447128E-3
375.338173E-3,202.189064E-3
375.787354E-3,202.496338E-3
375.730133E-3,202.393913E-3
375.315857E-3,202.044868E-3
375.484085E-3,202.113533E-3
375.256348E-3,201.734161E-3
375.448608E-3,201.631165E-3
375.478363E-3,201.944160E-3
375.458908E-3,201.956177E-3
376.115227E-3,203.305435E-3
376.500320E-3,203.911972E-3
376.899719E-3,204.639244E-3
376.951790E-3,205.119324E-3
376.796722E-3,205.187416E-3
377.070236E-3,205.530167E-3
376.950645E-3,205.276680E-3
376.861382E-3,205.152512E-3
376.774979E-3,204.732513E-3
376.332092E-3,204.065895E-3
376.418495E-3,204.554558E-3
376.179886E-3,204.214668E-3
376.463699E-3,204.635811E-3
376.507187E-3,204.854965E-3
376.467705E-3,204.908752E-3
377.046776E-3,205.836868E-3
377.160645E-3,206.203079E-3
377.566910E-3,207.015038E-3
377.667618E-3,207.698822E-3
377.727127E-3,208.075905E-3
378.182602E-3,208.809471E-3
378.414917E-3,209.255219E-3
378.751373E-3,209.875488E-3
378.816032E-3,210.049438E-3
378.632355E-3,210.214233E-3
379.318428E-3,211.072540E-3
379.439735E-3,211.248207E-3
379.599380E-3,211.662483E-3
379.730988E-3,211.877632E-3
379.363060E-3,211.696243E-3
380.002213E-3,212.329102E-3
379.896927E-3,212.287903E-3
380.030251E-3,212.469864E-3
380.307770E-3,212.635803E-3
380.226517E-3,212.841797E-3
380.592728E-3,212.884140E-3
380.244255E-3,212.948799E-3
380.435944E-3,213.146210E-3
380.442810E-3,213.261223E-3
380.231667E-3,212.920761E-3
380.459976E-3,213.375664E-3
380.335236E-3,213.306999E-3
380.566406E-3,213.491249E-3
380.768967E-3,213.595963E-3
380.473137E-3,213.481522E-3
380.845070E-3,214.064026E-3
380.455399E-3,213.672066E-3
380.605316E-3,214.049149E-3
380.957222E-3,214.211082E-3
380.796432E-3,213.959312E-3
381.338310E-3,214.636803E-3
380.909157E-3,214.782143E-3
381.219864E-3,215.057945E-3
381.169510E-3,215.426445E-3
380.909157E-3,215.523720E-3
381.579208E-3,216.058159E-3
381.409264E-3,216.209793E-3
381.555748E-3,216.557121E-3
381.860733E-3,216.803741E-3
381.532860E-3,216.798019E-3
382.345963E-3,217.640305E-3
382.012367E-3,217.700958E-3
382.263565E-3,218.354416E-3
382.442093E-3,218.645668E-3
382.193756E-3,218.379593E-3
382.621765E-3,218.934631E-3
382.318497E-3,218.876839E-3
382.439804E-3,218.991852E-3
382.451820E-3,218.633080E-3
381.678200E-3,217.585945E-3
381.391525E-3,216.275597E-3
379.910088E-3,213.539886E-3
378.638077E-3,210.013962E-3
376.924324E-3,206.421661E-3
374.822044E-3,202.455139E-3
373.896217E-3,199.675369E-3
372.365570E-3,197.089005E-3
371.951866E-3,195.919418E-3
371.888924E-3,195.001602E-3
371.743584E-3,194.542694E-3
372.749519E-3,195.745468E-3
372.947502E-3,196.708488E-3
373.683357E-3,198.378754E-3
374.581718E-3,199.777794E-3
374.957657E-3,200.948524E-3
375.996780E-3,202.663422E-3
376.201630E-3,203.588104E-3
376.725197E-3,204.681015E-3
377.002716E-3,205.294418E-3
376.841927E-3,205.138206E-3
377.021599E-3,205.552483E-3
376.777267E-3,205.227470E-3
376.746368E-3,205.145645E-3
376.742363E-3,205.042076E-3
376.502037E-3,204.917336E-3
376.988411E-3,205.702972E-3
377.269363E-3,206.279755E-3
377.574921E-3,207.329178E-3
377.906227E-3,207.816696E-3
377.619553E-3,207.685089E-3
378.164291E-3,208.108521E-3
377.655029E-3,207.675362E-3
377.639008E-3,207.427025E-3
377.480507E-3,206.766129E-3
376.927757E-3,205.914116E-3
377.169228E-3,205.975914E-3
376.853943E-3,205.686951E-3
377.096558E-3,205.543900E-3
376.816750E-3,205.682945E-3
376.877403E-3,205.927849E-3
377.362061E-3,206.476593E-3
377.510262E-3,207.043076E-3
377.683640E-3,207.797813E-3
378.091049E-3,208.399773E-3
378.094482E-3,208.800316E-3
378.803444E-3,209.789658E-3
379.023743E-3,210.531807E-3
379.236031E-3,211.401558E-3
379.458618E-3,211.811829E-3
379.657173E-3,212.171173E-3
380.017662E-3,212.717056E-3
379.737282E-3,212.663269E-3
379.665184E-3,213.016319E-3
380.005074E-3,213.424873E-3
380.050850E-3,213.430595E-3
380.465126E-3,213.939285E-3
380.097771E-3,213.720703E-3
380.278015E-3,213.985062E-3
380.430222E-3,214.144135E-3
380.172729E-3,213.712692E-3
380.730629E-3,214.166451E-3
380.201340E-3,214.147568E-3
380.206490E-3,214.164162E-3
380.271149E-3,214.344978E-3
380.181313E-3,214.346123E-3
380.455399E-3,214.665413E-3
380.006218E-3,214.554977E-3
380.279732E-3,214.362144E-3
380.520058E-3,214.586449E-3
380.213356E-3,214.589310E-3
380.709457E-3,215.085983E-3
380.303764E-3,215.236473E-3
380.441666E-3,215.487099E-3
380.591011E-3,215.843010E-3
380.538940E-3,215.645599E-3
381.089973E-3,216.201782E-3
380.699158E-3,215.949440E-3
380.948067E-3,215.953445E-3
380.980682E-3,216.335678E-3
380.736923E-3,216.287041E-3
381.261063E-3,216.916466E-3
380.960083E-3,217.106438E-3
381.422424E-3,217.355919E-3
381.347466E-3,217.811966E-3
381.424141E-3,217.850304E-3
381.962013E-3,218.299484E-3
381.867599E-3,218.702888E-3
382.314491E-3,219.132042E-3
382.380295E-3,219.671059E-3
382.157707E-3,219.629288E-3
382.576561E-3,220.354271E-3
382.309341E-3,220.446396E-3
382.483292E-3,220.576859E-3
382.436943E-3,220.664978E-3
382.050133E-3,220.218086E-3
382.023239E-3,219.596672E-3
381.104279E-3,217.698097E-3
379.865456E-3,214.864540E-3
378.159142E-3,211.514854E-3
375.972748E-3,207.340622E-3
374.495316E-3,203.593254E-3
372.973824E-3,199.819565E-3
371.658897E-3,197.014046E-3
370.961952E-3,194.963837E-3
370.403481E-3,193.797684E-3
370.826912E-3,193.630600E-3
370.761108E-3,193.808556E-3
371.671486E-3,195.012474E-3
372.140694E-3,196.529961E-3
372.882271E-3,198.116112E-3
373.976326E-3,199.725151E-3
374.133110E-3,200.788307E-3
374.914742E-3,202.125549E-3
375.397110E-3,203.070831E-3
375.387383E-3,203.374672E-3
375.755310E-3,203.526306E-3
375.478935E-3,203.394699E-3
375.248337E-3,203.334618E-3
375.254059E-3,203.242493E-3
374.965668E-3,202.677727E-3
375.292397E-3,202.762985E-3
374.975395E-3,202.246857E-3
375.338173E-3,202.717781E-3
375.755310E-3,203.681946E-3
375.965309E-3,204.032707E-3
376.565552E-3,205.187988E-3
376.446533E-3,205.375671E-3
376.728058E-3,205.866051E-3
376.742363E-3,205.796814E-3
376.526070E-3,205.665207E-3
376.842499E-3,205.801964E-3
376.306343E-3,205.455208E-3
376.182747E-3,205.398560E-3
376.276588E-3,205.323029E-3
375.854301E-3,204.962540E-3
376.326370E-3,205.211449E-3
376.121521E-3,205.153084E-3
376.496315E-3,205.405426E-3
376.514053E-3,205.928421E-3
376.705742E-3,206.410789E-3
377.481079E-3,207.387543E-3
377.648735E-3,207.783508E-3
378.058434E-3,208.840370E-3
378.279305E-3,209.456635E-3
378.223801E-3,209.634590E-3
378.879547E-3,210.658836E-3
379.038620E-3,210.866547E-3
379.381371E-3,211.415863E-3
379.251480E-3,212.030411E-3
379.513550E-3,211.887360E-3
379.762459E-3,212.516212E-3
379.605675E-3,212.596321E-3
379.796791E-3,212.971687E-3
380.015373E-3,212.980270E-3
379.720116E-3,212.928200E-3
380.102921E-3,213.371086E-3
380.006790E-3,213.552475E-3
379.991913E-3,213.895226E-3
380.051994E-3,213.827705E-3
379.764748E-3,213.533592E-3
380.094910E-3,213.917542E-3
379.835129E-3,213.890076E-3
380.207062E-3,214.059448E-3
380.276299E-3,213.800240E-3
379.917526E-3,213.783073E-3
380.242538E-3,214.207077E-3
380.136681E-3,214.313507E-3
380.304909E-3,214.546967E-3
380.303192E-3,214.734650E-3
379.999924E-3,214.545250E-3
380.462265E-3,214.948082E-3
380.498886E-3,215.135765E-3
380.555534E-3,215.447044E-3
380.589294E-3,215.887642E-3
380.429649E-3,215.768051E-3
380.674553E-3,215.958023E-3
380.619621E-3,216.288757E-3
380.973244E-3,216.838646E-3
381.130600E-3,217.054939E-3
380.791855E-3,216.831779E-3
381.271362E-3,217.296982E-3
381.206703E-3,217.488670E-3
381.531143E-3,217.643738E-3
381.545448E-3,217.787361E-3
381.226730E-3,217.710114E-3
381.640434E-3,218.081474E-3
381.521416E-3,218.203926E-3
381.842995E-3,218.625069E-3
381.831551E-3,218.887138E-3
381.731415E-3,219.035339E-3
382.124519E-3,219.526291E-3
381.985474E-3,219.795799E-3
382.436371E-3,220.180321E-3
382.533646E-3,220.429230E-3
382.187462E-3,220.254707E-3
382.455254E-3,220.561981E-3
382.462692E-3,220.721626E-3
382.459831E-3,220.660973E-3
382.125664E-3,219.701958E-3
381.225586E-3,217.977905E-3
380.351830E-3,215.869331E-3
378.630066E-3,212.592888E-3
377.053070E-3,208.553696E-3
375.255203E-3,204.631233E-3
373.147202E-3,200.535393E-3
372.114372E-3,197.690964E-3
371.040916E-3,195.346069E-3
370.983124E-3,194.182205E-3
370.874405E-3,194.051170E-3
370.903015E-3,194.345856E-3
371.784210E-3,195.486259E-3
372.298050E-3,196.687889E-3
373.178673E-3,198.435402E-3
374.230385E-3,200.148582E-3
374.871826E-3,201.299286E-3
375.711250E-3,202.704048E-3
375.775909E-3,203.563499E-3
376.035118E-3,204.315376E-3
376.475143E-3,204.765701E-3
376.235962E-3,204.594040E-3
376.450539E-3,204.781723E-3
376.097488E-3,204.125404E-3
375.874901E-3,204.085922E-3
375.716400E-3,203.879929E-3
375.512123E-3,203.277397E-3
376.091766E-3,203.802681E-3
375.892067E-3,204.053879E-3
376.353836E-3,204.671860E-3
376.758957E-3,205.522728E-3
377.024460E-3,206.161308E-3
377.394104E-3,206.686592E-3
377.110291E-3,206.780434E-3
377.198982E-3,206.758118E-3
377.342033E-3,206.623650E-3
377.048492E-3,205.915260E-3
377.376938E-3,206.112099E-3
376.812172E-3,205.586243E-3
376.832199E-3,205.697250E-3
377.000999E-3,205.815697E-3
376.839638E-3,205.796242E-3
377.403259E-3,206.522369E-3
377.055931E-3,206.529236E-3
377.443886E-3,207.056236E-3
377.994347E-3,207.801819E-3
378.029823E-3,208.228683E-3
378.816032E-3,209.317017E-3
378.722191E-3,209.741020E-3
379.028320E-3,210.411644E-3
379.493523E-3,210.906601E-3
379.479790E-3,211.046219E-3
379.988480E-3,211.970329E-3
379.676628E-3,212.182617E-3
379.856873E-3,212.627792E-3
379.958153E-3,212.933350E-3
380.096626E-3,213.035774E-3
380.478859E-3,213.546181E-3
380.051994E-3,213.624001E-3
380.288887E-3,213.668060E-3
380.420494E-3,214.061737E-3
380.152702E-3,213.746452E-3
380.748940E-3,214.098930E-3
380.300331E-3,214.039421E-3
380.467415E-3,214.276886E-3
380.648804E-3,214.305496E-3
380.367279E-3,214.097786E-3
380.872536E-3,214.587593E-3
380.422783E-3,214.577866E-3
380.736923E-3,214.753532E-3
381.017876E-3,215.028763E-3
380.627632E-3,214.567566E-3
380.880547E-3,215.129471E-3
380.916595E-3,215.206718E-3
381.222725E-3,215.659904E-3
381.167221E-3,215.877914E-3
380.916595E-3,215.622711E-3
381.540871E-3,215.946579E-3
381.420708E-3,216.165161E-3
381.686211E-3,216.602325E-3
381.747437E-3,217.049217E-3
381.529999E-3,216.984558E-3
381.784630E-3,217.284393E-3
381.869888E-3,217.539024E-3
382.265854E-3,218.099213E-3
382.074165E-3,218.121529E-3
381.837273E-3,218.239975E-3
382.256126E-3,218.599892E-3
382.203484E-3,218.431091E-3
382.666969E-3,219.002724E-3
382.624626E-3,219.207573E-3
382.520485E-3,219.131470E-3
382.656097E-3,219.301414E-3
382.486725E-3,219.305992E-3
382.689285E-3,219.734573E-3
382.713890E-3,219.835281E-3
382.641792E-3,219.997215E-3
382.926178E-3,220.162010E-3
382.808304E-3,220.406914E-3
383.113861E-3,220.770264E-3
383.154488E-3,220.963097E-3
383.248329E-3,220.888710E-3
383.440018E-3,221.327019E-3
383.266068E-3,221.388245E-3
383.472633E-3,221.912384E-3
383.603096E-3,221.984482E-3
383.536720E-3,221.813965E-3
383.664894E-3,221.622276E-3
383.084106E-3,220.727348E-3
382.433510E-3,219.353485E-3
381.033897E-3,216.482735E-3
379.280090E-3,212.733078E-3
377.934837E-3,209.078407E-3
375.924110E-3,205.262947E-3
374.691582E-3,201.930428E-3
373.584938E-3,199.239349E-3
372.645950E-3,197.267532E-3
372.617912E-3,196.664429E-3
372.909164E-3,196.870995E-3
373.486519E-3,197.636032E-3
374.101067E-3,199.183846E-3
374.866676E-3,200.483322E-3
375.940704E-3,202.657127E-3
376.659393E-3,204.224968E-3
377.469063E-3,205.967331E-3
377.990341E-3,207.177544E-3
378.380585E-3,208.027840E-3
378.816032E-3,208.847809E-3
378.687859E-3,208.986282E-3
378.683281E-3,209.218597E-3
378.381157E-3,208.814049E-3
378.035545E-3,208.224106E-3
378.384018E-3,208.546257E-3
377.987480E-3,207.828712E-3
378.333092E-3,208.475876E-3
378.465271E-3,208.863258E-3
378.619766E-3,209.208298E-3
379.083252E-3,210.008240E-3
378.968239E-3,210.331535E-3
379.306984E-3,210.288048E-3
379.136467E-3,210.345840E-3
378.780556E-3,209.708977E-3
378.862381E-3,209.509277E-3
378.175163E-3,208.320808E-3
378.087616E-3,208.077049E-3
377.705956E-3,207.802391E-3
377.654457E-3,207.234764E-3
378.060722E-3,207.712555E-3
377.768898E-3,207.602692E-3
378.056717E-3,208.246422E-3
378.299904E-3,208.933067E-3
378.384590E-3,209.298134E-3
379.073524E-3,210.326958E-3
379.230881E-3,210.657120E-3
379.677773E-3,211.775780E-3
380.118370E-3,212.588882E-3
380.005646E-3,213.103867E-3
380.479431E-3,213.653183E-3
380.499458E-3,214.012527E-3
380.781555E-3,214.677429E-3
381.009293E-3,214.905167E-3
380.789566E-3,215.120888E-3
381.165504E-3,215.583801E-3
380.873680E-3,215.439606E-3
381.157494E-3,215.959167E-3
381.116295E-3,215.920830E-3
381.053925E-3,216.022110E-3
381.362915E-3,216.488457E-3
381.022453E-3,216.319084E-3
381.222725E-3,216.387177E-3
381.274223E-3,216.592026E-3
381.254196E-3,216.503334E-3
381.467628E-3,216.756821E-3
381.093407E-3,216.454124E-3
381.144905E-3,216.894150E-3
381.165504E-3,216.810036E-3
381.110573E-3,216.820335E-3
381.662178E-3,217.452049E-3
381.303406E-3,216.961670E-3
381.264496E-3,217.178535E-3
381.462479E-3,217.362213E-3
381.250763E-3,217.364502E-3
381.845284E-3,217.782784E-3
381.430435E-3,217.472649E-3
381.570625E-3,217.890358E-3
381.667900E-3,218.254852E-3
381.596375E-3,218.302917E-3
382.037544E-3,218.960953E-3
381.584930E-3,218.779564E-3
381.826973E-3,219.178391E-3
382.120514E-3,219.397545E-3
381.838417E-3,219.463348E-3
382.302475E-3,219.938850E-3
381.913376E-3,219.831848E-3
382.395172E-3,220.353127E-3
382.325935E-3,220.424652E-3
382.491875E-3,220.608902E-3
382.670403E-3,220.948219E-3
382.455826E-3,220.928764E-3
382.744217E-3,221.515846E-3
382.923889E-3,221.637154E-3
382.921028E-3,221.772766E-3
383.155060E-3,222.331238E-3
382.963371E-3,222.438812E-3
383.448029E-3,222.789001E-3
383.454895E-3,223.019600E-3
383.308983E-3,223.007011E-3
383.677483E-3,223.405838E-3
383.384514E-3,223.176384E-3
383.548737E-3,223.448753E-3
383.530426E-3,223.286247E-3
382.738495E-3,222.134972E-3
382.306480E-3,220.847511E-3
380.847359E-3,217.801094E-3
379.317284E-3,214.343834E-3
377.478218E-3,210.312653E-3
375.490379E-3,206.064606E-3
374.309349E-3,202.967834E-3
372.648239E-3,199.731445E-3
372.102928E-3,197.614288E-3
371.709824E-3,196.843529E-3
371.543312E-3,196.481323E-3
372.525787E-3,197.436333E-3
372.860527E-3,198.060608E-3
373.913383E-3,199.957466E-3
374.857521E-3,201.827431E-3
375.446892E-3,203.145218E-3
376.614189E-3,205.230331E-3
376.733780E-3,205.977631E-3
377.268791E-3,207.195854E-3
377.610397E-3,207.865906E-3
377.669907E-3,207.979202E-3
377.854729E-3,208.546257E-3
377.225876E-3,207.993507E-3
377.306557E-3,207.710838E-3
377.221870E-3,207.483101E-3
377.198982E-3,207.245636E-3
377.368355E-3,207.592392E-3
376.924896E-3,207.452202E-3
377.344894E-3,207.908821E-3
377.819824E-3,208.451843E-3
377.961159E-3,209.040642E-3
378.481865E-3,209.901237E-3
378.087044E-3,209.904671E-3
378.294182E-3,209.636307E-3
378.301620E-3,209.469795E-3
377.690506E-3,209.004593E-3
378.121948E-3,209.056091E-3
377.511406E-3,208.368301E-3
377.370644E-3,208.149147E-3
377.546883E-3,208.111382E-3
377.384377E-3,207.958603E-3
377.970886E-3,208.627510E-3
377.724266E-3,208.710480E-3
377.952003E-3,209.330750E-3
378.396606E-3,209.943581E-3
378.569984E-3,210.157013E-3
379.089546E-3,211.369514E-3
378.862381E-3,211.689377E-3
379.532433E-3,212.425232E-3
379.574776E-3,213.357925E-3
379.793358E-3,213.444328E-3
380.498314E-3,214.329529E-3
380.226517E-3,214.702034E-3
380.543518E-3,215.180397E-3
380.612183E-3,215.481949E-3
380.616760E-3,215.594673E-3
381.144333E-3,216.202354E-3
380.869675E-3,216.078186E-3
381.060219E-3,216.123962E-3
380.956650E-3,216.297913E-3
380.820465E-3,216.119957E-3
381.267929E-3,216.729927E-3
380.949783E-3,216.610909E-3
381.131744E-3,216.912460E-3
381.047630E-3,217.003441E-3
381.257629E-3,216.715622E-3
381.538582E-3,217.268944E-3
381.149483E-3,217.086983E-3
381.264496E-3,216.964531E-3
381.383514E-3,217.228317E-3
381.324005E-3,216.888428E-3
381.884193E-3,217.486382E-3
381.429863E-3,217.105865E-3
381.636429E-3,217.579651E-3
381.694794E-3,217.739868E-3
381.840134E-3,217.797089E-3
381.960869E-3,218.562698E-3
381.642723E-3,218.182182E-3
381.864166E-3,218.536377E-3
381.835556E-3,218.748093E-3
382.055283E-3,219.180679E-3
382.335663E-3,219.688225E-3
381.930542E-3,219.555473E-3
382.384872E-3,220.004654E-3
382.460976E-3,220.222664E-3
382.400322E-3,220.366287E-3
382.868958E-3,220.962524E-3
382.630920E-3,220.642090E-3
383.050919E-3,220.856094E-3
383.165932E-3,221.314430E-3
382.795715E-3,221.133614E-3
383.061790E-3,221.609116E-3
382.779694E-3,221.424294E-3
383.019447E-3,221.850014E-3
383.084679E-3,221.967888E-3
383.066940E-3,221.950722E-3
383.271217E-3,222.442245E-3
382.999420E-3,222.065735E-3
383.207703E-3,222.489166E-3
383.307266E-3,222.851944E-3
383.205986E-3,222.964668E-3
383.573914E-3,223.431587E-3
383.349609E-3,223.559761E-3
383.596230E-3,223.974037E-3
383.834267E-3,223.972893E-3
383.762169E-3,223.991776E-3
383.925247E-3,224.429512E-3
383.620834E-3,223.755455E-3
383.628845E-3,223.523712E-3
382.834053E-3,221.801949E-3
381.520271E-3,219.009018E-3
380.253983E-3,215.865898E-3
378.179741E-3,211.669350E-3
376.705742E-3,207.857323E-3
375.097275E-3,204.171753E-3
373.302269E-3,200.875282E-3
372.879982E-3,198.924637E-3
372.229385E-3,197.710991E-3
372.587013E-3,197.862625E-3
372.932625E-3,197.871208E-3
373.502541E-3,198.980713E-3
374.693871E-3,200.783157E-3
375.309563E-3,202.243423E-3
376.439095E-3,204.561424E-3
377.072525E-3,205.717850E-3
377.344894E-3,206.561279E-3
378.070450E-3,208.010101E-3
378.133965E-3,208.270454E-3
378.347397E-3,208.859825E-3
378.238106E-3,208.741379E-3
378.206062E-3,208.399773E-3
378.300476E-3,208.508492E-3
377.756310E-3,207.539177E-3
377.755165E-3,207.424164E-3
377.736855E-3,207.376671E-3
377.415276E-3,207.340622E-3
378.083038E-3,208.275032E-3
378.044701E-3,208.293343E-3
378.354836E-3,209.006882E-3
378.878403E-3,209.882355E-3
378.854370E-3,209.971619E-3
379.293823E-3,210.290337E-3
378.952217E-3,209.982491E-3
379.154205E-3,209.974480E-3
378.973961E-3,209.631729E-3
378.743362E-3,209.042358E-3
378.867531E-3,209.092712E-3
378.462982E-3,208.734512E-3
378.699303E-3,209.158516E-3
378.758240E-3,209.145355E-3
378.540230E-3,209.068680E-3
379.155350E-3,209.838867E-3
379.205704E-3,210.075188E-3
379.478073E-3,210.918045E-3
379.586792E-3,211.544609E-3
379.874611E-3,212.119102E-3
380.417633E-3,212.932777E-3
380.242538E-3,213.103294E-3
380.719185E-3,213.662338E-3
380.842209E-3,214.259148E-3
381.047058E-3,214.591026E-3
381.352615E-3,215.375519E-3
381.151772E-3,215.496826E-3
381.389236E-3,215.937424E-3
381.606102E-3,216.223526E-3
381.467056E-3,216.236115E-3
381.884193E-3,216.794014E-3
381.764030E-3,216.705322E-3
382.133102E-3,216.911316E-3
382.081604E-3,217.028046E-3
381.907082E-3,217.001724E-3
382.182312E-3,217.291832E-3
382.084465E-3,217.082405E-3
382.355690E-3,217.581367E-3
382.137680E-3,217.617416E-3
382.162285E-3,217.615128E-3
382.443237E-3,217.787361E-3
382.453537E-3,217.730713E-3
382.681847E-3,218.040276E-3
382.540512E-3,217.960167E-3
382.291603E-3,217.932129E-3
382.677269E-3,218.218803E-3
382.578278E-3,218.235970E-3
382.769394E-3,218.689728E-3
382.773972E-3,218.688011E-3
382.614899E-3,218.718910E-3
382.999992E-3,219.196701E-3
382.721329E-3,219.284248E-3
383.136749E-3,219.663048E-3
383.160782E-3,219.798088E-3
383.017731E-3,219.930267E-3
383.385086E-3,220.302200E-3
382.895851E-3,220.269585E-3
383.171082E-3,220.692444E-3
383.341599E-3,220.943069E-3
383.274078E-3,220.759392E-3
383.560753E-3,221.206284E-3
383.463478E-3,221.228600E-3
383.648872E-3,221.619415E-3
383.770180E-3,221.890640E-3
383.376503E-3,221.519279E-3
383.782768E-3,222.101212E-3
383.534431E-3,222.117805E-3
383.703804E-3,222.631645E-3
383.970451E-3,222.529221E-3
383.646584E-3,222.130394E-3
383.930397E-3,222.970390E-3
383.976746E-3,223.135757E-3
384.316063E-3,223.649025E-3
384.515190E-3,223.766327E-3
384.238243E-3,223.738289E-3
384.455681E-3,223.944283E-3
384.218788E-3,223.863029E-3
384.541512E-3,224.303627E-3
384.627914E-3,224.411774E-3
384.255981E-3,224.119377E-3
384.510612E-3,224.356270E-3
383.725548E-3,223.340607E-3
383.185959E-3,221.460915E-3
381.881332E-3,218.947220E-3
380.303764E-3,215.358925E-3
379.090118E-3,212.038422E-3
376.937485E-3,208.099365E-3
376.021385E-3,204.996872E-3
375.104713E-3,202.471161E-3
374.261284E-3,200.780869E-3
374.328804E-3,200.515938E-3
373.975182E-3,200.247574E-3
374.692154E-3,201.288986E-3
375.390244E-3,202.609634E-3
376.484871E-3,204.210091E-3
377.501106E-3,206.177902E-3
377.777481E-3,207.280540E-3
378.663254E-3,208.914185E-3
379.265785E-3,210.052872E-3
379.541016E-3,210.702896E-3
380.031395E-3,211.885643E-3
379.784203E-3,211.897659E-3
379.759026E-3,212.114525E-3
379.680061E-3,212.114525E-3
379.474068E-3,211.600685E-3
379.738426E-3,211.849022E-3
379.294968E-3,211.642456E-3
379.586792E-3,211.858749E-3
379.921532E-3,212.386322E-3
380.190468E-3,212.959671E-3
380.496597E-3,213.515282E-3
380.015373E-3,213.397408E-3
380.114937E-3,213.523865E-3
380.015373E-3,213.242912E-3
379.892921E-3,212.753677E-3
379.852867E-3,212.449837E-3
379.158783E-3,211.649323E-3
379.055214E-3,211.159515E-3
378.857803E-3,210.662270E-3
378.615189E-3,210.485458E-3
378.832054E-3,210.793877E-3
378.660393E-3,210.603333E-3
379.178238E-3,211.206436E-3
379.147339E-3,211.663055E-3
379.403114E-3,212.295341E-3
379.940987E-3,213.087845E-3
380.012512E-3,213.571358E-3
380.549812E-3,214.348412E-3
380.793571E-3,215.044785E-3
381.085396E-3,215.552902E-3
381.376648E-3,216.541100E-3
381.358337E-3,216.711617E-3
381.675911E-3,217.299271E-3
381.840706E-3,217.566490E-3
381.783485E-3,217.808533E-3
381.990051E-3,218.288612E-3
381.919670E-3,218.388748E-3
382.032394E-3,218.772697E-3
382.048416E-3,219.028473E-3
382.127953E-3,218.899155E-3
382.273865E-3,219.236183E-3
382.114220E-3,219.323158E-3
382.329369E-3,219.245911E-3
382.154274E-3,219.274521E-3
382.127380E-3,219.188118E-3
382.280731E-3,219.540596E-3
382.233810E-3,219.335175E-3
382.481575E-3,219.699097E-3
382.266998E-3,219.522858E-3
382.058144E-3,219.182968E-3
382.304764E-3,219.566917E-3
382.133675E-3,219.363213E-3
382.394600E-3,219.671059E-3
382.386589E-3,219.644165E-3
382.339096E-3,219.856453E-3
382.476425E-3,220.409203E-3
382.012939E-3,220.032120E-3
382.372284E-3,220.464706E-3
382.625198E-3,220.597458E-3
382.453537E-3,220.493317E-3
382.855797E-3,221.133614E-3
382.441521E-3,221.027184E-3
382.655525E-3,221.290398E-3
382.731056E-3,221.606255E-3
382.611465E-3,221.657181E-3
383.195114E-3,222.199631E-3
382.816887E-3,222.108650E-3
383.112717E-3,222.548103E-3
383.151627E-3,222.543526E-3
383.061790E-3,222.609329E-3
383.282661E-3,223.192978E-3
383.088112E-3,223.007584E-3
383.377075E-3,223.397255E-3
383.361053E-3,223.878479E-3
383.540726E-3,223.761749E-3
383.827400E-3,224.184608E-3
383.544731E-3,224.012947E-3
384.023666E-3,224.725342E-3
383.691788E-3,225.083542E-3
383.793640E-3,225.188828E-3
384.146690E-3,225.667191E-3
383.965302E-3,225.497818E-3
384.125519E-3,225.849724E-3
384.078026E-3,225.451469E-3
383.361626E-3,224.233818E-3
382.739639E-3,222.695732E-3
381.395531E-3,219.683075E-3
380.216217E-3,216.265869E-3
378.392029E-3,212.202644E-3
376.373291E-3,208.036423E-3
375.176239E-3,204.963112E-3
373.928833E-3,201.936722E-3
373.432732E-3,200.585747E-3
373.125458E-3,199.646759E-3
373.321724E-3,199.600410E-3
373.937988E-3,200.437546E-3
374.422073E-3,201.440620E-3
375.359917E-3,203.112030E-3
376.084900E-3,204.681015E-3
376.760101E-3,205.997086E-3
377.809525E-3,207.801247E-3
378.247833E-3,208.878136E-3
378.798866E-3,210.077477E-3
379.083824E-3,210.748100E-3
379.015732E-3,210.713768E-3
379.141617E-3,210.764694E-3
378.865242E-3,210.361290E-3
378.903580E-3,210.450554E-3
378.711319E-3,210.009384E-3
378.532791E-3,209.546471E-3
378.515625E-3,209.545898E-3
378.318214E-3,209.525299E-3
378.775406E-3,210.484314E-3
379.161072E-3,210.781860E-3
379.218864E-3,211.388397E-3
379.549026E-3,211.915398E-3
379.463196E-3,211.802101E-3
379.648018E-3,211.881638E-3
379.736137E-3,211.950874E-3
379.289246E-3,211.443901E-3
379.249763E-3,211.263084E-3
378.745079E-3,210.574150E-3
378.784561E-3,210.476875E-3
378.866386E-3,210.258293E-3
378.828049E-3,210.167313E-3
379.018593E-3,210.672569E-3
378.742218E-3,210.400772E-3
379.121017E-3,211.051941E-3
379.416275E-3,211.830711E-3
379.334450E-3,212.022400E-3
380.010223E-3,213.112450E-3
379.922104E-3,213.418579E-3
380.335236E-3,214.291763E-3
380.635643E-3,214.776421E-3
380.848503E-3,215.546036E-3
381.375504E-3,216.201782E-3
381.109428E-3,216.086769E-3
381.484795E-3,216.724205E-3
381.555748E-3,216.854668E-3
381.591797E-3,217.002869E-3
381.798935E-3,217.681503E-3
381.620407E-3,217.460632E-3
381.943130E-3,218.077469E-3
381.905937E-3,218.194199E-3
381.804085E-3,218.015099E-3
382.160568E-3,218.562126E-3
381.907082E-3,218.302917E-3
382.115364E-3,218.472862E-3
381.915665E-3,218.523788E-3
381.924820E-3,218.468285E-3
382.265854E-3,218.959808E-3
381.879616E-3,218.570709E-3
382.079887E-3,218.690300E-3
382.069588E-3,218.752670E-3
381.929398E-3,218.724060E-3
382.277298E-3,219.179535E-3
381.909370E-3,218.998718E-3
382.127380E-3,219.181824E-3
382.400322E-3,219.132614E-3
382.387161E-3,219.334602E-3
382.614899E-3,219.941711E-3
382.447815E-3,219.809532E-3
382.831764E-3,220.032120E-3
382.822037E-3,220.432663E-3
382.758522E-3,220.611763E-3
382.947350E-3,221.014023E-3
382.793427E-3,220.980835E-3
383.204269E-3,221.320152E-3
383.153915E-3,221.789360E-3
382.813454E-3,221.561623E-3
383.381081E-3,222.207069E-3
383.341026E-3,222.137260E-3
383.632278E-3,222.420502E-3
383.637428E-3,222.542953E-3
383.076668E-3,222.742081E-3
383.540726E-3,223.155785E-3
383.414841E-3,222.921181E-3
383.727837E-3,223.289680E-3
383.573914E-3,223.412132E-3
383.565331E-3,223.472214E-3
383.915520E-3,223.736000E-3
383.779907E-3,223.675919E-3
384.056854E-3,224.057579E-3
384.138107E-3,224.192047E-3
384.080887E-3,224.272156E-3
384.429359E-3,224.808311E-3
384.472847E-3,225.063515E-3
384.814453E-3,225.612831E-3
384.809303E-3,225.774765E-3
384.254837E-3,225.226021E-3
384.567833E-3,225.805664E-3
384.523201E-3,225.544739E-3
384.508324E-3,225.137901E-3
383.762169E-3,223.780060E-3
382.511330E-3,221.171379E-3
381.489372E-3,217.917824E-3
379.542160E-3,213.610840E-3
378.024673E-3,210.156441E-3
376.321220E-3,206.196785E-3
375.135040E-3,203.069687E-3
374.387741E-3,201.107597E-3
373.449326E-3,199.846458E-3
373.909950E-3,199.578094E-3
374.295044E-3,200.006104E-3
375.000000E-3,201.216888E-3
375.914955E-3,202.887726E-3
376.405907E-3,204.102516E-3
377.471352E-3,205.872917E-3
378.067017E-3,207.289696E-3
378.515625E-3,208.520508E-3
379.434586E-3,209.720421E-3
379.861450E-3,210.126114E-3
380.245399E-3,210.688591E-3
380.635071E-3,211.014175E-3
380.776978E-3,210.814476E-3
380.718613E-3,210.779572E-3
380.224228E-3,209.809113E-3
380.346680E-3,209.578514E-3
380.292892E-3,209.602547E-3
379.969597E-3,209.363937E-3
380.366707E-3,209.963036E-3
380.383873E-3,210.245132E-3
380.706596E-3,211.046791E-3
380.695724E-3,211.244202E-3
380.621338E-3,211.526299E-3
380.808449E-3,212.071609E-3
380.419350E-3,211.527443E-3
380.398750E-3,211.384392E-3
380.221939E-3,211.225319E-3
379.741287E-3,210.597038E-3
379.868317E-3,210.563850E-3
379.364777E-3,209.670639E-3
379.557610E-3,209.915543E-3
379.697800E-3,210.302353E-3
379.595947E-3,210.524368E-3
380.148125E-3,211.015892E-3
379.938698E-3,211.172104E-3
380.297470E-3,211.902809E-3
380.520058E-3,212.592316E-3
380.747223E-3,212.731361E-3
381.281662E-3,213.940430E-3
381.041336E-3,214.023972E-3
381.304550E-3,214.852524E-3
381.480217E-3,215.431023E-3
381.665039E-3,215.690804E-3
382.105637E-3,216.307640E-3
381.860733E-3,215.983200E-3
382.042694E-3,216.272163E-3
382.218933E-3,216.701317E-3
382.323647E-3,216.984558E-3
382.653236E-3,217.402267E-3
382.184601E-3,217.252922E-3
382.395172E-3,217.529869E-3
382.486725E-3,217.713547E-3
382.323074E-3,217.557335E-3
382.716751E-3,218.074036E-3
382.492447E-3,217.833138E-3
382.615471E-3,218.047142E-3
382.757950E-3,218.132401E-3
382.533073E-3,217.967606E-3
382.963371E-3,218.232536E-3
382.551384E-3,217.976189E-3
382.783127E-3,218.322372E-3
382.819176E-3,218.140411E-3
382.961082E-3,218.583298E-3
383.246040E-3,218.901443E-3
382.676125E-3,218.566704E-3
382.985115E-3,218.730354E-3
383.068657E-3,218.995285E-3
382.909584E-3,219.186974E-3
383.331871E-3,219.707680E-3
382.999992E-3,219.308853E-3
383.321571E-3,219.794655E-3
383.275223E-3,220.104790E-3
383.189392E-3,220.163155E-3
383.712959E-3,220.767403E-3
383.283806E-3,220.753098E-3
383.387947E-3,221.090698E-3
383.497810E-3,221.387100E-3
383.726120E-3,221.667480E-3
383.992767E-3,221.767044E-3
383.620834E-3,221.260643E-3
383.913803E-3,221.565628E-3
383.905220E-3,221.648598E-3
384.131241E-3,222.089767E-3
384.106636E-3,222.579002E-3
383.618546E-3,222.344398E-3
384.252548E-3,222.810745E-3
384.230232E-3,223.013878E-3
384.457970E-3,223.164940E-3
384.595299E-3,223.754883E-3
384.340668E-3,223.586082E-3
384.494591E-3,223.964882E-3
