Notes :


2023-11-26 ¿ÀÀü 12:09:03
Volts
Ch : LED 2,Ch : LED 3,
256.325340E-3,408.312607E-3
256.058121E-3,408.154678E-3
256.049538E-3,408.265686E-3
256.130219E-3,408.295441E-3
256.002045E-3,408.099174E-3
256.107903E-3,408.403587E-3
255.911636E-3,408.165550E-3
256.097031E-3,408.424187E-3
256.224060E-3,408.593559E-3
256.367111E-3,408.860779E-3
256.847763E-3,409.384346E-3
256.942177E-3,409.359741E-3
257.264328E-3,409.754562E-3
257.340431E-3,409.973717E-3
257.460022E-3,410.023499E-3
257.859421E-3,410.440063E-3
257.750702E-3,410.383415E-3
257.960701E-3,410.563660E-3
257.952118E-3,410.695839E-3
258.014488E-3,410.881805E-3
258.376694E-3,411.091805E-3
258.179283E-3,411.133003E-3
258.520889E-3,411.486626E-3
258.659363E-3,411.732674E-3
258.802414E-3,411.982155E-3
259.274483E-3,412.443924E-3
259.321404E-3,412.537193E-3
259.958839E-3,412.984657E-3
260.310173E-3,413.360023E-3
260.474968E-3,413.417816E-3
260.979652E-3,414.032936E-3
260.896683E-3,414.099884E-3
261.214256E-3,414.380836E-3
261.343575E-3,414.415169E-3
261.388206E-3,414.405441E-3
261.530113E-3,414.603996E-3
260.977364E-3,414.071846E-3
260.172844E-3,413.109970E-3
258.582115E-3,411.096954E-3
256.622314E-3,408.634758E-3
254.791832E-3,406.068420E-3
252.648926E-3,403.015137E-3
251.102829E-3,400.238228E-3
249.734688E-3,397.814941E-3
248.634911E-3,395.899200E-3
248.273849E-3,395.240593E-3
247.854424E-3,394.650078E-3
248.225212E-3,394.859505E-3
248.434067E-3,395.592499E-3
248.786545E-3,396.409035E-3
249.544144E-3,397.667313E-3
250.039101E-3,398.591423E-3
250.803566E-3,399.658012E-3
251.263046E-3,400.412178E-3
251.360321E-3,400.866508E-3
251.853561E-3,401.531410E-3
251.770592E-3,401.461601E-3
251.889038E-3,401.517105E-3
251.709366E-3,401.411819E-3
251.489067E-3,401.140594E-3
251.680756E-3,401.339149E-3
251.718521E-3,401.367760E-3
252.201462E-3,402.103615E-3
252.655220E-3,402.871513E-3
253.107262E-3,403.597069E-3
253.848267E-3,404.522896E-3
254.021072E-3,404.790115E-3
254.279137E-3,405.049896E-3
254.335785E-3,404.992104E-3
254.303741E-3,404.739761E-3
254.504013E-3,404.755211E-3
254.144096E-3,404.279709E-3
254.061699E-3,404.286575E-3
253.783607E-3,403.814507E-3
253.609657E-3,403.684044E-3
253.860855E-3,403.817368E-3
253.942680E-3,403.841400E-3
254.196739E-3,404.227066E-3
254.387283E-3,404.677391E-3
254.356384E-3,404.862213E-3
254.860497E-3,405.566597E-3
255.088234E-3,405.864716E-3
255.550575E-3,406.576538E-3
255.723381E-3,406.961060E-3
255.877304E-3,407.252884E-3
256.241798E-3,407.912064E-3
256.291580E-3,408.033371E-3
256.533623E-3,408.336067E-3
256.639481E-3,408.643913E-3
256.643486E-3,408.780098E-3
257.054901E-3,409.117126E-3
256.979942E-3,409.099388E-3
257.225418E-3,409.431839E-3
257.258606E-3,409.545135E-3
257.251740E-3,409.615517E-3
257.608223E-3,409.817505E-3
257.644272E-3,409.714508E-3
257.722664E-3,409.926224E-3
257.814217E-3,409.966278E-3
257.802773E-3,409.945679E-3
258.017349E-3,410.179138E-3
257.843399E-3,410.073280E-3
258.070564E-3,410.252380E-3
258.064270E-3,410.428619E-3
257.988167E-3,410.347366E-3
258.320045E-3,410.573387E-3
258.452797E-3,410.452652E-3
258.457947E-3,410.686684E-3
258.473396E-3,410.717583E-3
258.421326E-3,410.790825E-3
258.745193E-3,411.134720E-3
258.676529E-3,411.250305E-3
258.860779E-3,411.456299E-3
258.776665E-3,411.523819E-3
258.808136E-3,411.444855E-3
259.106255E-3,412.020493E-3
259.145164E-3,411.851120E-3
259.364891E-3,412.267685E-3
259.462738E-3,412.332916E-3
259.553146E-3,412.496567E-3
259.905052E-3,412.805557E-3
260.018349E-3,412.820435E-3
260.314751E-3,413.160896E-3
260.379410E-3,413.390350E-3
260.332489E-3,413.499069E-3
260.678673E-3,413.983154E-3
260.612869E-3,413.995743E-3
260.914993E-3,414.322472E-3
260.987091E-3,414.353943E-3
261.022568E-3,414.277267E-3
261.206245E-3,414.459801E-3
261.030579E-3,414.260674E-3
261.382484E-3,414.773369E-3
261.095810E-3,414.522743E-3
260.571098E-3,414.071274E-3
260.042381E-3,413.430405E-3
258.579826E-3,411.619377E-3
256.929016E-3,409.531975E-3
254.880524E-3,406.974220E-3
252.931595E-3,404.166985E-3
251.296806E-3,401.763725E-3
250.040245E-3,399.358749E-3
249.440575E-3,397.851562E-3
248.859787E-3,396.802139E-3
248.567390E-3,396.265984E-3
248.830605E-3,396.682549E-3
248.960495E-3,397.104263E-3
249.615097E-3,398.130226E-3
250.214195E-3,399.319267E-3
250.744057E-3,400.400734E-3
251.621819E-3,401.642418E-3
251.938820E-3,402.363968E-3
252.550507E-3,403.169632E-3
252.746773E-3,403.556442E-3
252.794838E-3,403.819084E-3
253.015709E-3,404.130363E-3
252.635193E-3,403.838539E-3
252.792549E-3,403.813934E-3
252.820587E-3,404.066277E-3
253.058052E-3,404.412460E-3
253.636551E-3,405.241585E-3
253.903198E-3,405.658722E-3
254.411316E-3,406.464958E-3
254.538345E-3,406.722450E-3
254.374695E-3,406.682968E-3
254.382133E-3,406.815720E-3
253.979301E-3,406.130791E-3
253.879738E-3,405.781174E-3
253.577614E-3,405.177498E-3
253.023720E-3,404.463387E-3
252.801704E-3,404.145813E-3
252.370262E-3,403.649139E-3
252.453804E-3,403.714371E-3
252.519608E-3,403.761292E-3
252.445793E-3,403.892899E-3
252.948761E-3,404.482841E-3
253.197098E-3,404.840469E-3
253.783607E-3,405.672455E-3
254.275131E-3,406.291580E-3
254.657364E-3,406.855774E-3
255.289078E-3,407.747269E-3
255.590057E-3,408.217049E-3
256.139946E-3,408.884811E-3
256.585693E-3,409.276772E-3
256.650352E-3,409.545708E-3
256.950188E-3,409.933090E-3
257.015419E-3,410.123062E-3
257.336998E-3,410.565948E-3
257.320976E-3,410.585403E-3
257.366180E-3,410.688400E-3
257.472610E-3,410.951042E-3
257.468605E-3,410.724449E-3
257.574463E-3,410.883522E-3
257.488632E-3,410.850906E-3
257.402802E-3,410.867500E-3
257.618523E-3,411.056328E-3
257.375908E-3,410.845184E-3
257.525826E-3,410.873795E-3
257.427979E-3,410.964775E-3
257.394791E-3,410.756493E-3
257.506371E-3,411.038017E-3
257.351875E-3,410.877228E-3
257.478905E-3,411.003113E-3
257.465172E-3,411.024284E-3
257.421684E-3,411.034584E-3
257.674026E-3,411.445427E-3
257.698631E-3,411.330414E-3
257.881165E-3,411.551285E-3
257.893753E-3,411.539841E-3
257.955551E-3,411.643410E-3
258.186150E-3,412.003899E-3
258.226204E-3,412.070274E-3
258.504868E-3,412.384415E-3
258.536339E-3,412.402725E-3
258.586121E-3,412.588692E-3
258.981514E-3,412.916565E-3
258.926010E-3,412.878799E-3
259.348297E-3,413.064766E-3
259.360886E-3,413.475037E-3
259.439850E-3,413.552856E-3
259.727669E-3,413.984871E-3
259.772301E-3,414.100456E-3
260.093880E-3,414.405441E-3
260.110474E-3,414.448357E-3
260.098457E-3,414.545059E-3
260.345078E-3,414.843750E-3
260.215759E-3,414.820290E-3
260.440636E-3,415.033722E-3
260.339355E-3,414.826012E-3
259.965706E-3,414.300728E-3
259.420395E-3,413.525391E-3
257.906342E-3,411.736107E-3
256.270409E-3,409.647560E-3
254.029655E-3,406.921577E-3
251.916504E-3,403.862000E-3
250.229645E-3,401.138878E-3
248.544502E-3,398.269272E-3
247.525406E-3,396.339798E-3
246.906853E-3,394.885254E-3
246.490860E-3,394.256401E-3
246.796417E-3,394.386292E-3
246.932030E-3,394.748497E-3
247.552872E-3,395.828247E-3
248.080444E-3,396.969795E-3
248.576546E-3,397.994041E-3
249.362755E-3,399.279785E-3
249.686623E-3,399.954414E-3
250.331497E-3,400.733185E-3
250.480270E-3,401.177788E-3
250.413895E-3,401.133156E-3
250.518036E-3,401.325417E-3
250.283432E-3,401.094818E-3
250.217056E-3,400.942039E-3
250.085449E-3,400.531769E-3
250.011635E-3,400.493431E-3
250.372124E-3,400.910568E-3
250.525475E-3,401.284218E-3
251.190948E-3,402.175140E-3
251.486778E-3,402.827454E-3
251.712227E-3,403.259468E-3
252.234077E-3,403.815651E-3
252.020073E-3,403.705215E-3
252.082443E-3,403.682327E-3
251.891327E-3,403.448868E-3
251.514816E-3,402.983093E-3
251.505089E-3,402.797127E-3
251.109123E-3,402.310753E-3
251.161766E-3,402.231789E-3
251.074791E-3,402.129936E-3
250.956917E-3,402.089310E-3
251.233292E-3,402.515602E-3
251.335716E-3,402.701569E-3
251.840973E-3,403.214836E-3
252.190018E-3,403.659439E-3
252.450371E-3,404.130936E-3
252.995682E-3,404.901123E-3
253.216553E-3,405.299377E-3
253.681183E-3,405.949402E-3
253.943825E-3,406.333351E-3
254.092026E-3,406.731033E-3
254.607010E-3,407.202530E-3
254.630470E-3,407.351875E-3
254.988670E-3,407.830811E-3
255.130005E-3,407.946968E-3
255.188370E-3,407.925224E-3
255.430412E-3,408.296585E-3
255.326843E-3,408.270264E-3
255.538559E-3,408.575249E-3
255.497360E-3,408.655930E-3
255.424690E-3,408.605576E-3
255.571175E-3,408.670807E-3
255.438423E-3,408.478546E-3
255.606651E-3,408.809280E-3
255.520248E-3,408.777809E-3
255.476761E-3,408.516312E-3
255.604935E-3,408.745766E-3
255.489922E-3,408.605576E-3
255.695915E-3,408.897972E-3
255.660439E-3,408.850479E-3
255.596352E-3,408.885384E-3
255.801201E-3,409.135437E-3
255.705070E-3,409.076500E-3
255.992889E-3,409.336853E-3
256.048393E-3,409.629250E-3
256.113625E-3,409.587479E-3
256.429482E-3,409.930229E-3
256.327629E-3,409.917068E-3
256.653214E-3,410.269547E-3
256.835747E-3,410.469246E-3
256.810570E-3,410.438347E-3
257.007408E-3,410.819435E-3
257.020569E-3,410.757065E-3
257.302666E-3,411.035156E-3
257.403946E-3,411.161041E-3
257.450867E-3,411.229134E-3
257.828522E-3,411.625099E-3
257.769012E-3,411.679459E-3
258.131218E-3,411.964989E-3
258.222771E-3,412.228203E-3
258.212471E-3,412.251663E-3
258.594704E-3,412.656212E-3
258.464241E-3,412.799835E-3
258.785248E-3,413.159180E-3
258.804703E-3,413.158607E-3
258.747482E-3,413.254738E-3
258.994675E-3,413.469887E-3
258.833313E-3,413.274765E-3
258.897400E-3,413.213539E-3
258.445930E-3,412.504005E-3
257.287788E-3,411.135292E-3
255.948257E-3,409.352875E-3
253.764153E-3,406.697845E-3
251.996040E-3,403.956985E-3
249.916077E-3,401.010132E-3
248.213196E-3,398.228073E-3
247.229004E-3,396.119499E-3
246.328926E-3,394.458389E-3
246.098328E-3,393.766022E-3
246.026802E-3,393.459892E-3
246.116638E-3,393.771744E-3
246.689987E-3,394.786835E-3
247.071648E-3,395.617104E-3
247.837257E-3,396.937180E-3
248.478699E-3,398.003197E-3
249.009705E-3,398.922729E-3
249.534416E-3,399.775314E-3
249.683189E-3,400.118065E-3
249.962425E-3,400.450516E-3
249.920654E-3,400.443077E-3
249.667168E-3,400.391006E-3
249.715233E-3,400.207329E-3
249.460602E-3,399.808502E-3
249.532127E-3,399.860001E-3
249.692345E-3,400.084877E-3
249.998474E-3,400.588417E-3
250.560951E-3,401.400375E-3
250.804138E-3,401.897621E-3
251.313400E-3,402.698135E-3
251.487350E-3,403.095818E-3
251.489639E-3,403.141594E-3
251.620674E-3,403.205681E-3
251.279640E-3,402.770805E-3
251.386642E-3,402.650642E-3
251.044464E-3,402.285004E-3
250.664520E-3,401.807785E-3
250.716591E-3,401.749992E-3
250.535202E-3,401.478767E-3
250.811005E-3,401.747704E-3
250.922585E-3,401.938820E-3
251.099396E-3,402.302170E-3
251.642990E-3,402.989388E-3
251.951408E-3,403.342438E-3
252.492142E-3,404.217339E-3
252.794838E-3,404.598427E-3
253.080940E-3,404.981232E-3
253.666306E-3,405.626678E-3
253.864288E-3,405.965996E-3
254.386711E-3,406.519318E-3
254.552078E-3,406.860352E-3
254.684258E-3,407.081795E-3
255.040741E-3,407.815361E-3
255.013275E-3,407.765007E-3
255.356026E-3,408.048820E-3
255.426407E-3,408.044815E-3
255.516243E-3,408.043671E-3
255.687904E-3,408.312607E-3
255.560303E-3,408.388710E-3
255.982590E-3,408.685684E-3
255.816650E-3,408.552933E-3
255.659866E-3,408.438492E-3
255.777168E-3,408.677673E-3
255.731964E-3,408.491135E-3
255.912209E-3,408.731461E-3
255.861282E-3,408.818436E-3
255.810356E-3,408.832169E-3
256.034088E-3,409.082222E-3
255.900192E-3,408.938599E-3
256.174278E-3,409.255600E-3
256.143951E-3,409.277916E-3
256.246948E-3,409.326553E-3
256.572533E-3,409.807777E-3
256.573105E-3,409.760284E-3
256.800270E-3,410.106468E-3
256.864929E-3,410.017776E-3
256.934166E-3,410.161972E-3
257.221985E-3,410.361671E-3
257.244301E-3,410.387993E-3
257.541847E-3,410.842323E-3
257.569885E-3,410.952187E-3
257.571602E-3,410.994530E-3
257.822227E-3,411.310959E-3
257.792473E-3,411.300087E-3
258.142662E-3,411.661148E-3
258.196449E-3,411.835098E-3
258.215904E-3,411.924362E-3
258.570099E-3,412.185860E-3
258.577538E-3,412.206459E-3
258.805275E-3,412.524605E-3
258.940315E-3,412.712288E-3
258.942604E-3,412.869644E-3
259.223557E-3,413.291359E-3
259.302521E-3,413.381195E-3
259.492493E-3,413.580322E-3
259.452438E-3,413.518524E-3
259.416962E-3,413.487625E-3
259.582901E-3,413.591194E-3
259.421539E-3,413.418961E-3
259.472466E-3,413.476753E-3
258.935165E-3,412.847900E-3
257.793045E-3,411.460304E-3
256.515884E-3,409.587479E-3
254.504013E-3,407.079506E-3
252.746773E-3,404.659081E-3
250.937462E-3,401.915932E-3
249.340439E-3,399.414825E-3
248.418617E-3,397.687912E-3
247.537994E-3,396.175575E-3
247.426414E-3,395.553017E-3
247.445869E-3,395.447731E-3
247.636414E-3,395.867729E-3
248.235512E-3,396.959496E-3
248.551369E-3,397.848701E-3
249.431419E-3,399.258614E-3
249.993324E-3,400.232506E-3
250.449944E-3,401.089668E-3
251.088524E-3,402.223206E-3
251.186371E-3,402.433205E-3
251.567459E-3,402.794266E-3
251.426697E-3,402.822876E-3
251.313972E-3,402.651787E-3
251.407242E-3,402.775383E-3
251.309395E-3,402.656364E-3
251.638985E-3,403.108406E-3
251.984024E-3,403.575325E-3
252.343941E-3,404.191017E-3
252.967644E-3,405.069923E-3
252.870941E-3,405.322266E-3
253.054047E-3,405.588913E-3
252.852631E-3,405.356598E-3
252.498436E-3,404.829025E-3
252.259254E-3,404.515457E-3
251.728249E-3,403.821945E-3
251.498222E-3,403.491211E-3
251.113129E-3,402.882385E-3
250.829887E-3,402.376556E-3
250.825882E-3,402.355385E-3
250.665665E-3,402.235794E-3
250.948334E-3,402.671814E-3
251.201820E-3,402.990532E-3
251.454163E-3,403.421974E-3
251.963425E-3,404.210472E-3
252.138519E-3,404.639053E-3
252.684975E-3,405.478477E-3
252.995682E-3,406.006050E-3
253.263474E-3,406.386566E-3
253.790474E-3,406.949615E-3
253.847694E-3,407.153320E-3
254.231071E-3,407.642555E-3
254.395294E-3,407.846832E-3
254.444504E-3,408.005905E-3
254.739189E-3,408.401871E-3
254.649925E-3,408.406448E-3
254.861641E-3,408.593559E-3
254.945755E-3,408.708572E-3
254.946327E-3,408.697701E-3
255.216980E-3,408.898544E-3
254.955482E-3,408.817291E-3
255.112267E-3,409.065628E-3
255.057335E-3,408.930588E-3
254.992676E-3,408.866501E-3
255.192375E-3,409.099960E-3
255.024147E-3,408.945465E-3
255.214119E-3,409.093666E-3
255.184937E-3,409.100533E-3
255.062485E-3,409.053612E-3
255.367470E-3,409.376335E-3
255.209541E-3,409.343147E-3
255.396652E-3,409.551430E-3
255.363464E-3,409.495354E-3
255.365181E-3,409.558296E-3
255.603218E-3,409.830093E-3
255.527687E-3,409.809494E-3
255.817223E-3,410.140228E-3
255.988884E-3,410.257530E-3
256.003761E-3,410.289001E-3
256.336212E-3,410.678673E-3
256.242943E-3,410.713005E-3
256.395149E-3,411.173630E-3
256.584549E-3,411.129570E-3
256.611443E-3,411.230278E-3
256.989670E-3,411.423111E-3
256.904984E-3,411.494064E-3
257.243156E-3,411.894608E-3
257.452583E-3,411.893463E-3
257.464027E-3,412.077141E-3
257.809067E-3,412.602425E-3
257.860565E-3,412.600136E-3
258.215332E-3,413.053894E-3
258.249092E-3,413.000107E-3
258.194733E-3,413.212395E-3
258.459663E-3,413.464165E-3
258.356094E-3,413.381195E-3
258.592987E-3,413.586617E-3
258.509445E-3,413.356018E-3
258.154678E-3,412.994385E-3
257.593918E-3,412.276268E-3
256.304169E-3,410.714149E-3
254.636765E-3,408.731461E-3
252.521896E-3,406.133080E-3
250.441933E-3,403.182793E-3
248.748779E-3,400.534630E-3
247.050476E-3,397.757721E-3
246.136093E-3,395.759583E-3
245.439720E-3,394.314766E-3
245.075226E-3,393.561172E-3
245.240593E-3,393.711090E-3
245.313835E-3,394.046974E-3
245.957565E-3,395.084953E-3
246.502304E-3,396.060562E-3
246.968079E-3,397.055054E-3
247.811508E-3,398.264694E-3
248.226929E-3,399.186516E-3
248.723030E-3,399.887466E-3
248.765945E-3,400.118637E-3
248.769951E-3,400.075722E-3
248.806000E-3,400.198746E-3
248.478699E-3,399.811363E-3
248.460960E-3,399.734688E-3
248.325348E-3,399.557877E-3
248.312187E-3,399.487495E-3
248.714447E-3,400.035095E-3
248.904419E-3,400.392723E-3
249.588203E-3,401.208687E-3
249.928665E-3,402.038383E-3
250.202179E-3,402.488136E-3
250.504875E-3,402.880096E-3
250.301170E-3,402.738762E-3
250.365257E-3,402.780533E-3
250.003624E-3,402.437210E-3
249.833107E-3,402.052689E-3
249.669456E-3,401.763725E-3
249.298096E-3,401.176071E-3
249.231148E-3,401.111412E-3
249.194527E-3,401.162910E-3
249.187088E-3,401.134300E-3
249.540138E-3,401.400948E-3
249.532700E-3,401.562309E-3
250.000191E-3,402.163124E-3
250.239944E-3,402.977371E-3
250.516319E-3,403.397369E-3
251.091957E-3,404.037666E-3
251.287079E-3,404.318619E-3
251.832962E-3,405.005264E-3
252.041817E-3,405.445290E-3
252.307320E-3,405.724525E-3
252.912712E-3,406.285286E-3
252.867508E-3,406.334496E-3
253.235435E-3,406.716728E-3
253.285217E-3,407.066345E-3
253.308105E-3,407.155037E-3
253.527260E-3,407.352448E-3
253.325272E-3,407.318687E-3
253.614807E-3,407.576752E-3
253.551865E-3,407.534409E-3
253.435707E-3,407.421684E-3
253.661728E-3,407.685471E-3
253.414536E-3,407.483482E-3
253.656578E-3,407.616234E-3
253.651428E-3,407.649994E-3
253.551865E-3,407.620811E-3
253.735542E-3,407.799339E-3
253.609657E-3,407.707214E-3
253.788757E-3,407.988739E-3
253.680611E-3,408.099174E-3
253.653717E-3,407.941818E-3
253.857994E-3,408.289146E-3
253.773880E-3,408.091164E-3
254.101181E-3,408.433914E-3
254.187012E-3,408.488846E-3
254.265404E-3,408.614731E-3
254.572105E-3,409.051895E-3
254.520607E-3,409.085655E-3
254.755211E-3,409.523964E-3
255.063057E-3,409.554291E-3
255.076218E-3,409.685898E-3
255.401230E-3,410.062981E-3
255.319405E-3,410.138512E-3
255.520248E-3,410.337639E-3
255.600357E-3,410.446930E-3
255.596352E-3,410.361671E-3
255.804634E-3,410.736465E-3
255.785751E-3,410.708427E-3
255.993462E-3,411.058617E-3
256.153679E-3,411.052322E-3
256.197739E-3,411.133575E-3
256.425476E-3,411.389923E-3
256.467247E-3,411.605644E-3
256.765366E-3,412.001610E-3
256.909561E-3,412.217903E-3
256.949043E-3,412.180710E-3
257.082939E-3,412.382126E-3
256.901550E-3,412.305450E-3
257.173347E-3,412.502289E-3
257.263184E-3,412.516022E-3
257.145882E-3,412.380981E-3
257.057190E-3,412.272835E-3
256.234932E-3,411.340714E-3
255.404091E-3,410.178566E-3
253.741837E-3,408.114052E-3
251.665878E-3,405.488777E-3
249.790764E-3,402.853203E-3
247.790909E-3,399.759293E-3
246.415329E-3,397.336578E-3
245.247459E-3,395.153046E-3
244.481277E-3,393.639565E-3
244.261551E-3,393.103981E-3
244.040108E-3,392.991829E-3
244.492149E-3,393.489647E-3
244.947624E-3,394.218063E-3
245.341301E-3,395.141029E-3
246.122932E-3,396.449089E-3
246.489716E-3,397.339439E-3
247.188377E-3,398.327065E-3
247.500229E-3,399.000549E-3
247.687340E-3,399.265480E-3
247.865868E-3,399.417114E-3
247.632980E-3,399.208832E-3
247.552872E-3,399.139023E-3
247.393799E-3,398.773384E-3
247.163773E-3,398.440933E-3
247.318268E-3,398.518753E-3
247.266769E-3,398.560524E-3
247.991753E-3,399.282074E-3
248.225212E-3,399.893761E-3
248.537636E-3,400.563812E-3
249.148178E-3,401.503372E-3
249.163628E-3,401.720810E-3
249.425125E-3,402.036095E-3
249.363899E-3,402.069283E-3
249.174500E-3,401.830101E-3
249.116135E-3,401.713371E-3
248.638344E-3,401.072502E-3
248.612022E-3,400.987244E-3
248.362541E-3,400.650215E-3
248.301315E-3,400.400734E-3
248.605156E-3,400.606155E-3
248.534775E-3,400.607300E-3
248.965073E-3,401.200676E-3
249.131012E-3,401.609230E-3
249.367332E-3,401.963997E-3
250.036812E-3,402.691841E-3
250.175858E-3,403.014565E-3
250.644493E-3,403.757286E-3
250.943184E-3,404.163551E-3
251.205826E-3,404.598427E-3
251.651573E-3,405.136299E-3
251.789474E-3,405.292511E-3
252.196312E-3,405.800056E-3
252.341652E-3,406.034088E-3
252.581406E-3,406.193733E-3
252.793121E-3,406.561089E-3
252.789688E-3,406.526184E-3
253.028870E-3,406.854057E-3
253.073502E-3,407.162476E-3
253.087807E-3,407.029724E-3
253.252029E-3,407.304955E-3
253.193092E-3,407.228851E-3
253.393364E-3,407.527542E-3
253.457451E-3,407.561302E-3
253.464890E-3,407.385063E-3
253.660011E-3,407.520103E-3
253.490639E-3,407.456589E-3
253.765869E-3,407.636261E-3
253.763008E-3,407.700920E-3
253.773880E-3,407.776451E-3
254.006767E-3,408.131218E-3
253.939247E-3,408.149529E-3
254.184151E-3,408.480835E-3
254.239655E-3,408.467674E-3
254.344940E-3,408.689690E-3
254.670525E-3,409.016418E-3
254.590988E-3,409.011841E-3
254.989815E-3,409.365463E-3
255.082512E-3,409.512520E-3
255.296516E-3,409.666443E-3
255.566597E-3,410.084152E-3
255.570030E-3,409.976006E-3
255.809212E-3,410.314751E-3
255.872154E-3,410.452652E-3
255.970573E-3,410.454369E-3
256.174278E-3,410.726738E-3
255.957985E-3,410.658073E-3
256.244087E-3,411.156464E-3
256.461525E-3,411.171341E-3
256.379700E-3,411.261177E-3
256.567955E-3,411.374474E-3
256.495857E-3,411.400795E-3
256.843185E-3,411.714363E-3
256.931305E-3,411.754990E-3
256.953621E-3,411.912346E-3
257.115555E-3,412.247658E-3
257.169914E-3,412.292862E-3
257.538986E-3,412.655640E-3
257.676888E-3,412.754059E-3
257.591629E-3,412.837029E-3
257.762146E-3,412.981796E-3
257.708931E-3,413.029289E-3
257.908058E-3,413.237000E-3
257.851410E-3,413.121414E-3
257.520676E-3,412.796974E-3
256.903839E-3,411.874580E-3
255.382347E-3,410.100746E-3
253.752708E-3,408.022499E-3
251.715660E-3,405.170059E-3
249.738693E-3,402.291298E-3
248.257828E-3,399.917221E-3
246.854782E-3,397.766304E-3
246.264839E-3,396.267128E-3
245.650291E-3,395.301247E-3
245.649147E-3,395.028305E-3
246.019363E-3,395.546150E-3
246.220207E-3,396.150398E-3
247.045326E-3,397.282219E-3
247.718811E-3,398.317909E-3
248.396301E-3,399.361610E-3
249.189949E-3,400.511169E-3
249.474335E-3,401.166344E-3
250.028801E-3,401.921654E-3
250.063705E-3,402.119637E-3
250.058556E-3,402.097893E-3
250.112343E-3,402.095032E-3
249.739838E-3,401.709938E-3
249.799347E-3,401.753998E-3
249.743271E-3,401.764870E-3
249.988747E-3,401.992035E-3
250.447083E-3,402.594566E-3
250.726318E-3,403.048897E-3
251.332855E-3,403.813934E-3
251.535988E-3,404.193878E-3
251.439285E-3,404.257965E-3
251.411819E-3,404.296303E-3
250.999832E-3,403.872871E-3
250.925446E-3,403.604507E-3
250.649071E-3,403.193665E-3
250.277710E-3,402.582550E-3
250.076866E-3,402.404022E-3
249.810219E-3,402.028084E-3
250.042534E-3,402.103615E-3
250.061989E-3,402.234077E-3
250.243378E-3,402.610016E-3
250.675392E-3,403.227997E-3
250.839615E-3,403.602219E-3
251.302528E-3,404.220200E-3
251.737404E-3,404.836464E-3
252.196312E-3,405.174065E-3
252.714157E-3,405.879593E-3
252.878952E-3,406.212044E-3
253.329849E-3,406.741905E-3
253.447151E-3,407.044029E-3
253.635406E-3,407.270050E-3
253.962135E-3,407.763863E-3
253.821945E-3,407.980156E-3
254.147530E-3,408.142090E-3
254.062843E-3,408.139801E-3
254.057121E-3,408.187294E-3
254.190445E-3,408.468246E-3
253.987312E-3,408.308601E-3
254.176712E-3,408.449936E-3
254.168129E-3,408.397865E-3
254.140091E-3,408.396721E-3
254.235077E-3,408.565521E-3
254.005051E-3,408.348656E-3
254.202461E-3,408.551216E-3
254.173279E-3,408.530617E-3
254.096603E-3,408.520317E-3
254.225349E-3,408.790970E-3
254.088020E-3,408.673096E-3
254.235077E-3,408.764648E-3
254.204178E-3,408.810997E-3
254.308319E-3,408.886528E-3
254.525185E-3,409.266472E-3
254.387283E-3,409.195518E-3
254.627037E-3,409.545135E-3
254.600716E-3,409.553719E-3
254.781532E-3,409.638977E-3
255.071068E-3,409.939957E-3
254.901695E-3,409.804344E-3
255.302811E-3,410.261536E-3
255.324554E-3,410.326767E-3
255.410385E-3,410.584831E-3
255.631256E-3,410.952759E-3
255.520248E-3,410.860634E-3
255.686760E-3,411.042595E-3
255.779457E-3,411.255455E-3
255.818367E-3,411.223984E-3
256.077576E-3,411.479187E-3
256.050682E-3,411.419106E-3
256.302452E-3,411.796188E-3
256.252670E-3,411.927223E-3
256.419754E-3,412.015915E-3
256.707001E-3,412.295723E-3
256.703568E-3,412.428474E-3
256.953621E-3,412.863922E-3
256.918144E-3,412.898827E-3
256.970787E-3,412.924576E-3
257.225418E-3,413.100243E-3
257.040024E-3,413.068771E-3
257.226562E-3,413.205528E-3
257.093811E-3,413.041306E-3
256.823730E-3,412.635040E-3
256.249237E-3,412.051392E-3
254.804420E-3,410.376549E-3
253.214836E-3,408.405876E-3
251.254463E-3,405.664444E-3
249.208832E-3,402.769661E-3
247.613525E-3,400.265121E-3
246.076584E-3,397.800636E-3
245.400810E-3,396.290016E-3
244.810867E-3,395.122147E-3
244.690132E-3,394.663811E-3
244.915581E-3,394.798851E-3
245.053482E-3,395.422554E-3
245.761871E-3,396.541214E-3
246.346664E-3,397.582054E-3
246.965790E-3,398.601723E-3
247.787476E-3,399.816513E-3
248.091888E-3,400.561523E-3
248.627472E-3,401.305962E-3
248.781967E-3,401.594353E-3
248.802567E-3,401.664162E-3
248.969078E-3,401.691628E-3
248.648643E-3,401.289940E-3
248.634338E-3,401.243591E-3
248.427773E-3,401.076508E-3
248.574829E-3,401.139450E-3
249.131012E-3,401.739693E-3
249.302101E-3,402.245522E-3
249.934959E-3,403.017998E-3
250.190163E-3,403.424263E-3
250.388145E-3,403.773308E-3
250.509453E-3,404.004478E-3
250.150108E-3,403.633118E-3
250.086021E-3,403.532982E-3
249.838257E-3,403.095818E-3
249.504089E-3,402.521896E-3
249.463463E-3,402.545357E-3
248.970795E-3,401.990318E-3
249.043465E-3,401.953125E-3
248.977661E-3,401.882744E-3
249.076653E-3,401.963997E-3
249.423981E-3,402.438354E-3
249.515533E-3,402.641487E-3
250.057983E-3,403.296089E-3
250.421906E-3,403.898621E-3
250.703430E-3,404.490852E-3
251.339149E-3,405.198097E-3
251.534843E-3,405.527115E-3
252.070999E-3,406.223488E-3
252.238083E-3,406.644630E-3
252.505302E-3,406.934738E-3
252.944756E-3,407.390785E-3
252.954483E-3,407.441139E-3
253.235435E-3,407.769585E-3
253.222275E-3,407.887459E-3
253.468895E-3,407.989311E-3
253.639984E-3,408.348656E-3
253.535843E-3,408.211327E-3
253.765869E-3,408.413315E-3
253.689194E-3,408.456802E-3
253.741837E-3,408.318901E-3
253.888321E-3,408.622169E-3
253.633118E-3,408.506584E-3
253.836823E-3,408.576393E-3
253.737831E-3,408.586693E-3
253.782463E-3,408.556938E-3
253.976440E-3,408.904266E-3
253.728676E-3,408.592987E-3
253.961563E-3,408.877373E-3
253.912926E-3,408.885956E-3
253.958702E-3,408.875656E-3
254.184723E-3,409.173775E-3
254.094887E-3,409.081078E-3
254.437065E-3,409.511948E-3
254.513168E-3,409.554863E-3
254.635048E-3,409.714508E-3
254.795837E-3,409.959412E-3
254.759789E-3,410.030365E-3
255.045319E-3,410.323334E-3
255.274200E-3,410.604858E-3
255.435562E-3,410.725021E-3
255.628967E-3,411.005402E-3
255.675316E-3,411.005974E-3
255.939102E-3,411.483192E-3
256.007195E-3,411.340141E-3
256.083870E-3,411.542130E-3
256.382561E-3,411.762428E-3
256.279564E-3,411.628532E-3
256.534767E-3,411.873436E-3
256.519318E-3,411.923218E-3
256.609154E-3,412.169266E-3
256.878090E-3,412.416458E-3
256.789398E-3,412.364960E-3
257.070351E-3,412.681961E-3
257.205963E-3,412.728310E-3
257.287788E-3,412.965775E-3
257.540703E-3,413.175774E-3
257.415390E-3,413.176918E-3
257.699203E-3,413.539696E-3
257.698059E-3,413.559151E-3
257.664299E-3,413.484192E-3
257.729530E-3,413.643265E-3
257.532692E-3,413.401222E-3
257.413101E-3,413.061333E-3
256.399727E-3,412.034798E-3
254.985237E-3,410.265541E-3
253.187943E-3,407.968140E-3
250.981522E-3,405.074501E-3
249.049187E-3,402.353096E-3
247.206116E-3,399.451447E-3
245.813942E-3,397.010422E-3
244.987106E-3,395.378494E-3
244.369698E-3,394.305611E-3
244.587135E-3,394.234085E-3
244.648933E-3,394.266701E-3
245.063782E-3,394.871521E-3
245.675468E-3,395.927238E-3
246.093178E-3,396.847343E-3
246.990967E-3,398.103905E-3
247.492218E-3,399.024582E-3
247.861862E-3,399.759865E-3
248.262978E-3,400.462532E-3
248.066711E-3,400.358391E-3
248.241234E-3,400.601578E-3
248.087883E-3,400.332069E-3
247.854424E-3,400.022507E-3
247.824097E-3,399.792480E-3
247.460747E-3,399.311256E-3
247.559738E-3,399.387932E-3
247.663879E-3,399.490929E-3
248.067856E-3,399.908638E-3
248.698997E-3,400.903130E-3
248.943329E-3,401.419830E-3
249.449158E-3,402.112198E-3
249.617958E-3,402.422333E-3
249.672318E-3,402.435493E-3
249.766731E-3,402.666664E-3
249.457169E-3,402.297020E-3
249.510956E-3,402.167702E-3
249.318123E-3,401.973724E-3
249.129295E-3,401.554298E-3
249.132729E-3,401.662445E-3
248.986244E-3,401.432991E-3
249.295807E-3,401.795197E-3
249.412537E-3,401.966858E-3
249.620247E-3,402.231216E-3
250.124359E-3,402.739334E-3
250.165558E-3,403.185654E-3
250.775528E-3,403.771019E-3
251.137733E-3,404.191017E-3
251.546288E-3,404.662514E-3
252.003479E-3,405.291367E-3
252.133942E-3,405.571747E-3
252.429771E-3,406.062698E-3
252.696991E-3,406.351089E-3
252.864075E-3,406.758499E-3
253.432846E-3,407.213402E-3
253.282928E-3,407.203674E-3
253.440857E-3,407.415962E-3
253.510666E-3,407.454872E-3
253.699493E-3,407.631683E-3
253.920364E-3,407.953835E-3
253.889465E-3,407.982445E-3
254.090881E-3,408.130646E-3
254.129219E-3,408.140373E-3
253.952408E-3,408.250809E-3
254.235077E-3,408.302307E-3
254.099464E-3,408.236504E-3
254.394150E-3,408.477402E-3
254.330063E-3,408.499146E-3
254.344940E-3,408.546638E-3
254.531479E-3,408.734894E-3
254.494286E-3,408.702850E-3
254.734612E-3,408.939743E-3
254.896545E-3,409.027863E-3
254.957771E-3,409.072495E-3
255.184364E-3,409.343719E-3
255.136871E-3,409.345436E-3
255.438423E-3,409.608078E-3
255.483055E-3,409.858704E-3
255.607224E-3,409.948540E-3
256.058121E-3,410.441208E-3
255.860710E-3,410.417747E-3
256.125641E-3,410.675240E-3
256.163406E-3,410.909271E-3
256.305313E-3,410.997391E-3
256.605721E-3,411.302948E-3
256.503868E-3,411.199379E-3
256.767654E-3,411.517525E-3
256.796265E-3,411.627960E-3
256.797981E-3,411.584473E-3
257.023430E-3,411.821938E-3
256.886101E-3,411.881447E-3
257.176208E-3,412.228775E-3
257.271767E-3,412.343788E-3
