Notes :


2023-11-06 ¿ÀÈÄ 7:01:43
Volts
Ch : LED 2,
188.212395E-3
188.383484E-3
188.321114E-3
188.469887E-3
188.745689E-3
188.481903E-3
188.711357E-3
188.587761E-3
188.647270E-3
188.775444E-3
188.469887E-3
188.425255E-3
188.237572E-3
188.297081E-3
188.397217E-3
188.172913E-3
188.314247E-3
188.156891E-3
188.251877E-3
188.420677E-3
188.223267E-3
188.429260E-3
188.139725E-3
188.240433E-3
188.443565E-3
188.286209E-3
188.402367E-3
188.279915E-3
188.304520E-3
188.416672E-3
188.200951E-3
188.232422E-3
188.163185E-3
188.101387E-3
188.187790E-3
187.976074E-3
188.081932E-3
188.081932E-3
188.074493E-3
188.152885E-3
187.921143E-3
188.027573E-3
187.883949E-3
187.859917E-3
187.952042E-3
187.767220E-3
187.821007E-3
187.729454E-3
187.632179E-3
187.784386E-3
187.615585E-3
187.694550E-3
187.601280E-3
187.524605E-3
187.573242E-3
187.332916E-3
187.436485E-3
187.259674E-3
187.233925E-3
187.251091E-3
186.971283E-3
186.882591E-3
186.617661E-3
186.168480E-3
185.983658E-3
185.481834E-3
185.396576E-3
185.058975E-3
184.970856E-3
184.926224E-3
184.704781E-3
184.878731E-3
184.867287E-3
184.816933E-3
184.994316E-3
184.852409E-3
185.068130E-3
185.073853E-3
185.069275E-3
185.275841E-3
185.054970E-3
185.456657E-3
185.551071E-3
185.714149E-3
185.908127E-3
185.807419E-3
186.022568E-3
186.068916E-3
186.045456E-3
186.085510E-3
185.902405E-3
186.087799E-3
186.104965E-3
186.025429E-3
186.239433E-3
186.169052E-3
186.238289E-3
186.248589E-3
186.072350E-3
186.361313E-3
186.194229E-3
186.507797E-3
186.441994E-3
186.366463E-3
186.525536E-3
186.416817E-3
186.605644E-3
186.680031E-3
186.650276E-3
186.844254E-3
186.706352E-3
186.852264E-3
186.880875E-3
186.688614E-3
186.879158E-3
186.636543E-3
186.772156E-3
186.784744E-3
186.617661E-3
186.778450E-3
186.642265E-3
186.775017E-3
186.787033E-3
186.678886E-3
186.869431E-3
186.686897E-3
186.919212E-3
186.748695E-3
186.588478E-3
186.690903E-3
186.576462E-3
186.692619E-3
186.583900E-3
186.524963E-3
186.691475E-3
186.602211E-3
186.649704E-3
186.591911E-3
186.373901E-3
186.342430E-3
186.029434E-3
185.839462E-3
185.450363E-3
185.032654E-3
184.883881E-3
184.542847E-3
184.449577E-3
184.432411E-3
184.239578E-3
184.381485E-3
184.201813E-3
184.381485E-3
184.439278E-3
184.424400E-3
184.647560E-3
184.518242E-3
184.765434E-3
184.898186E-3
184.923363E-3
185.160255E-3
185.137939E-3
185.294151E-3
185.436058E-3
185.221481E-3
185.536194E-3
185.374260E-3
185.485840E-3
185.485840E-3
185.368538E-3
185.585976E-3
185.453224E-3
185.503578E-3
185.550499E-3
185.370827E-3
185.551643E-3
185.444069E-3
185.472107E-3
185.646057E-3
185.537338E-3
185.713577E-3
185.688400E-3
185.741615E-3
185.789108E-3
185.700417E-3
185.902977E-3
185.770226E-3
185.943604E-3
185.955620E-3
185.836029E-3
186.030006E-3
185.860062E-3
185.980797E-3
186.015129E-3
185.954475E-3
186.058044E-3
185.815430E-3
185.889816E-3
185.996819E-3
185.897255E-3
186.122131E-3
185.912132E-3
186.028290E-3
186.102676E-3
185.989952E-3
186.068344E-3
185.953903E-3
185.866928E-3
185.935593E-3
185.798264E-3
185.958481E-3
185.773087E-3
185.778809E-3
185.828590E-3
185.605431E-3
185.650063E-3
185.262680E-3
185.028076E-3
184.788895E-3
184.327126E-3
184.259605E-3
183.821869E-3
183.709717E-3
183.594131E-3
183.459663E-3
183.597565E-3
183.406448E-3
183.444214E-3
183.528900E-3
183.498001E-3
183.750343E-3
183.666801E-3
183.716583E-3
183.810425E-3
183.802986E-3
184.169769E-3
184.089088E-3
184.186935E-3
184.351158E-3
184.202957E-3
184.506798E-3
184.482765E-3
184.487343E-3
184.632683E-3
184.406090E-3
184.665298E-3
184.490776E-3
184.451294E-3
184.564590E-3
184.497070E-3
184.636116E-3
184.493065E-3
184.522247E-3
184.725952E-3
184.523392E-3
184.750557E-3
184.594917E-3
184.681320E-3
184.885025E-3
184.728241E-3
184.860992E-3
184.723091E-3
184.759140E-3
184.942245E-3
184.683037E-3
184.806633E-3
184.772301E-3
184.839249E-3
185.025787E-3
184.872437E-3
184.955978E-3
184.820938E-3
184.840965E-3
185.011482E-3
184.723091E-3
184.790039E-3
184.693336E-3
184.681892E-3
184.827805E-3
184.602928E-3
184.851837E-3
184.799767E-3
184.845543E-3
184.973145E-3
184.653854E-3
184.859848E-3
184.835815E-3
184.700775E-3
184.701920E-3
184.518814E-3
184.435272E-3
184.099388E-3
183.862495E-3
183.658218E-3
183.104324E-3
182.944107E-3
182.620239E-3
182.407951E-3
182.423401E-3
182.248306E-3
182.321548E-3
182.236862E-3
182.286072E-3
182.560158E-3
182.496643E-3
182.636833E-3
182.588196E-3
182.709503E-3
183.116913E-3
183.104897E-3
183.380699E-3
183.439636E-3
183.491707E-3
183.732033E-3
183.716011E-3
183.861351E-3
183.846474E-3
183.827019E-3
184.024429E-3
183.846474E-3
184.034157E-3
184.062767E-3
183.978081E-3
184.137726E-3
183.955193E-3
184.221268E-3
184.112549E-3
184.083366E-3
184.298515E-3
184.093666E-3
184.284782E-3
184.348297E-3
184.313965E-3
184.513092E-3
184.405518E-3
184.628677E-3
184.569740E-3
184.535408E-3
184.738541E-3
184.619522E-3
184.832954E-3
184.731102E-3
184.607506E-3
184.771729E-3
184.531403E-3
184.743118E-3
184.613800E-3
184.612656E-3
184.771156E-3
184.545135E-3
184.773445E-3
184.734535E-3
184.754562E-3
184.887886E-3
184.646416E-3
184.806633E-3
184.775162E-3
184.699059E-3
184.844398E-3
184.693336E-3
184.815216E-3
184.776878E-3
184.696198E-3
184.882736E-3
184.574318E-3
184.493637E-3
184.277916E-3
184.004974E-3
183.761215E-3
183.215332E-3
183.114624E-3
182.813072E-3
182.449722E-3
182.403946E-3
182.146454E-3
182.279205E-3
182.300377E-3
182.251740E-3
182.445145E-3
182.233429E-3
182.440567E-3
182.411957E-3
182.382202E-3
182.595062E-3
182.429123E-3
182.683754E-3
182.853699E-3
182.962990E-3
183.342361E-3
183.295441E-3
183.581543E-3
183.658218E-3
183.504868E-3
183.766937E-3
183.624458E-3
183.716011E-3
183.695984E-3
183.512306E-3
183.693695E-3
183.544350E-3
183.764648E-3
183.745193E-3
183.580971E-3
183.857346E-3
183.689690E-3
183.922005E-3
183.942604E-3
183.872223E-3
184.159470E-3
184.041023E-3
184.281349E-3
184.265900E-3
184.098816E-3
184.326553E-3
184.185791E-3
184.298515E-3
184.295654E-3
184.086800E-3
184.298515E-3
184.164047E-3
184.315681E-3
184.389496E-3
184.210396E-3
184.427834E-3
184.356308E-3
184.450722E-3
184.461021E-3
184.299088E-3
184.538841E-3
184.390640E-3
184.448433E-3
184.399223E-3
184.321404E-3
184.598923E-3
184.460449E-3
184.638977E-3
184.625244E-3
184.412384E-3
184.685898E-3
184.660721E-3
184.833527E-3
184.731674E-3
184.513092E-3
184.617233E-3
184.283066E-3
184.160042E-3
183.897972E-3
183.334923E-3
183.293724E-3
182.824516E-3
182.676888E-3
182.581902E-3
182.357597E-3
182.508659E-3
182.292938E-3
182.420540E-3
182.564735E-3
182.514381E-3
182.726097E-3
182.675171E-3
182.750702E-3
182.862854E-3
182.803345E-3
183.119774E-3
183.202744E-3
183.357239E-3
183.557510E-3
183.472252E-3
183.780670E-3
183.719444E-3
183.771515E-3
183.836174E-3
183.750343E-3
183.992958E-3
183.812141E-3
183.916855E-3
183.934021E-3
183.875084E-3
184.117126E-3
183.895111E-3
183.994102E-3
184.074211E-3
183.992958E-3
184.259033E-3
184.149170E-3
184.215546E-3
184.363747E-3
184.296799E-3
184.503937E-3
184.388351E-3
184.464455E-3
184.633827E-3
184.468460E-3
184.660721E-3
184.535408E-3
184.646416E-3
184.687614E-3
184.562874E-3
184.724236E-3
184.507942E-3
184.545708E-3
184.707642E-3
184.522820E-3
184.675026E-3
184.605217E-3
184.660721E-3
184.745407E-3
184.560585E-3
184.751701E-3
184.685898E-3
184.702492E-3
184.863281E-3
184.755707E-3
184.901619E-3
184.726524E-3
184.655571E-3
184.811783E-3
184.630966E-3
184.751129E-3
184.591484E-3
184.443283E-3
184.523392E-3
184.144592E-3
184.133148E-3
183.677673E-3
183.445358E-3
183.201599E-3
182.738113E-3
182.729530E-3
182.374191E-3
182.375336E-3
182.516098E-3
182.274628E-3
182.508659E-3
182.323837E-3
182.398796E-3
182.689476E-3
182.499504E-3
182.651138E-3
182.561302E-3
182.711220E-3
183.000755E-3
182.920074E-3
183.166695E-3
183.174706E-3
183.271408E-3
183.430481E-3
183.332062E-3
183.467102E-3
183.354378E-3
183.428192E-3
183.627319E-3
183.456802E-3
183.660507E-3
183.455658E-3
183.413887E-3
183.568382E-3
183.374977E-3
183.526039E-3
183.413315E-3
183.484840E-3
183.757210E-3
183.607864E-3
183.802414E-3
183.717155E-3
183.801270E-3
184.031868E-3
183.899117E-3
184.033585E-3
184.018707E-3
183.911133E-3
184.055328E-3
183.898544E-3
183.990097E-3
183.924294E-3
183.901405E-3
183.978653E-3
183.772087E-3
183.956909E-3
183.825874E-3
183.867073E-3
184.140587E-3
184.045029E-3
184.119415E-3
184.055328E-3
184.043884E-3
184.268188E-3
184.075928E-3
184.124565E-3
184.042740E-3
183.905983E-3
184.190941E-3
183.999252E-3
184.189224E-3
184.029007E-3
184.073067E-3
184.239006E-3
184.054184E-3
184.193230E-3
183.929443E-3
183.744621E-3
183.744621E-3
183.260536E-3
183.114052E-3
182.695770E-3
182.381630E-3
182.240868E-3
181.884956E-3
181.825447E-3
181.698418E-3
181.609154E-3
181.845474E-3
181.630325E-3
181.810570E-3
181.763077E-3
181.796265E-3
182.039452E-3
181.949615E-3
182.157898E-3
182.282066E-3
182.365608E-3
182.678032E-3
182.680893E-3
182.961273E-3
183.023643E-3
183.029938E-3
183.286858E-3
183.091736E-3
183.233070E-3
183.162117E-3
183.210754E-3
183.312607E-3
183.167839E-3
183.272552E-3
183.214188E-3
183.173561E-3
183.377266E-3
183.197021E-3
183.346939E-3
183.333778E-3
183.333778E-3
183.512878E-3
183.356094E-3
183.502579E-3
183.504868E-3
183.518028E-3
183.617020E-3
183.442497E-3
183.630180E-3
183.619308E-3
183.612442E-3
183.813286E-3
183.552361E-3
183.749771E-3
183.731461E-3
183.670807E-3
183.814430E-3
183.592987E-3
183.748055E-3
183.689690E-3
183.571243E-3
183.713722E-3
183.625603E-3
183.730888E-3
183.673096E-3
183.570671E-3
183.705711E-3
183.583832E-3
183.752632E-3
183.736610E-3
183.600426E-3
183.793831E-3
183.669090E-3
183.896828E-3
184.031296E-3
183.861923E-3
183.981514E-3
183.844185E-3
184.035873E-3
183.960342E-3
183.760071E-3
183.756065E-3
183.477974E-3
183.341217E-3
183.070564E-3
182.644844E-3
182.444000E-3
181.960487E-3
181.970215E-3
181.846046E-3
181.664658E-3
181.778526E-3
181.610298E-3
181.811714E-3
181.747627E-3
181.704140E-3
181.884384E-3
181.769943E-3
181.958199E-3
182.033730E-3
182.001114E-3
182.267761E-3
182.248878E-3
182.520103E-3
182.674026E-3
182.724380E-3
182.993889E-3
182.841110E-3
183.155251E-3
183.103180E-3
182.983589E-3
183.074570E-3
182.936668E-3
183.155251E-3
183.136940E-3
183.063126E-3
183.116341E-3
182.954407E-3
183.177567E-3
183.084297E-3
182.949257E-3
183.308601E-3
183.136940E-3
183.300591E-3
183.506012E-3
183.398437E-3
183.656502E-3
183.566666E-3
183.679962E-3
183.677673E-3
183.653069E-3
183.771515E-3
183.626747E-3
183.708000E-3
183.677101E-3
183.556366E-3
183.729744E-3
183.657074E-3
183.813858E-3
183.912849E-3
183.848763E-3
184.094238E-3
183.983803E-3
184.054184E-3
183.957481E-3
183.787537E-3
183.901978E-3
183.698845E-3
183.738899E-3
183.796120E-3
183.709717E-3
183.890533E-3
183.837891E-3
183.970642E-3
184.129143E-3
183.957481E-3
184.170914E-3
184.049606E-3
184.106827E-3
184.135437E-3
184.123421E-3
184.402657E-3
184.188080E-3
184.170914E-3
183.990097E-3
183.709717E-3
183.754921E-3
183.286858E-3
183.043098E-3
182.734680E-3
182.315826E-3
182.340431E-3
182.075500E-3
182.087517E-3
182.113838E-3
182.056618E-3
182.280350E-3
182.165337E-3
182.304382E-3
182.339287E-3
182.246590E-3
182.570457E-3
182.355881E-3
182.561302E-3
182.764435E-3
182.783318E-3
183.158684E-3
183.051682E-3
183.205605E-3
183.337784E-3
183.274269E-3
183.474541E-3
183.236504E-3
183.356667E-3
183.434486E-3
183.294868E-3
183.482552E-3
183.358383E-3
183.364677E-3
183.517456E-3
183.433914E-3
183.675385E-3
183.495712E-3
183.539772E-3
183.657646E-3
183.619881E-3
183.839035E-3
183.717728E-3
183.728027E-3
183.904266E-3
183.823586E-3
184.159470E-3
183.964348E-3
183.964920E-3
184.077644E-3
184.047318E-3
184.279633E-3
184.083939E-3
184.164619E-3
184.267616E-3
184.160614E-3
184.340286E-3
184.267616E-3
184.209251E-3
184.297943E-3
184.136009E-3
184.316826E-3
184.207535E-3
184.275055E-3
184.371185E-3
184.250450E-3
184.486771E-3
184.307098E-3
184.320259E-3
184.440994E-3
184.406090E-3
184.535980E-3
184.422684E-3
184.430695E-3
184.545135E-3
184.469604E-3
184.607506E-3
184.468460E-3
184.596634E-3
184.698486E-3
184.365463E-3
184.408379E-3
184.047890E-3
183.931732E-3
183.827591E-3
183.278847E-3
183.220482E-3
182.845688E-3
182.633400E-3
182.726097E-3
182.506371E-3
182.623672E-3
182.441711E-3
182.549858E-3
182.826805E-3
182.653999E-3
182.859421E-3
182.816505E-3
182.926369E-3
183.136368E-3
183.047676E-3
183.344078E-3
183.258820E-3
183.472824E-3
183.680534E-3
183.669090E-3
183.716011E-3
183.570099E-3
183.536339E-3
183.726883E-3
183.516884E-3
183.605003E-3
183.484840E-3
183.463669E-3
183.657646E-3
183.481407E-3
183.619881E-3
183.554649E-3
183.552933E-3
183.808136E-3
183.589554E-3
183.809853E-3
183.730316E-3
183.890533E-3
183.946037E-3
183.814430E-3
183.992386E-3
183.902550E-3
183.912277E-3
184.063339E-3
183.877945E-3
184.057045E-3
183.987808E-3
184.020424E-3
184.189224E-3
184.025002E-3
184.264755E-3
184.142303E-3
184.149170E-3
184.304237E-3
184.102821E-3
184.295654E-3
184.145737E-3
184.097672E-3
184.354019E-3
184.057617E-3
184.323120E-3
184.188080E-3
184.160614E-3
184.377480E-3
184.074783E-3
184.233856E-3
184.257317E-3
184.213257E-3
184.343719E-3
184.173775E-3
184.382629E-3
184.453583E-3
184.337997E-3
184.463882E-3
184.043312E-3
184.054756E-3
183.790398E-3
183.459663E-3
183.376122E-3
182.811356E-3
182.703781E-3
182.433701E-3
182.294083E-3
182.422256E-3
182.218552E-3
182.474899E-3
182.427406E-3
182.423973E-3
182.672882E-3
182.504082E-3
182.724953E-3
182.814789E-3
182.722092E-3
182.855415E-3
182.705498E-3
183.090019E-3
183.067703E-3
183.114624E-3
183.354378E-3
183.297729E-3
183.580971E-3
183.567238E-3
183.536339E-3
183.646774E-3
183.373260E-3
183.613014E-3
183.636475E-3
183.505440E-3
183.672523E-3
183.453369E-3
183.613014E-3
183.525467E-3
183.535767E-3
183.673668E-3
183.530617E-3
183.710861E-3
183.805847E-3
183.808708E-3
184.053612E-3
183.871078E-3
184.109116E-3
184.128571E-3
184.008408E-3
184.115982E-3
183.999252E-3
184.144592E-3
184.069061E-3
183.988380E-3
184.196091E-3
184.047890E-3
184.267044E-3
184.132004E-3
184.091377E-3
184.250450E-3
184.009552E-3
184.160042E-3
184.058189E-3
184.018707E-3
184.182358E-3
184.008408E-3
184.221268E-3
184.181213E-3
184.039307E-3
184.193230E-3
184.074783E-3
184.292793E-3
184.185219E-3
184.138870E-3
184.272766E-3
184.119987E-3
184.271622E-3
184.178352E-3
184.026146E-3
184.055328E-3
183.810997E-3
183.849907E-3
183.584404E-3
183.185577E-3
183.082008E-3
182.699776E-3
182.598495E-3
182.284355E-3
182.057190E-3
182.207108E-3
181.952477E-3
182.111549E-3
182.088089E-3
181.930733E-3
182.151031E-3
182.077789E-3
182.276917E-3
182.294655E-3
182.209396E-3
182.480049E-3
182.350159E-3
182.574463E-3
182.692337E-3
