Notes :


2023-11-04 ¿ÀÀü 12:13:17
Volts
Ch : LED 2,
244.904709E-3
245.221138E-3
245.173073E-3
245.171356E-3
245.270920E-3
245.220566E-3
245.293236E-3
245.492363E-3
245.586777E-3
245.631981E-3
245.446587E-3
245.823097E-3
245.457458E-3
245.423698E-3
245.542145E-3
245.162201E-3
245.207405E-3
244.588852E-3
244.140244E-3
243.792915E-3
243.148041E-3
242.930031E-3
242.515755E-3
242.472839E-3
242.581558E-3
242.341232E-3
242.706299E-3
242.590714E-3
242.529488E-3
242.849350E-3
242.605019E-3
243.074226E-3
243.192101E-3
243.264198E-3
243.581200E-3
243.411827E-3
243.883896E-3
243.857002E-3
244.075584E-3
244.259834E-3
243.994904E-3
244.256973E-3
244.145966E-3
244.071007E-3
244.239235E-3
244.028664E-3
244.215202E-3
244.234085E-3
244.287300E-3
244.367981E-3
244.230652E-3
244.658661E-3
244.549370E-3
244.691849E-3
244.682121E-3
244.562531E-3
245.013428E-3
244.852638E-3
244.930458E-3
245.117569E-3
244.951630E-3
245.294380E-3
245.163345E-3
245.286369E-3
245.491219E-3
245.226288E-3
245.515823E-3
245.368195E-3
245.297813E-3
245.470619E-3
245.283508E-3
245.812798E-3
245.689201E-3
245.694351E-3
245.902061E-3
245.623970E-3
246.047974E-3
245.906639E-3
245.852852E-3
246.017647E-3
245.811653E-3
246.146965E-3
245.774460E-3
245.313263E-3
244.916725E-3
244.493294E-3
244.375420E-3
243.598938E-3
243.030167E-3
242.717171E-3
242.436790E-3
242.778969E-3
242.695427E-3
242.522049E-3
242.894554E-3
242.697144E-3
243.025017E-3
243.040466E-3
242.909431E-3
243.241310E-3
243.163490E-3
243.472481E-3
243.584061E-3
243.593788E-3
243.918228E-3
243.817520E-3
244.243813E-3
244.298744E-3
244.208336E-3
244.306755E-3
244.288445E-3
244.522476E-3
244.445229E-3
244.289589E-3
244.658089E-3
244.603157E-3
244.639778E-3
244.586563E-3
244.505882E-3
244.836044E-3
244.828033E-3
245.071220E-3
244.928169E-3
244.946480E-3
245.052338E-3
244.935036E-3
245.229721E-3
245.273209E-3
245.171928E-3
245.571899E-3
245.303535E-3
245.504379E-3
245.508957E-3
245.348167E-3
245.695496E-3
245.448303E-3
245.670319E-3
245.575905E-3
245.522690E-3
245.823097E-3
245.666885E-3
245.855141E-3
245.867157E-3
245.710945E-3
245.863152E-3
245.800781E-3
246.031952E-3
246.152115E-3
245.957565E-3
246.072578E-3
245.978737E-3
246.133232E-3
245.991325E-3
245.549011E-3
245.330429E-3
244.892120E-3
244.417191E-3
243.866158E-3
243.234444E-3
243.235588E-3
242.818451E-3
242.782402E-3
242.848778E-3
242.672539E-3
242.955780E-3
242.795563E-3
243.046761E-3
243.100548E-3
243.030167E-3
243.192673E-3
243.059349E-3
243.390656E-3
243.517685E-3
243.729401E-3
244.377708E-3
243.982887E-3
244.379425E-3
244.676399E-3
244.476128E-3
244.781113E-3
244.341087E-3
244.442368E-3
244.708443E-3
244.495010E-3
244.586563E-3
244.522476E-3
244.694138E-3
244.817734E-3
244.683266E-3
245.108986E-3
244.787979E-3
244.923019E-3
245.096970E-3
244.996262E-3
245.459175E-3
245.332718E-3
245.357323E-3
245.494080E-3
245.273209E-3
245.638275E-3
245.356178E-3
245.619965E-3
245.746994E-3
245.539856E-3
245.738983E-3
245.602226E-3
245.711517E-3
245.934677E-3
245.747566E-3
245.991898E-3
245.820236E-3
245.901489E-3
246.093178E-3
245.932961E-3
246.387863E-3
246.058273E-3
246.171570E-3
246.320343E-3
246.193314E-3
246.624756E-3
246.322060E-3
246.418190E-3
246.557808E-3
246.297455E-3
246.503448E-3
246.348953E-3
245.833969E-3
245.525551E-3
244.717026E-3
244.337654E-3
243.815804E-3
243.525696E-3
243.423271E-3
243.019867E-3
243.223572E-3
243.140030E-3
243.204689E-3
243.399239E-3
243.160629E-3
243.464470E-3
243.592644E-3
243.450165E-3
243.750000E-3
243.593788E-3
243.974304E-3
244.122505E-3
244.175720E-3
244.455528E-3
244.385719E-3
244.694710E-3
244.726181E-3
244.742203E-3
244.849205E-3
244.636345E-3
244.842911E-3
244.873238E-3
244.734764E-3
244.838905E-3
244.642639E-3
245.037460E-3
245.014000E-3
244.872093E-3
245.131874E-3
244.905853E-3
245.238876E-3
245.372772E-3
245.275497E-3
245.435143E-3
245.236015E-3
245.557594E-3
245.729828E-3
245.558739E-3
245.777321E-3
245.562172E-3
245.781898E-3
245.811653E-3
245.665169E-3
245.858574E-3
245.728683E-3
246.133804E-3
246.007347E-3
245.845413E-3
245.958710E-3
245.694923E-3
246.265411E-3
246.061707E-3
245.969009E-3
246.122360E-3
245.934677E-3
246.142960E-3
246.250534E-3
246.200752E-3
246.486282E-3
246.155548E-3
246.790695E-3
246.510315E-3
246.286011E-3
246.438789E-3
246.097755E-3
246.041107E-3
245.531273E-3
244.889832E-3
244.589424E-3
243.879890E-3
243.501091E-3
243.293381E-3
242.936897E-3
243.095398E-3
242.987823E-3
243.026733E-3
243.275070E-3
243.120575E-3
243.505096E-3
243.323708E-3
243.561745E-3
243.812370E-3
243.733406E-3
243.910789E-3
243.847275E-3
244.535637E-3
244.453812E-3
244.386864E-3
244.573402E-3
244.449806E-3
244.582558E-3
244.477272E-3
244.355965E-3
244.515038E-3
244.379997E-3
244.370842E-3
244.573402E-3
244.437218E-3
244.668388E-3
244.544220E-3
244.763947E-3
244.858360E-3
244.682693E-3
245.012283E-3
244.814301E-3
244.935036E-3
245.003700E-3
244.892693E-3
245.205688E-3
245.079231E-3
245.515823E-3
245.347595E-3
245.299530E-3
245.595360E-3
245.375633E-3
245.351601E-3
245.635414E-3
245.471764E-3
245.672035E-3
245.508385E-3
245.882607E-3
245.923805E-3
245.591927E-3
245.839119E-3
245.673752E-3
245.971870E-3
246.010208E-3
245.815659E-3
246.096611E-3
245.904922E-3
246.070862E-3
246.121788E-3
245.990753E-3
246.251678E-3
246.027374E-3
246.063995E-3
245.864868E-3
245.107269E-3
245.194244E-3
244.583130E-3
244.234085E-3
243.971443E-3
243.296814E-3
243.331718E-3
242.964363E-3
243.023300E-3
243.178940E-3
242.966652E-3
243.325996E-3
243.264771E-3
243.406105E-3
243.506813E-3
243.626976E-3
243.939400E-3
243.719673E-3
243.913651E-3
244.403458E-3
244.191742E-3
244.654083E-3
244.562531E-3
244.620323E-3
244.744492E-3
244.572258E-3
244.908714E-3
244.596291E-3
244.560242E-3
244.579124E-3
244.523621E-3
244.863510E-3
244.714165E-3
244.731331E-3
244.856071E-3
244.827461E-3
245.162201E-3
244.893265E-3
245.034599E-3
245.345306E-3
245.231438E-3
245.509529E-3
245.353889E-3
245.382500E-3
245.582199E-3
245.431137E-3
245.781326E-3
245.627975E-3
245.634842E-3
245.760727E-3
245.689774E-3
246.037102E-3
245.823669E-3
245.954132E-3
246.296883E-3
245.923233E-3
246.220779E-3
246.060562E-3
246.098900E-3
246.203041E-3
246.098328E-3
246.417046E-3
246.340942E-3
246.290588E-3
246.329498E-3
246.254539E-3
246.644783E-3
246.550941E-3
246.517181E-3
246.477127E-3
246.391869E-3
246.693993E-3
246.260262E-3
245.871735E-3
245.314980E-3
244.631767E-3
244.535637E-3
243.984604E-3
243.589211E-3
243.729401E-3
243.325996E-3
243.647003E-3
243.427277E-3
243.410110E-3
243.768883E-3
243.442154E-3
243.928528E-3
243.772316E-3
243.820381E-3
244.092751E-3
243.873024E-3
244.371414E-3
244.368553E-3
244.454956E-3
244.548225E-3
244.481277E-3
245.034027E-3
244.900703E-3
244.741631E-3
245.170784E-3
244.838905E-3
245.161057E-3
244.920158E-3
244.775391E-3
244.926453E-3
244.654083E-3
245.051193E-3
245.102692E-3
244.910431E-3
245.104980E-3
245.139313E-3
245.332718E-3
245.388794E-3
245.185661E-3
245.657730E-3
245.421410E-3
245.776176E-3
245.721817E-3
245.610237E-3
245.874596E-3
245.467186E-3
245.819092E-3
245.823669E-3
245.669746E-3
246.036530E-3
245.819092E-3
246.019936E-3
246.129227E-3
245.908356E-3
245.981598E-3
246.077728E-3
246.253967E-3
246.181870E-3
246.009636E-3
246.160698E-3
246.160698E-3
246.370697E-3
246.346664E-3
246.181297E-3
246.822166E-3
246.544647E-3
246.630478E-3
246.603584E-3
246.363258E-3
246.557236E-3
246.148109E-3
246.074295E-3
245.542717E-3
244.837189E-3
244.595718E-3
243.733978E-3
243.630409E-3
243.427849E-3
243.171501E-3
243.400955E-3
243.166924E-3
243.418694E-3
243.466187E-3
243.409538E-3
243.752861E-3
243.544006E-3
243.851280E-3
243.910789E-3
243.851852E-3
244.096756E-3
244.239807E-3
244.417191E-3
244.540787E-3
244.646072E-3
244.817734E-3
244.865799E-3
244.938469E-3
245.011711E-3
244.759369E-3
244.890976E-3
244.715309E-3
244.850922E-3
244.906998E-3
244.816589E-3
244.989967E-3
244.821739E-3
244.989395E-3
245.146751E-3
245.100975E-3
245.695496E-3
245.377350E-3
245.358467E-3
245.552444E-3
245.416832E-3
245.737839E-3
245.618820E-3
245.625114E-3
245.799065E-3
245.636559E-3
246.063995E-3
245.794487E-3
245.890617E-3
245.899200E-3
245.850563E-3
246.092033E-3
245.927811E-3
245.910072E-3
246.080589E-3
245.881462E-3
246.203613E-3
246.109200E-3
246.164703E-3
246.279144E-3
246.173286E-3
246.537781E-3
246.189880E-3
246.331215E-3
246.478844E-3
246.283150E-3
246.778107E-3
246.286011E-3
246.375847E-3
246.506310E-3
246.060562E-3
246.089172E-3
245.391083E-3
244.995689E-3
244.638062E-3
243.892479E-3
243.903923E-3
243.498802E-3
243.359756E-3
243.372345E-3
243.111992E-3
243.596649E-3
243.413544E-3
243.581200E-3
243.751717E-3
243.622398E-3
244.131088E-3
243.921661E-3
244.042397E-3
244.297600E-3
244.288445E-3
244.872665E-3
244.698715E-3
244.713593E-3
244.904709E-3
244.696426E-3
244.898415E-3
244.806290E-3
244.833755E-3
244.877815E-3
244.640350E-3
244.815445E-3
244.817734E-3
244.876099E-3
244.977379E-3
244.789696E-3
245.094681E-3
245.009422E-3
245.151901E-3
245.332146E-3
245.070648E-3
245.688629E-3
245.444298E-3
245.353889E-3
245.473480E-3
245.265198E-3
245.641708E-3
245.665741E-3
245.590782E-3
245.789337E-3
245.549583E-3
245.920944E-3
245.898056E-3
245.712662E-3
245.816803E-3
245.590210E-3
245.939827E-3
245.914078E-3
245.901489E-3
246.050835E-3
245.827103E-3
246.283722E-3
246.089745E-3
246.066856E-3
246.251678E-3
246.049690E-3
246.334648E-3
246.264839E-3
246.126938E-3
246.307755E-3
246.007347E-3
246.092606E-3
245.967293E-3
245.273781E-3
244.850349E-3
244.013214E-3
243.956566E-3
243.362617E-3
243.061066E-3
243.089676E-3
242.803001E-3
243.180084E-3
243.007851E-3
242.904282E-3
243.272781E-3
243.243599E-3
243.541145E-3
243.392372E-3
243.289948E-3
243.569183E-3
243.443298E-3
243.969727E-3
243.891335E-3
243.996048E-3
244.280434E-3
244.212341E-3
244.521904E-3
244.260979E-3
244.143677E-3
244.362831E-3
244.176865E-3
244.373703E-3
244.160271E-3
244.117928E-3
244.417191E-3
244.307899E-3
244.632339E-3
244.512749E-3
244.499016E-3
244.710732E-3
244.630051E-3
245.031738E-3
244.916725E-3
244.743347E-3
245.016861E-3
244.969940E-3
245.367622E-3
245.302391E-3
245.036316E-3
245.330429E-3
245.172501E-3
245.575905E-3
245.493507E-3
245.149040E-3
245.436859E-3
245.288086E-3
245.748138E-3
245.636559E-3
245.504951E-3
245.656013E-3
245.558167E-3
245.578194E-3
245.881462E-3
245.592499E-3
245.935822E-3
245.696068E-3
245.924950E-3
245.977592E-3
245.717239E-3
245.936394E-3
245.569038E-3
245.787621E-3
245.356178E-3
244.664955E-3
244.413185E-3
243.756866E-3
243.265915E-3
243.268204E-3
242.828178E-3
242.944908E-3
242.679977E-3
242.679977E-3
243.083382E-3
242.915726E-3
243.194389E-3
243.154335E-3
243.247032E-3
243.617821E-3
243.443871E-3
243.663597E-3
243.545723E-3
243.657875E-3
243.906212E-3
244.081879E-3
244.388008E-3
244.292450E-3
244.446373E-3
244.512749E-3
244.369698E-3
244.545364E-3
244.313049E-3
244.309044E-3
244.308472E-3
244.291878E-3
244.567108E-3
244.344521E-3
244.633484E-3
244.810867E-3
244.656944E-3
244.877815E-3
244.709015E-3
244.932175E-3
245.132446E-3
244.940186E-3
245.272064E-3
245.112419E-3
245.215988E-3
245.398521E-3
245.224571E-3
245.610809E-3
245.312119E-3
245.597649E-3
245.591927E-3
245.375633E-3
245.769882E-3
245.539284E-3
245.667458E-3
245.791626E-3
245.543861E-3
245.795059E-3
245.628548E-3
245.896912E-3
246.043968E-3
245.781326E-3
246.111488E-3
245.870590E-3
245.803070E-3
246.200752E-3
246.006775E-3
246.311188E-3
245.950127E-3
245.819664E-3
245.772171E-3
245.162201E-3
245.078659E-3
244.325066E-3
243.672180E-3
243.330574E-3
242.889977E-3
243.057632E-3
242.780113E-3
242.829895E-3
242.811584E-3
242.679977E-3
243.087959E-3
242.873955E-3
243.066788E-3
243.206978E-3
243.021011E-3
243.428993E-3
243.265343E-3
243.485641E-3
243.750572E-3
243.657875E-3
244.079590E-3
244.108772E-3
244.192314E-3
244.385147E-3
244.141960E-3
244.553375E-3
244.388008E-3
244.406319E-3
244.442940E-3
244.109917E-3
244.508743E-3
244.358253E-3
244.634056E-3
244.580841E-3
244.338226E-3
244.797707E-3
244.720459E-3
244.730186E-3
244.904137E-3
244.731331E-3
245.121574E-3
245.047188E-3
245.174217E-3
245.222855E-3
245.058632E-3
245.509529E-3
245.257187E-3
245.234871E-3
245.441437E-3
245.177078E-3
245.648003E-3
245.526123E-3
245.322418E-3
245.492363E-3
245.307541E-3
245.799637E-3
245.667458E-3
245.512390E-3
245.688057E-3
245.525551E-3
246.009636E-3
245.959854E-3
245.780182E-3
246.002197E-3
245.864296E-3
246.219063E-3
246.157265E-3
245.970154E-3
245.950127E-3
245.655441E-3
245.660019E-3
245.277786E-3
244.414330E-3
244.182587E-3
243.510246E-3
243.480492E-3
243.136024E-3
242.788696E-3
242.839622E-3
242.639351E-3
242.968941E-3
242.886543E-3
242.721176E-3
243.017578E-3
242.906570E-3
243.238449E-3
243.265343E-3
243.279076E-3
243.522835E-3
243.451881E-3
243.895912E-3
243.994331E-3
244.030952E-3
244.308472E-3
244.139099E-3
244.442940E-3
244.398880E-3
244.188881E-3
244.418335E-3
244.180870E-3
244.393730E-3
244.434929E-3
244.227219E-3
244.488716E-3
244.377708E-3
244.536209E-3
244.595146E-3
244.520187E-3
244.751930E-3
244.680405E-3
244.871521E-3
244.969940E-3
244.896126E-3
245.101547E-3
244.927025E-3
245.127869E-3
245.201111E-3
245.122719E-3
245.381927E-3
245.169067E-3
245.435715E-3
245.363617E-3
245.329285E-3
245.567322E-3
245.363617E-3
245.547295E-3
245.532990E-3
245.387077E-3
245.541000E-3
245.419121E-3
245.585060E-3
245.676613E-3
245.568466E-3
245.815086E-3
245.725822E-3
245.909500E-3
245.916939E-3
245.843124E-3
245.959854E-3
245.752716E-3
245.926094E-3
245.923233E-3
245.767021E-3
245.744705E-3
245.295525E-3
244.973373E-3
244.504166E-3
243.857574E-3
243.565178E-3
242.880249E-3
242.779541E-3
242.841911E-3
242.743492E-3
242.782402E-3
242.586708E-3
242.786407E-3
242.921448E-3
242.828178E-3
243.189240E-3
243.073654E-3
243.205261E-3
243.435287E-3
243.279076E-3
243.724251E-3
243.728256E-3
244.025230E-3
244.238091E-3
244.017792E-3
244.293594E-3
244.040680E-3
244.150543E-3
244.191170E-3
243.925095E-3
244.251823E-3
244.056702E-3
244.222069E-3
244.359398E-3
244.157410E-3
244.513321E-3
244.375992E-3
244.456100E-3
244.596291E-3
244.313622E-3
244.783974E-3
244.682693E-3
244.809723E-3
244.992828E-3
244.664383E-3
245.037460E-3
244.863510E-3
244.984818E-3
245.102692E-3
244.790268E-3
245.200539E-3
245.009422E-3
245.112419E-3
245.217705E-3
245.044327E-3
245.364189E-3
245.114708E-3
245.136452E-3
245.410538E-3
245.179939E-3
245.559883E-3
245.234299E-3
245.353889E-3
245.565605E-3
245.352745E-3
245.789909E-3
245.523834E-3
245.569611E-3
245.674896E-3
245.411682E-3
245.823669E-3
245.601082E-3
245.550728E-3
245.325279E-3
244.684410E-3
244.457817E-3
243.705368E-3
243.243027E-3
243.090820E-3
242.620468E-3
242.784691E-3
242.615318E-3
242.605019E-3
242.758942E-3
