Notes :


2023-11-06 ¿ÀÈÄ 7:12:18
Volts
Ch : LED 2,
204.535103E-3
204.489326E-3
204.239273E-3
204.238129E-3
204.084778E-3
204.077911E-3
204.053879E-3
203.863907E-3
203.956032E-3
203.922844E-3
203.936577E-3
204.004669E-3
203.746605E-3
203.730583E-3
203.173256E-3
202.779007E-3
202.348137E-3
201.595688E-3
201.173973E-3
200.641251E-3
200.265884E-3
200.129128E-3
199.914551E-3
199.963188E-3
199.984932E-3
200.058746E-3
200.277328E-3
200.265312E-3
200.561142E-3
200.501060E-3
200.647545E-3
200.820923E-3
200.839233E-3
201.167107E-3
201.220322E-3
201.533318E-3
201.708412E-3
201.845169E-3
202.158165E-3
202.104378E-3
202.210808E-3
202.246284E-3
202.192497E-3
202.418518E-3
202.265739E-3
202.356148E-3
202.392769E-3
202.389908E-3
202.582741E-3
202.543831E-3
202.538109E-3
202.673721E-3
202.625084E-3
202.856255E-3
202.789879E-3
202.906609E-3
203.031921E-3
203.009033E-3
203.268814E-3
203.190994E-3
203.276825E-3
203.452492E-3
203.437614E-3
203.492546E-3
203.404999E-3
203.399277E-3
203.475380E-3
203.385544E-3
203.613853E-3
203.486252E-3
203.512573E-3
203.670502E-3
203.590393E-3
203.722000E-3
203.724861E-3
203.793526E-3
203.885651E-3
203.775787E-3
203.950882E-3
203.858185E-3
203.969193E-3
203.954887E-3
203.732872E-3
203.620148E-3
203.097153E-3
202.623367E-3
202.120399E-3
201.331902E-3
200.940514E-3
200.373459E-3
199.924850E-3
199.818420E-3
199.572372E-3
199.629021E-3
199.581528E-3
199.682808E-3
199.935722E-3
199.926567E-3
200.130844E-3
200.193787E-3
200.342560E-3
200.474167E-3
200.424385E-3
200.605774E-3
200.784874E-3
200.984573E-3
201.407433E-3
201.504135E-3
201.790810E-3
201.885223E-3
201.905823E-3
201.985931E-3
201.849174E-3
201.983643E-3
201.985359E-3
201.940155E-3
202.033997E-3
201.943016E-3
202.072334E-3
201.991653E-3
202.041435E-3
202.245712E-3
202.190781E-3
202.475739E-3
202.503204E-3
202.500916E-3
202.775002E-3
202.690887E-3
202.956390E-3
202.867126E-3
202.879715E-3
203.034782E-3
202.967834E-3
203.101730E-3
203.122330E-3
203.039932E-3
203.239632E-3
203.184700E-3
203.653908E-3
203.863907E-3
204.040718E-3
204.400063E-3
204.582596E-3
204.677582E-3
204.605484E-3
204.463577E-3
204.594040E-3
204.372025E-3
204.405212E-3
204.310799E-3
204.194069E-3
204.167175E-3
203.931999E-3
203.916550E-3
203.710556E-3
203.288841E-3
203.011894E-3
202.254868E-3
201.721001E-3
200.974846E-3
200.256729E-3
199.731445E-3
199.196434E-3
199.007034E-3
198.830223E-3
198.687172E-3
198.778152E-3
198.638535E-3
198.854256E-3
198.847961E-3
198.881149E-3
199.126053E-3
199.051666E-3
199.305153E-3
199.354362E-3
199.410439E-3
199.770355E-3
199.899101E-3
200.292778E-3
200.618362E-3
200.745964E-3
201.098442E-3
201.154518E-3
201.330757E-3
201.428604E-3
201.377106E-3
201.572227E-3
201.406860E-3
201.489830E-3
201.478958E-3
201.359367E-3
201.507568E-3
201.378250E-3
201.540184E-3
201.503563E-3
201.501846E-3
201.701546E-3
201.749039E-3
201.989937E-3
202.021408E-3
202.085495E-3
202.322388E-3
202.237129E-3
202.402496E-3
202.483749E-3
202.440834E-3
202.611351E-3
202.563858E-3
202.719498E-3
202.688026E-3
202.686882E-3
202.782440E-3
202.688026E-3
202.804184E-3
202.770424E-3
202.710915E-3
202.746964E-3
202.745247E-3
202.771568E-3
202.724075E-3
202.736664E-3
202.825928E-3
202.784157E-3
202.875710E-3
203.018761E-3
202.894592E-3
203.101730E-3
203.035927E-3
203.078270E-3
203.118324E-3
202.972412E-3
203.011322E-3
202.659416E-3
202.312088E-3
201.822853E-3
201.032639E-3
200.561714E-3
199.744606E-3
199.254227E-3
198.851967E-3
198.422813E-3
198.373032E-3
198.197365E-3
198.215103E-3
198.353004E-3
198.278046E-3
198.547554E-3
198.523521E-3
198.666000E-3
198.818207E-3
198.842239E-3
199.127197E-3
199.195290E-3
199.460220E-3
199.802971E-3
200.043297E-3
200.510216E-3
200.631523E-3
200.937653E-3
201.157951E-3
201.166534E-3
201.384544E-3
201.327896E-3
201.315308E-3
201.351929E-3
201.240349E-3
201.430321E-3
201.334763E-3
201.335335E-3
201.391411E-3
201.342773E-3
201.560783E-3
201.563644E-3
201.657486E-3
201.861763E-3
201.826859E-3
202.071762E-3
202.033997E-3
202.158737E-3
202.285767E-3
202.187920E-3
202.374458E-3
202.334976E-3
202.371025E-3
202.481461E-3
202.466583E-3
202.640533E-3
202.564430E-3
202.662849E-3
202.827644E-3
202.657700E-3
202.817345E-3
202.673149E-3
202.668571E-3
202.765274E-3
202.672577E-3
202.788162E-3
202.696037E-3
202.725220E-3
202.822495E-3
202.679443E-3
202.808762E-3
202.783585E-3
202.850533E-3
202.953529E-3
202.821922E-3
202.927208E-3
202.839088E-3
202.863121E-3
203.029060E-3
202.932930E-3
203.057098E-3
203.039360E-3
203.065109E-3
203.078842E-3
202.629662E-3
202.323532E-3
201.648331E-3
200.949097E-3
200.447273E-3
199.799538E-3
199.423599E-3
199.068832E-3
199.035645E-3
198.988724E-3
198.697472E-3
198.601341E-3
198.532677E-3
198.592186E-3
198.672295E-3
198.548698E-3
198.659706E-3
198.624229E-3
198.722649E-3
198.880577E-3
198.815346E-3
199.144936E-3
199.347496E-3
199.611282E-3
199.986076E-3
200.111389E-3
200.318527E-3
200.430679E-3
200.383759E-3
200.519371E-3
200.424957E-3
200.453568E-3
200.422668E-3
200.434685E-3
200.530815E-3
200.343132E-3
200.501060E-3
200.522804E-3
200.576591E-3
200.661850E-3
200.570869E-3
200.766563E-3
200.886154E-3
200.879860E-3
201.103020E-3
200.984573E-3
201.204872E-3
201.226044E-3
201.172829E-3
201.341629E-3
201.196289E-3
201.416588E-3
201.385117E-3
201.370811E-3
201.525307E-3
201.339912E-3
201.544762E-3
201.523018E-3
201.477242E-3
201.630020E-3
201.511002E-3
201.647758E-3
201.647186E-3
201.676369E-3
201.752472E-3
201.661491E-3
201.701546E-3
201.775360E-3
201.725006E-3
201.895523E-3
201.750755E-3
201.864624E-3
201.875496E-3
201.815414E-3
201.934433E-3
201.803970E-3
201.948738E-3
201.966476E-3
201.966476E-3
201.994514E-3
201.890945E-3
202.031136E-3
202.076340E-3
201.942444E-3
202.027130E-3
201.789093E-3
201.591110E-3
201.168251E-3
200.450134E-3
199.998093E-3
199.186707E-3
198.690033E-3
198.147011E-3
197.650909E-3
197.611427E-3
197.436333E-3
197.525024E-3
197.479248E-3
197.525024E-3
197.825432E-3
197.866058E-3
198.161316E-3
198.299789E-3
198.294640E-3
198.525810E-3
198.537827E-3
198.758698E-3
198.971558E-3
199.150658E-3
199.552345E-3
199.662209E-3
199.821854E-3
199.944878E-3
199.955177E-3
200.021553E-3
199.922562E-3
199.946022E-3
199.942017E-3
199.934578E-3
199.936867E-3
199.913406E-3
199.988365E-3
200.020409E-3
199.991798E-3
200.170898E-3
200.378036E-3
200.778008E-3
201.059532E-3
201.339912E-3
201.837158E-3
201.713562E-3
201.798820E-3
201.769638E-3
201.611137E-3
201.676941E-3
201.550484E-3
201.506424E-3
201.409149E-3
201.255226E-3
201.352501E-3
201.197433E-3
201.204872E-3
201.260376E-3
201.163101E-3
201.315308E-3
201.216888E-3
201.323891E-3
201.407433E-3
201.300430E-3
201.449776E-3
201.360512E-3
201.367950E-3
201.325607E-3
201.266098E-3
201.486397E-3
201.342201E-3
201.399422E-3
201.416016E-3
201.402283E-3
201.555634E-3
201.494408E-3
201.567650E-3
201.611710E-3
201.628304E-3
201.797104E-3
201.723862E-3
201.722145E-3
201.846886E-3
201.772499E-3
201.881790E-3
201.538467E-3
201.310158E-3
200.949669E-3
200.336838E-3
199.931717E-3
199.201012E-3
198.583031E-3
198.191643E-3
197.671509E-3
197.652626E-3
197.428322E-3
197.415161E-3
197.540474E-3
197.515869E-3
197.772789E-3
197.792244E-3
197.933006E-3
198.211098E-3
198.178482E-3
198.502350E-3
198.499489E-3
198.679161E-3
198.977852E-3
199.044228E-3
199.455070E-3
199.577522E-3
199.824715E-3
200.088501E-3
199.990082E-3
200.122833E-3
200.097656E-3
200.131416E-3
200.153160E-3
200.014687E-3
200.047302E-3
199.972916E-3
200.005531E-3
200.153732E-3
200.034714E-3
200.328827E-3
200.232697E-3
200.341988E-3
200.573158E-3
200.573730E-3
200.827217E-3
200.789452E-3
200.883865E-3
201.038933E-3
200.959969E-3
201.233482E-3
201.138496E-3
201.212311E-3
201.327324E-3
201.216888E-3
201.385117E-3
201.293564E-3
201.315308E-3
201.439476E-3
201.339340E-3
201.521301E-3
201.465225E-3
201.499557E-3
201.612854E-3
201.588821E-3
201.694679E-3
201.692963E-3
201.653481E-3
201.749611E-3
201.605988E-3
201.747322E-3
201.694107E-3
201.647758E-3
201.771355E-3
201.692390E-3
201.749039E-3
201.765633E-3
201.797104E-3
201.928139E-3
201.833153E-3
201.999092E-3
202.014542E-3
202.058601E-3
202.336693E-3
202.499771E-3
202.700615E-3
202.763557E-3
202.741814E-3
202.597618E-3
202.092934E-3
201.606560E-3
200.931931E-3
200.180054E-3
199.597549E-3
198.815918E-3
198.406219E-3
198.100090E-3
197.820282E-3
197.902107E-3
197.624588E-3
197.900391E-3
198.011398E-3
198.053741E-3
198.199654E-3
198.183632E-3
198.510361E-3
198.613358E-3
198.657990E-3
198.873711E-3
198.855972E-3
199.214745E-3
199.407005E-3
199.589539E-3
199.938583E-3
199.872780E-3
200.058174E-3
200.190926E-3
200.193214E-3
200.286484E-3
200.187492E-3
200.287056E-3
200.265312E-3
200.159454E-3
200.265884E-3
200.089645E-3
200.285912E-3
200.363731E-3
200.297928E-3
200.466728E-3
200.399780E-3
200.629807E-3
200.699615E-3
200.728226E-3
200.964546E-3
200.944519E-3
201.172829E-3
201.226616E-3
201.140213E-3
201.287270E-3
201.182556E-3
201.392555E-3
201.370239E-3
201.293564E-3
201.497269E-3
201.409721E-3
201.493263E-3
201.520157E-3
201.489830E-3
201.627159E-3
201.500130E-3
201.588821E-3
201.663780E-3
201.561928E-3
201.682091E-3
201.646042E-3
201.721573E-3
201.742744E-3
201.632881E-3
201.846886E-3
201.680374E-3
201.732445E-3
201.755905E-3
201.691818E-3
201.804543E-3
201.801109E-3
201.868057E-3
201.877213E-3
201.741600E-3
201.899529E-3
201.822853E-3
201.906395E-3
201.965332E-3
201.802826E-3
202.004814E-3
201.916695E-3
201.873207E-3
201.608276E-3
201.135635E-3
200.724792E-3
200.105095E-3
199.585533E-3
198.969841E-3
198.338699E-3
198.103523E-3
197.684097E-3
197.645187E-3
197.612572E-3
197.564507E-3
197.738457E-3
197.791672E-3
197.930717E-3
198.156738E-3
198.197937E-3
198.422241E-3
198.448563E-3
198.600197E-3
198.748970E-3
198.770142E-3
199.065399E-3
199.203873E-3
199.443054E-3
199.683952E-3
199.728584E-3
199.995804E-3
199.839020E-3
199.908829E-3
199.972343E-3
199.911690E-3
200.045013E-3
199.936867E-3
199.942017E-3
200.090218E-3
199.968910E-3
200.081062E-3
200.023842E-3
200.172615E-3
200.355148E-3
200.320816E-3
200.606346E-3
200.596619E-3
200.713921E-3
200.872421E-3
200.745964E-3
200.998878E-3
200.915909E-3
200.938797E-3
201.079559E-3
200.993156E-3
201.161957E-3
201.123047E-3
201.206017E-3
201.258087E-3
201.173401E-3
201.387978E-3
201.288986E-3
201.334763E-3
201.469803E-3
201.282120E-3
201.552200E-3
201.381683E-3
201.448059E-3
201.517296E-3
201.450348E-3
201.632881E-3
201.509285E-3
201.535034E-3
201.691246E-3
201.549339E-3
201.711273E-3
201.659203E-3
201.731873E-3
201.887512E-3
201.797104E-3
202.016258E-3
201.969910E-3
202.040291E-3
202.195358E-3
202.033424E-3
202.149582E-3
202.065468E-3
202.146149E-3
202.202225E-3
201.956177E-3
201.798820E-3
201.412582E-3
200.943375E-3
200.550270E-3
199.786949E-3
199.352646E-3
198.795319E-3
198.568153E-3
198.576164E-3
198.473167E-3
198.692322E-3
198.880005E-3
199.057961E-3
199.294853E-3
199.242210E-3
199.476814E-3
199.499130E-3
199.558067E-3
199.713135E-3
199.616432E-3
199.812126E-3
199.887085E-3
200.055313E-3
200.277901E-3
200.260735E-3
200.477028E-3
200.440979E-3
200.402069E-3
200.582314E-3
200.484467E-3
200.571442E-3
200.424385E-3
200.390053E-3
200.560570E-3
200.439262E-3
200.571442E-3
200.616646E-3
200.640678E-3
200.774002E-3
200.769424E-3
201.036644E-3
201.125908E-3
201.109314E-3
201.339340E-3
201.256371E-3
201.362801E-3
201.462364E-3
201.416016E-3
201.563644E-3
201.445198E-3
201.611137E-3
201.686668E-3
201.615715E-3
201.772499E-3
201.622581E-3
201.762199E-3
201.819420E-3
201.718712E-3
201.829147E-3
201.666069E-3
201.758766E-3
201.804543E-3
201.728439E-3
201.828575E-3
201.636314E-3
201.845741E-3
201.821709E-3
201.765060E-3
201.893806E-3
201.765060E-3
201.865196E-3
201.955605E-3
201.906395E-3
202.027130E-3
201.944733E-3
202.022552E-3
202.054596E-3
202.041435E-3
202.201080E-3
201.999092E-3
202.125549E-3
201.984215E-3
201.630592E-3
201.342201E-3
200.778008E-3
200.326538E-3
199.707985E-3
199.068260E-3
198.815346E-3
198.363876E-3
198.270035E-3
198.166466E-3
198.040581E-3
198.338127E-3
198.350143E-3
198.695183E-3
198.874283E-3
198.999596E-3
199.261665E-3
199.254799E-3
199.477959E-3
199.570084E-3
199.622726E-3
199.877357E-3
199.908257E-3
200.264168E-3
200.335121E-3
200.359726E-3
200.501060E-3
200.447273E-3
200.626373E-3
200.546265E-3
200.431252E-3
200.606346E-3
200.495911E-3
200.562859E-3
200.555992E-3
200.432396E-3
200.598335E-3
200.656128E-3
200.806618E-3
200.886154E-3
200.866127E-3
201.094437E-3
201.135635E-3
201.278687E-3
201.367378E-3
201.309586E-3
201.538467E-3
201.484108E-3
201.481819E-3
201.572227E-3
201.441193E-3
201.714134E-3
201.622009E-3
201.678085E-3
201.809120E-3
201.627159E-3
201.766777E-3
201.731873E-3
201.803398E-3
201.779366E-3
201.693535E-3
201.832581E-3
201.731300E-3
201.804543E-3
201.805687E-3
201.801109E-3
201.881790E-3
201.867485E-3
201.870346E-3
201.908112E-3
201.928711E-3
202.063751E-3
201.973343E-3
202.074051E-3
202.155876E-3
202.056313E-3
202.247429E-3
202.177620E-3
202.191353E-3
202.171326E-3
201.835442E-3
201.714134E-3
201.062393E-3
200.521660E-3
200.062752E-3
199.489403E-3
199.183273E-3
198.617935E-3
198.340416E-3
198.220253E-3
198.045731E-3
198.266029E-3
198.223114E-3
198.326111E-3
198.572731E-3
198.656845E-3
198.940659E-3
198.917198E-3
199.044228E-3
199.184990E-3
199.118614E-3
199.398994E-3
199.466515E-3
199.650764E-3
199.955750E-3
199.976921E-3
200.293922E-3
200.261307E-3
200.284195E-3
200.416374E-3
200.277901E-3
200.375175E-3
200.214386E-3
200.153732E-3
200.234985E-3
200.089073E-3
200.234985E-3
200.146294E-3
200.236130E-3
200.423813E-3
200.331688E-3
200.546265E-3
200.530815E-3
200.661278E-3
200.902748E-3
200.755692E-3
200.998878E-3
200.986862E-3
201.068115E-3
201.263809E-3
201.084709E-3
201.264381E-3
201.232338E-3
201.306725E-3
201.422310E-3
201.382828E-3
201.484108E-3
201.476669E-3
201.442337E-3
201.559067E-3
201.437187E-3
201.505280E-3
201.458359E-3
201.433754E-3
201.544762E-3
201.414299E-3
201.500702E-3
201.475525E-3
201.530457E-3
201.604271E-3
201.586533E-3
201.690102E-3
201.630020E-3
201.654053E-3
201.762199E-3
201.635742E-3
201.746178E-3
201.699257E-3
201.659203E-3
201.639748E-3
201.227188E-3
200.942230E-3
200.374603E-3
199.737740E-3
199.240494E-3
198.596764E-3
198.228264E-3
197.861481E-3
197.586250E-3
197.571945E-3
197.475243E-3
197.665215E-3
197.769928E-3
197.915840E-3
198.101807E-3
198.139000E-3
198.347282E-3
198.379326E-3
198.525238E-3
198.639107E-3
198.587036E-3
198.966408E-3
199.018478E-3
199.255371E-3
199.444771E-3
199.355507E-3
199.630165E-3
199.613571E-3
199.666786E-3
199.812126E-3
199.585533E-3
199.738312E-3
199.703407E-3
199.584961E-3
199.675369E-3
199.424171E-3
199.606705E-3
