Notes :


2023-11-06 ¿ÀÈÄ 6:57:36
Volts
Ch : LED 2,
198.303795E-3
198.138428E-3
198.321533E-3
198.149300E-3
198.315239E-3
198.521805E-3
198.427963E-3
198.692894E-3
198.657990E-3
198.694611E-3
198.751259E-3
198.623085E-3
198.720932E-3
198.563004E-3
198.584175E-3
198.681450E-3
198.623085E-3
198.717499E-3
198.577309E-3
198.647690E-3
198.773003E-3
198.628807E-3
198.718071E-3
198.647118E-3
198.591042E-3
198.708344E-3
198.548698E-3
198.662567E-3
198.548126E-3
198.639107E-3
198.767281E-3
198.692322E-3
198.750687E-3
198.556137E-3
198.493195E-3
198.442841E-3
198.061752E-3
197.917557E-3
197.494125E-3
197.218895E-3
197.136497E-3
196.774292E-3
196.719360E-3
196.582603E-3
196.662140E-3
196.805763E-3
196.673584E-3
196.976852E-3
196.932793E-3
197.174835E-3
197.272110E-3
197.198296E-3
197.543907E-3
197.594833E-3
197.707558E-3
198.066330E-3
197.986794E-3
198.137283E-3
198.083496E-3
198.084641E-3
198.192215E-3
198.136711E-3
198.177338E-3
198.094940E-3
198.183632E-3
198.299789E-3
198.282051E-3
198.326111E-3
198.265457E-3
198.255730E-3
198.415947E-3
198.385048E-3
198.620224E-3
198.670578E-3
198.789024E-3
198.909187E-3
198.744392E-3
199.000740E-3
198.898888E-3
198.811340E-3
198.853683E-3
198.624802E-3
198.694611E-3
198.653412E-3
198.637962E-3
198.774719E-3
198.644257E-3
198.797035E-3
198.728943E-3
198.675728E-3
198.682022E-3
198.477745E-3
198.604202E-3
198.594475E-3
198.528099E-3
198.679161E-3
198.479462E-3
198.655128E-3
198.642540E-3
198.641396E-3
198.822784E-3
198.575020E-3
198.624229E-3
198.666000E-3
198.617935E-3
198.849678E-3
198.676300E-3
198.727798E-3
198.663712E-3
198.479462E-3
198.492622E-3
198.068047E-3
197.846031E-3
197.514725E-3
197.131920E-3
196.998024E-3
196.673584E-3
196.570587E-3
196.545982E-3
196.429825E-3
196.599197E-3
196.595192E-3
196.717644E-3
196.797752E-3
196.853256E-3
197.093582E-3
197.119904E-3
197.413445E-3
197.496414E-3
197.502136E-3
197.837448E-3
197.907829E-3
198.146439E-3
198.305511E-3
198.177338E-3
198.494911E-3
198.259735E-3
198.360443E-3
198.259735E-3
198.118973E-3
198.292351E-3
198.234558E-3
198.290062E-3
198.318100E-3
198.246002E-3
198.464012E-3
198.377609E-3
198.551559E-3
198.523521E-3
198.532104E-3
198.785591E-3
198.640251E-3
198.894882E-3
199.077988E-3
199.020767E-3
199.221611E-3
199.342918E-3
199.595261E-3
199.607849E-3
199.423599E-3
199.407005E-3
199.210167E-3
199.262810E-3
199.316025E-3
199.170113E-3
199.277687E-3
199.247932E-3
199.310875E-3
199.304008E-3
199.150658E-3
199.196434E-3
199.123192E-3
199.122620E-3
199.159813E-3
198.995590E-3
199.207878E-3
199.047661E-3
199.079704E-3
199.140358E-3
199.028778E-3
199.215317E-3
199.158669E-3
199.214745E-3
199.249077E-3
199.184418E-3
199.282265E-3
199.001312E-3
198.810196E-3
198.571587E-3
198.116112E-3
197.929001E-3
197.463226E-3
197.259521E-3
197.200012E-3
196.981430E-3
197.064972E-3
196.873856E-3
197.004318E-3
197.135925E-3
197.140503E-3
197.321892E-3
197.289276E-3
197.365952E-3
197.492409E-3
197.483826E-3
197.842026E-3
197.803116E-3
197.954178E-3
198.033142E-3
198.078918E-3
198.249435E-3
198.231125E-3
198.157310E-3
198.274040E-3
198.122406E-3
198.317528E-3
198.156166E-3
198.128700E-3
198.236275E-3
198.088646E-3
198.375320E-3
198.257446E-3
198.262024E-3
198.416519E-3
198.430824E-3
198.635101E-3
198.643684E-3
198.789024E-3
198.937798E-3
198.889732E-3
199.081993E-3
199.032211E-3
199.007034E-3
199.146080E-3
199.006462E-3
199.232483E-3
199.051666E-3
199.024773E-3
199.205589E-3
199.068832E-3
199.221039E-3
199.214172E-3
199.364090E-3
199.522591E-3
199.453354E-3
199.811554E-3
199.713707E-3
199.680519E-3
199.682236E-3
199.475670E-3
199.521446E-3
199.516296E-3
199.497986E-3
199.614716E-3
199.492836E-3
199.594688E-3
199.532318E-3
199.532890E-3
199.694252E-3
199.547195E-3
199.611282E-3
199.496841E-3
199.467659E-3
199.454498E-3
199.178123E-3
199.060822E-3
198.764992E-3
198.434258E-3
198.248863E-3
197.879219E-3
197.789955E-3
197.520447E-3
197.478104E-3
197.572517E-3
197.562218E-3
197.727013E-3
197.684669E-3
197.757912E-3
198.008537E-3
197.934151E-3
198.154449E-3
198.258018E-3
198.426819E-3
198.638535E-3
198.616219E-3
198.864555E-3
198.948669E-3
198.920059E-3
199.112320E-3
198.953819E-3
198.991585E-3
198.949242E-3
198.957825E-3
199.096870E-3
198.878860E-3
199.031639E-3
199.047089E-3
199.078560E-3
199.234200E-3
199.001312E-3
199.233055E-3
199.289131E-3
199.267960E-3
199.469948E-3
199.385262E-3
199.665070E-3
199.651909E-3
199.607849E-3
199.689674E-3
199.612427E-3
199.742317E-3
199.725151E-3
199.740601E-3
199.820709E-3
199.659920E-3
199.843597E-3
199.701691E-3
199.635315E-3
199.836159E-3
199.586105E-3
199.691391E-3
199.723434E-3
199.603844E-3
199.679375E-3
199.531746E-3
199.719429E-3
199.674225E-3
199.450493E-3
199.631882E-3
199.436188E-3
199.628448E-3
199.639320E-3
199.502563E-3
199.711418E-3
199.539757E-3
199.684525E-3
199.610138E-3
199.459076E-3
199.526596E-3
199.323463E-3
199.225616E-3
199.069977E-3
198.607635E-3
198.472023E-3
197.938728E-3
197.850609E-3
197.612000E-3
197.440338E-3
197.622871E-3
197.461510E-3
197.610283E-3
197.641182E-3
197.586250E-3
197.923279E-3
197.900391E-3
198.068047E-3
198.094368E-3
198.143578E-3
198.409653E-3
198.500061E-3
198.625374E-3
198.676872E-3
198.696899E-3
198.873138E-3
198.851395E-3
198.802185E-3
198.778152E-3
198.666573E-3
198.812485E-3
198.695183E-3
198.743248E-3
198.684883E-3
198.558998E-3
198.759842E-3
198.599052E-3
198.764420E-3
198.858261E-3
198.812485E-3
199.067688E-3
199.083710E-3
199.238205E-3
199.300003E-3
199.221611E-3
199.345779E-3
199.290276E-3
199.303436E-3
199.390411E-3
199.291420E-3
199.437332E-3
199.320030E-3
199.397278E-3
199.519157E-3
199.401855E-3
199.560928E-3
199.352646E-3
199.416733E-3
199.504852E-3
199.373245E-3
199.502563E-3
199.387550E-3
199.499702E-3
199.545479E-3
199.455643E-3
199.663925E-3
199.461365E-3
199.561501E-3
199.587822E-3
199.450493E-3
199.631310E-3
199.544334E-3
199.515152E-3
199.669647E-3
199.488831E-3
199.703979E-3
199.389267E-3
199.304008E-3
199.191284E-3
198.814774E-3
198.699188E-3
198.237419E-3
197.971916E-3
197.817421E-3
197.504997E-3
197.500992E-3
197.265816E-3
197.361946E-3
197.455215E-3
197.352219E-3
197.579384E-3
197.554779E-3
197.643471E-3
197.847176E-3
197.749901E-3
197.991943E-3
198.051453E-3
198.143005E-3
198.473167E-3
198.402786E-3
198.619652E-3
198.618507E-3
198.607063E-3
198.815346E-3
198.588181E-3
198.690033E-3
198.575592E-3
198.565292E-3
198.711777E-3
198.519516E-3
198.628807E-3
198.467445E-3
198.573303E-3
198.693466E-3
198.719215E-3
198.871422E-3
198.888016E-3
199.083710E-3
199.245644E-3
199.324608E-3
199.418449E-3
199.387550E-3
199.380684E-3
199.555206E-3
199.385262E-3
199.548912E-3
199.439621E-3
199.437332E-3
199.593544E-3
199.447632E-3
199.588394E-3
199.547768E-3
199.542046E-3
199.652481E-3
199.496269E-3
199.567795E-3
199.452782E-3
199.495697E-3
199.535179E-3
199.456787E-3
199.531174E-3
199.546051E-3
199.497414E-3
199.639893E-3
199.497414E-3
199.665070E-3
199.701691E-3
199.674225E-3
199.828148E-3
199.694824E-3
199.666214E-3
199.601555E-3
199.472237E-3
199.471092E-3
199.143219E-3
198.924637E-3
198.579025E-3
198.232841E-3
198.157883E-3
197.767067E-3
197.732162E-3
197.553062E-3
197.317314E-3
197.391701E-3
197.214890E-3
197.428322E-3
197.508430E-3
197.593117E-3
197.897530E-3
197.741318E-3
198.061752E-3
198.115540E-3
198.190498E-3
198.308945E-3
198.302650E-3
198.560143E-3
198.631096E-3
198.653412E-3
198.704338E-3
198.588181E-3
198.679733E-3
198.777580E-3
198.631668E-3
198.665428E-3
198.541260E-3
198.712349E-3
198.763847E-3
198.634529E-3
198.789597E-3
198.615074E-3
198.839951E-3
198.882866E-3
198.874855E-3
199.096298E-3
199.084854E-3
199.334335E-3
199.329758E-3
199.227333E-3
199.393272E-3
199.332619E-3
199.439049E-3
199.440193E-3
199.357224E-3
199.541473E-3
199.450493E-3
199.597549E-3
199.554634E-3
199.432182E-3
199.551201E-3
199.623299E-3
199.634171E-3
199.583817E-3
199.522591E-3
199.653625E-3
199.524879E-3
199.651337E-3
199.609566E-3
199.477386E-3
199.709702E-3
199.643898E-3
199.621010E-3
199.570656E-3
199.521446E-3
199.788666E-3
199.671936E-3
199.775505E-3
199.778366E-3
199.658775E-3
199.703979E-3
199.460793E-3
199.441910E-3
199.140930E-3
198.683167E-3
198.533249E-3
198.139572E-3
198.009109E-3
197.916985E-3
197.760773E-3
197.872925E-3
197.689247E-3
197.821426E-3
197.934723E-3
197.910118E-3
198.224831E-3
198.227119E-3
198.397636E-3
198.567009E-3
198.613930E-3
198.798752E-3
198.870277E-3
198.880005E-3
199.053383E-3
198.938942E-3
199.141502E-3
198.970985E-3
198.994446E-3
199.084282E-3
198.958969E-3
199.171257E-3
198.980713E-3
198.978996E-3
199.041367E-3
198.945236E-3
199.098015E-3
199.004745E-3
199.124336E-3
199.277687E-3
199.241066E-3
199.385834E-3
199.357796E-3
199.416161E-3
199.544907E-3
199.444199E-3
199.648476E-3
199.522018E-3
199.555779E-3
199.634171E-3
199.496269E-3
199.528313E-3
199.428749E-3
199.388123E-3
199.435043E-3
199.344063E-3
199.578094E-3
199.484825E-3
199.485970E-3
199.558640E-3
199.463081E-3
199.596405E-3
199.441910E-3
199.395561E-3
199.443626E-3
199.270821E-3
199.440193E-3
199.310875E-3
199.253082E-3
199.390984E-3
199.321175E-3
199.528885E-3
199.338341E-3
199.377251E-3
199.522591E-3
199.242783E-3
199.286842E-3
198.824501E-3
198.595047E-3
198.430252E-3
198.023415E-3
197.873497E-3
197.549629E-3
197.384262E-3
197.503853E-3
197.290421E-3
197.435188E-3
197.329330E-3
197.394562E-3
197.654915E-3
197.584534E-3
197.758484E-3
197.752762E-3
197.921562E-3
198.149300E-3
198.144722E-3
198.324966E-3
198.390770E-3
198.395920E-3
198.588753E-3
198.571014E-3
198.699188E-3
198.666573E-3
198.601341E-3
198.667145E-3
198.492622E-3
198.596191E-3
198.562431E-3
198.497200E-3
198.645401E-3
198.553848E-3
198.728371E-3
198.653984E-3
198.681450E-3
198.852539E-3
198.754692E-3
198.989296E-3
199.000168E-3
198.954964E-3
199.221039E-3
199.110031E-3
199.194717E-3
199.132919E-3
199.112892E-3
199.207878E-3
199.106026E-3
199.187851E-3
199.206161E-3
199.231339E-3
199.338913E-3
199.079132E-3
199.233055E-3
199.221611E-3
199.158096E-3
199.320030E-3
199.150085E-3
199.224472E-3
199.314880E-3
199.234772E-3
199.354362E-3
199.265099E-3
199.397850E-3
199.387550E-3
199.322319E-3
199.455643E-3
199.441338E-3
199.639893E-3
199.659348E-3
199.495697E-3
199.575233E-3
199.400139E-3
199.339485E-3
199.213600E-3
198.854256E-3
198.639107E-3
198.178482E-3
198.078918E-3
197.815704E-3
197.576523E-3
197.570801E-3
197.371101E-3
197.347641E-3
197.418594E-3
197.427750E-3
197.598839E-3
197.474670E-3
197.695541E-3
197.807693E-3
197.831154E-3
198.117256E-3
198.030853E-3
198.316956E-3
198.401070E-3
198.405647E-3
198.617935E-3
198.549271E-3
198.712921E-3
198.708344E-3
198.588753E-3
198.688889E-3
198.555565E-3
198.608208E-3
198.559570E-3
198.409653E-3
198.586464E-3
198.441696E-3
198.596191E-3
198.546410E-3
198.599052E-3
198.866272E-3
198.765564E-3
198.797607E-3
198.884583E-3
198.826790E-3
199.069405E-3
199.049950E-3
199.182129E-3
199.255371E-3
199.213600E-3
199.316597E-3
199.217033E-3
199.287987E-3
199.376106E-3
199.191284E-3
199.292564E-3
199.191856E-3
199.240494E-3
199.267387E-3
199.157524E-3
199.309158E-3
199.191284E-3
199.327469E-3
199.363518E-3
199.382973E-3
199.445915E-3
199.275970E-3
199.356651E-3
199.409866E-3
199.250221E-3
199.398994E-3
199.380684E-3
199.392128E-3
199.551773E-3
199.455070E-3
199.566078E-3
199.411011E-3
199.362373E-3
199.386978E-3
199.022484E-3
198.981285E-3
198.486900E-3
198.323250E-3
198.011971E-3
197.636032E-3
197.678375E-3
197.437477E-3
197.452927E-3
197.450066E-3
197.404289E-3
197.542763E-3
197.479820E-3
197.692680E-3
197.807693E-3
197.799110E-3
197.985649E-3
197.999382E-3
198.093224E-3
198.363876E-3
198.418808E-3
198.648834E-3
198.625946E-3
198.776436E-3
198.801041E-3
198.715782E-3
198.945236E-3
198.697472E-3
198.675728E-3
198.838234E-3
198.738098E-3
198.912048E-3
198.789597E-3
198.793602E-3
198.901749E-3
198.793602E-3
199.047089E-3
199.159813E-3
199.339485E-3
199.608994E-3
199.429893E-3
199.595261E-3
199.516296E-3
199.558640E-3
199.750900E-3
199.544334E-3
199.638748E-3
199.521446E-3
199.548912E-3
199.522018E-3
199.337769E-3
199.496269E-3
199.362946E-3
199.384689E-3
199.458504E-3
199.401283E-3
199.504852E-3
199.392128E-3
199.391556E-3
199.472237E-3
199.303436E-3
199.438477E-3
199.361801E-3
199.302864E-3
199.526596E-3
199.369812E-3
199.544334E-3
199.452782E-3
199.497986E-3
199.721718E-3
199.597549E-3
199.818420E-3
199.646759E-3
199.717140E-3
199.748611E-3
199.597549E-3
199.565506E-3
199.366379E-3
199.086571E-3
198.914337E-3
198.422241E-3
198.277473E-3
198.019409E-3
197.934151E-3
197.912979E-3
197.680664E-3
197.726440E-3
197.721291E-3
197.767067E-3
197.957039E-3
197.889519E-3
198.081779E-3
198.185921E-3
198.362732E-3
198.585320E-3
198.539543E-3
198.839951E-3
198.874283E-3
198.913765E-3
199.083138E-3
199.037361E-3
199.221039E-3
199.188423E-3
199.155807E-3
199.252510E-3
199.019051E-3
199.174118E-3
199.093437E-3
199.067116E-3
199.179840E-3
199.078560E-3
199.182129E-3
199.176979E-3
199.254227E-3
199.505424E-3
199.433327E-3
199.616432E-3
199.675369E-3
199.740028E-3
199.957466E-3
199.859047E-3
200.015831E-3
199.904823E-3
200.027847E-3
200.045586E-3
199.967766E-3
200.050163E-3
200.048447E-3
199.972343E-3
200.168037E-3
200.059319E-3
200.164032E-3
200.204659E-3
200.083351E-3
200.187492E-3
200.055313E-3
200.167465E-3
200.146294E-3
200.062180E-3
200.216103E-3
200.103378E-3
200.259590E-3
200.258446E-3
200.174332E-3
200.204659E-3
200.011253E-3
200.168610E-3
200.107956E-3
200.089645E-3
200.161743E-3
199.974632E-3
199.993515E-3
199.851036E-3
199.635887E-3
199.534035E-3
199.054527E-3
198.779869E-3
198.539543E-3
198.184204E-3
198.229980E-3
198.018265E-3
198.044586E-3
197.907829E-3
197.815704E-3
198.028564E-3
197.992516E-3
198.225975E-3
198.332977E-3
198.318100E-3
198.555565E-3
198.582458E-3
198.778152E-3
198.937225E-3
198.942947E-3
199.101448E-3
199.039650E-3
199.221039E-3
199.230766E-3
199.076843E-3
199.277687E-3
199.098015E-3
199.202156E-3
199.154663E-3
199.070549E-3
199.172974E-3
199.073410E-3
199.182129E-3
199.216461E-3
199.146652E-3
199.394989E-3
199.400711E-3
199.570656E-3
199.575806E-3
199.521446E-3
199.705696E-3
199.661636E-3
199.728584E-3
199.750900E-3
199.619293E-3
199.764061E-3
199.750900E-3
199.777222E-3
199.842453E-3
199.748039E-3
199.946022E-3
199.842453E-3
199.899673E-3
199.892235E-3
199.799538E-3
199.857903E-3
199.777794E-3
199.773216E-3
199.769211E-3
199.702835E-3
199.848175E-3
199.786949E-3
199.821854E-3
199.935722E-3
199.796677E-3
199.959183E-3
199.808121E-3
199.887085E-3
199.885941E-3
199.869347E-3
200.026703E-3
199.844742E-3
199.870491E-3
199.782372E-3
199.593544E-3
199.457359E-3
199.067116E-3
