Notes :


2023-10-30 ¿ÀÈÄ 11:26:52
Volts
Ch : LED 2,
84.754372E-3
85.469055E-3
84.934616E-3
85.744858E-3
85.443878E-3
85.177231E-3
85.811234E-3
84.740067E-3
84.927177E-3
83.638573E-3
82.280159E-3
81.988907E-3
80.339813E-3
80.371857E-3
79.232025E-3
78.697586E-3
79.175377E-3
78.358269E-3
79.276085E-3
78.993988E-3
78.998566E-3
80.010796E-3
79.486084E-3
80.529785E-3
80.327225E-3
80.583572E-3
81.707382E-3
81.435013E-3
82.671547E-3
82.857513E-3
82.963943E-3
83.967590E-3
83.550453E-3
84.194756E-3
83.966446E-3
83.716393E-3
84.345245E-3
83.540154E-3
84.140396E-3
83.715820E-3
83.218575E-3
84.004211E-3
83.348465E-3
84.015656E-3
83.802223E-3
83.692360E-3
84.515762E-3
83.977890E-3
84.931755E-3
84.873390E-3
84.784126E-3
85.674477E-3
85.070801E-3
85.966301E-3
85.713387E-3
85.668182E-3
86.422348E-3
85.708237E-3
86.535645E-3
86.377716E-3
86.040688E-3
86.900139E-3
86.290169E-3
86.987114E-3
86.649513E-3
86.783981E-3
87.551880E-3
87.042046E-3
88.076019E-3
87.844276E-3
87.573624E-3
88.573265E-3
87.957573E-3
88.851929E-3
88.535500E-3
88.411331E-3
89.035034E-3
87.982750E-3
87.953568E-3
86.858940E-3
85.677910E-3
85.531998E-3
84.227943E-3
84.515190E-3
83.801651E-3
83.571053E-3
84.276009E-3
83.639145E-3
84.590149E-3
84.407616E-3
84.405899E-3
85.324860E-3
84.931183E-3
85.777473E-3
85.790634E-3
85.526276E-3
86.511612E-3
86.232948E-3
87.035751E-3
86.917305E-3
86.878967E-3
87.565041E-3
86.806870E-3
87.657738E-3
87.225151E-3
86.829758E-3
87.498665E-3
86.791420E-3
87.502098E-3
87.022591E-3
86.843491E-3
87.627411E-3
87.146187E-3
87.970161E-3
87.911224E-3
87.708092E-3
88.632774E-3
88.188171E-3
88.954926E-3
88.706017E-3
88.577271E-3
89.331436E-3
88.847923E-3
89.390373E-3
89.198112E-3
88.573837E-3
89.370346E-3
88.661957E-3
89.165497E-3
88.801575E-3
88.612175E-3
89.261055E-3
88.592148E-3
89.226151E-3
88.986969E-3
88.726616E-3
89.457893E-3
88.790131E-3
89.506531E-3
89.272499E-3
89.069939E-3
89.807510E-3
89.288521E-3
89.802933E-3
89.501953E-3
88.584137E-3
88.735771E-3
87.055779E-3
86.693573E-3
85.791779E-3
84.629631E-3
84.729195E-3
83.692360E-3
83.830261E-3
83.599663E-3
83.155632E-3
84.137535E-3
83.648872E-3
84.542656E-3
84.700012E-3
84.524918E-3
85.507965E-3
85.092545E-3
85.945702E-3
85.909653E-3
85.983467E-3
86.899567E-3
86.512756E-3
87.144470E-3
86.840630E-3
86.492157E-3
87.171364E-3
86.359406E-3
86.822891E-3
86.685562E-3
86.254692E-3
87.019730E-3
86.520195E-3
87.007141E-3
86.882973E-3
86.759377E-3
87.605667E-3
87.098122E-3
87.933540E-3
88.057137E-3
87.710381E-3
88.613319E-3
88.144112E-3
88.934898E-3
88.972092E-3
88.867950E-3
89.560318E-3
88.893127E-3
89.425850E-3
89.253044E-3
88.710022E-3
89.428711E-3
88.662529E-3
89.278221E-3
89.409828E-3
89.017868E-3
89.800644E-3
89.318848E-3
89.906502E-3
89.998055E-3
89.694786E-3
90.571404E-3
89.735985E-3
90.470695E-3
90.470695E-3
89.979744E-3
90.697289E-3
89.563751E-3
89.388657E-3
88.465118E-3
87.254333E-3
87.054634E-3
85.464478E-3
85.261917E-3
84.546089E-3
83.753014E-3
84.083748E-3
83.267212E-3
83.763313E-3
83.889771E-3
83.665466E-3
84.671402E-3
84.259415E-3
84.904289E-3
85.442734E-3
85.092545E-3
86.126518E-3
85.922241E-3
86.880112E-3
87.026596E-3
86.975098E-3
88.003349E-3
87.223434E-3
88.021088E-3
87.872314E-3
87.193680E-3
87.944984E-3
86.945343E-3
87.308693E-3
87.016869E-3
86.521339E-3
87.255478E-3
86.434937E-3
86.963654E-3
87.063789E-3
87.097549E-3
88.106918E-3
87.415695E-3
88.097191E-3
88.598442E-3
88.357544E-3
89.250183E-3
88.544655E-3
89.042473E-3
89.061928E-3
88.716316E-3
89.570618E-3
88.724899E-3
89.192963E-3
89.261055E-3
88.860512E-3
89.575768E-3
88.802147E-3
89.316559E-3
89.214134E-3
88.833046E-3
89.675903E-3
88.743782E-3
89.269638E-3
89.461327E-3
89.061356E-3
89.904213E-3
89.183235E-3
89.622116E-3
89.777184E-3
89.140892E-3
89.507675E-3
88.012505E-3
87.657738E-3
86.975670E-3
85.647011E-3
85.604095E-3
84.297180E-3
84.279442E-3
84.188461E-3
83.650017E-3
84.526062E-3
83.581352E-3
84.385300E-3
84.512329E-3
84.440231E-3
85.556030E-3
84.955788E-3
85.442162E-3
85.721970E-3
85.465050E-3
86.804581E-3
86.319923E-3
87.124443E-3
87.622261E-3
87.377930E-3
88.157272E-3
87.305832E-3
87.661171E-3
87.801361E-3
87.097549E-3
87.811661E-3
86.933899E-3
87.123299E-3
87.103844E-3
86.635208E-3
87.436295E-3
86.684990E-3
87.250900E-3
87.522125E-3
87.137032E-3
88.059998E-3
87.532997E-3
88.213921E-3
88.253975E-3
88.003349E-3
89.054489E-3
88.426781E-3
88.858223E-3
89.231300E-3
88.725471E-3
89.620399E-3
88.931465E-3
89.165497E-3
89.344597E-3
88.716316E-3
89.499664E-3
88.636780E-3
89.113998E-3
89.325714E-3
88.817596E-3
89.872169E-3
89.028740E-3
89.436722E-3
89.897919E-3
89.551163E-3
90.420341E-3
89.823532E-3
90.192604E-3
90.424919E-3
89.615250E-3
89.764595E-3
88.296318E-3
87.764168E-3
87.084389E-3
85.569763E-3
85.596085E-3
84.229088E-3
83.991623E-3
83.850288E-3
83.138466E-3
83.841133E-3
83.191109E-3
83.571053E-3
84.267998E-3
84.051704E-3
85.218430E-3
84.745789E-3
85.242462E-3
85.741997E-3
85.551453E-3
86.722755E-3
86.196899E-3
86.856079E-3
87.270355E-3
86.805153E-3
87.547874E-3
86.675262E-3
86.914444E-3
87.043762E-3
86.279869E-3
86.857224E-3
85.942841E-3
86.430359E-3
86.627197E-3
86.070442E-3
86.978531E-3
86.289597E-3
86.668968E-3
87.157631E-3
86.727333E-3
87.690926E-3
87.253761E-3
87.958145E-3
88.513756E-3
87.955284E-3
88.742638E-3
88.108635E-3
88.710022E-3
89.144325E-3
88.528633E-3
89.168358E-3
88.266563E-3
88.464546E-3
88.918877E-3
88.475990E-3
89.386940E-3
88.874245E-3
89.392090E-3
89.734268E-3
89.162064E-3
89.968872E-3
89.444733E-3
89.758873E-3
90.306473E-3
89.760017E-3
90.536499E-3
89.913368E-3
90.317345E-3
90.806580E-3
89.745712E-3
89.921379E-3
88.477135E-3
88.034821E-3
87.442589E-3
85.858727E-3
86.063576E-3
84.794998E-3
84.743500E-3
84.799576E-3
84.183884E-3
84.967232E-3
84.501457E-3
85.118294E-3
85.734558E-3
85.485077E-3
86.480141E-3
85.908508E-3
86.312485E-3
87.014580E-3
86.803436E-3
87.843704E-3
87.468910E-3
88.116074E-3
88.693428E-3
88.123512E-3
88.957787E-3
88.249969E-3
88.621902E-3
89.036751E-3
88.332939E-3
88.851929E-3
88.334084E-3
88.544655E-3
88.908005E-3
88.228798E-3
89.162636E-3
88.704872E-3
89.058495E-3
89.523697E-3
89.075089E-3
89.861870E-3
89.653015E-3
90.054703E-3
90.688705E-3
90.259552E-3
91.127014E-3
90.654945E-3
90.997124E-3
91.572762E-3
90.900421E-3
91.606522E-3
91.081238E-3
91.305542E-3
91.750717E-3
91.013718E-3
91.735268E-3
91.058350E-3
91.354179E-3
91.731834E-3
91.105843E-3
91.786194E-3
91.326141E-3
91.655159E-3
92.126083E-3
91.513824E-3
92.168999E-3
91.757011E-3
91.954422E-3
91.739845E-3
90.400887E-3
90.280724E-3
89.053917E-3
88.437653E-3
88.179588E-3
86.836624E-3
86.920166E-3
86.162567E-3
86.323929E-3
86.631775E-3
85.994339E-3
86.900711E-3
86.480713E-3
87.170219E-3
87.847710E-3
87.405396E-3
88.138390E-3
87.803078E-3
88.181877E-3
88.857651E-3
88.332939E-3
89.154053E-3
88.740921E-3
88.952637E-3
89.204979E-3
88.451958E-3
89.064789E-3
88.578987E-3
88.560104E-3
88.980103E-3
88.091469E-3
88.708878E-3
88.411903E-3
88.764954E-3
89.156342E-3
88.632202E-3
89.569473E-3
89.143181E-3
89.561462E-3
90.174866E-3
89.529991E-3
90.471840E-3
90.147400E-3
90.189171E-3
90.639496E-3
90.102196E-3
90.857506E-3
90.308762E-3
90.368271E-3
90.636063E-3
89.949989E-3
90.638924E-3
90.173149E-3
90.215492E-3
90.743065E-3
89.951134E-3
90.830612E-3
90.380287E-3
90.562248E-3
91.268349E-3
90.483284E-3
91.283226E-3
90.883827E-3
91.073227E-3
91.597366E-3
90.769958E-3
91.414833E-3
90.684700E-3
90.110207E-3
89.823532E-3
88.400459E-3
88.322639E-3
87.153625E-3
86.513901E-3
86.232948E-3
85.182381E-3
85.816956E-3
85.600662E-3
85.542870E-3
86.219788E-3
85.802650E-3
86.973953E-3
86.890984E-3
87.081528E-3
87.554169E-3
87.126732E-3
88.304329E-3
88.221931E-3
88.613319E-3
89.249039E-3
88.436508E-3
89.472771E-3
88.998413E-3
88.920021E-3
89.189529E-3
88.247681E-3
88.976097E-3
88.535500E-3
88.562965E-3
88.865662E-3
88.046265E-3
89.113426E-3
88.706017E-3
88.706589E-3
89.322281E-3
88.645935E-3
89.706802E-3
89.484787E-3
89.525986E-3
90.109062E-3
89.582634E-3
90.481567E-3
90.074158E-3
90.110779E-3
90.568542E-3
89.933395E-3
91.066933E-3
90.725899E-3
90.499306E-3
90.934753E-3
90.098763E-3
90.700150E-3
90.459824E-3
90.308762E-3
90.823174E-3
90.073013E-3
91.009712E-3
90.668106E-3
90.732765E-3
91.389656E-3
90.686989E-3
91.587067E-3
91.247177E-3
91.110420E-3
91.289520E-3
89.974022E-3
90.087318E-3
88.795280E-3
87.895775E-3
87.457466E-3
85.897636E-3
86.106491E-3
85.225296E-3
84.865379E-3
85.450745E-3
84.555244E-3
85.431290E-3
85.277939E-3
85.389519E-3
86.099052E-3
85.511971E-3
86.536789E-3
86.424065E-3
86.389160E-3
87.263489E-3
86.858940E-3
88.073730E-3
87.977028E-3
88.110352E-3
88.968086E-3
88.163567E-3
88.873100E-3
88.478851E-3
88.195038E-3
88.718605E-3
87.737274E-3
88.339233E-3
87.722397E-3
87.467194E-3
88.110352E-3
87.347603E-3
88.155556E-3
88.051987E-3
87.947845E-3
88.820457E-3
88.207626E-3
89.267921E-3
89.080238E-3
89.101982E-3
89.873886E-3
89.255905E-3
90.080452E-3
89.687347E-3
89.293098E-3
89.893913E-3
89.065361E-3
89.747429E-3
89.273643E-3
89.085960E-3
89.737701E-3
89.043045E-3
89.813232E-3
89.510536E-3
89.416122E-3
90.295601E-3
89.650154E-3
90.567970E-3
90.353394E-3
90.136528E-3
90.943336E-3
90.336227E-3
90.947914E-3
90.261841E-3
89.437866E-3
89.412117E-3
87.813377E-3
87.688637E-3
86.528778E-3
85.488510E-3
85.608101E-3
84.528351E-3
84.877968E-3
84.362411E-3
84.196472E-3
84.936905E-3
84.482574E-3
85.361481E-3
85.364342E-3
85.255623E-3
86.046982E-3
85.569191E-3
86.583138E-3
86.679840E-3
86.679268E-3
87.709236E-3
87.437439E-3
88.403320E-3
88.112068E-3
87.781334E-3
88.393021E-3
87.693787E-3
88.227654E-3
87.760162E-3
87.300110E-3
87.875175E-3
87.170219E-3
87.767601E-3
87.471771E-3
87.232590E-3
88.002777E-3
87.441444E-3
88.267708E-3
88.138962E-3
87.841988E-3
88.829613E-3
88.358116E-3
89.021873E-3
88.972092E-3
88.922310E-3
89.644432E-3
89.095116E-3
89.766884E-3
89.426994E-3
88.821602E-3
89.514542E-3
88.817024E-3
89.294243E-3
89.124870E-3
88.874817E-3
89.636993E-3
89.124870E-3
89.777184E-3
89.706230E-3
89.511681E-3
90.436363E-3
89.669609E-3
90.331650E-3
90.311050E-3
89.991188E-3
90.720177E-3
89.911079E-3
89.857864E-3
89.227867E-3
88.058853E-3
87.826538E-3
86.331367E-3
86.250114E-3
85.480499E-3
84.524345E-3
84.984398E-3
84.182739E-3
84.758377E-3
84.791565E-3
84.662247E-3
85.648727E-3
85.247612E-3
86.219215E-3
86.388588E-3
86.102486E-3
87.070084E-3
86.731339E-3
87.643433E-3
87.776756E-3
87.806511E-3
88.652802E-3
87.991333E-3
88.467979E-3
88.374138E-3
87.815666E-3
88.447952E-3
87.622833E-3
88.007355E-3
87.847137E-3
87.631416E-3
88.410187E-3
87.824249E-3
88.446808E-3
88.637352E-3
88.319206E-3
89.132881E-3
88.466835E-3
89.189529E-3
89.531136E-3
89.148903E-3
90.070724E-3
89.584351E-3
90.080452E-3
90.244675E-3
89.751434E-3
90.601158E-3
89.808655E-3
90.397453E-3
90.306473E-3
89.970589E-3
90.703011E-3
89.935112E-3
90.510750E-3
90.525055E-3
90.119934E-3
91.125870E-3
90.456390E-3
91.106987E-3
91.287231E-3
90.834045E-3
91.726112E-3
90.948486E-3
91.464043E-3
91.299820E-3
90.385437E-3
90.554810E-3
88.929176E-3
88.478279E-3
87.756157E-3
86.741638E-3
86.967659E-3
85.713959E-3
85.957718E-3
85.863304E-3
85.565758E-3
86.509323E-3
85.753441E-3
86.511612E-3
86.742210E-3
86.429787E-3
87.466621E-3
86.881256E-3
87.537003E-3
87.841415E-3
87.716675E-3
89.004135E-3
88.323784E-3
88.870239E-3
89.075089E-3
88.547516E-3
89.253044E-3
88.276863E-3
88.673973E-3
88.628769E-3
88.017082E-3
88.880539E-3
88.139534E-3
88.455963E-3
88.609314E-3
88.296318E-3
89.256477E-3
88.616180E-3
89.247322E-3
89.416695E-3
89.268494E-3
90.251541E-3
89.686775E-3
90.197182E-3
90.450096E-3
90.004349E-3
90.955353E-3
90.107346E-3
90.355682E-3
90.558815E-3
89.953995E-3
90.644073E-3
89.847565E-3
90.139961E-3
90.353394E-3
89.954567E-3
90.704155E-3
90.069008E-3
90.434074E-3
90.880966E-3
90.355682E-3
91.294098E-3
90.709877E-3
91.038322E-3
91.181374E-3
90.684128E-3
91.144180E-3
89.817238E-3
89.678764E-3
88.957787E-3
87.518120E-3
87.439156E-3
86.073303E-3
85.842133E-3
85.663033E-3
84.943771E-3
85.775185E-3
85.079956E-3
85.647583E-3
86.143684E-3
85.824394E-3
86.904716E-3
86.325073E-3
86.682701E-3
87.140465E-3
86.750793E-3
87.775612E-3
87.392235E-3
88.002205E-3
88.604736E-3
88.154984E-3
88.944054E-3
88.292885E-3
88.640213E-3
88.628769E-3
88.001633E-3
88.665390E-3
87.805367E-3
88.310623E-3
88.430214E-3
87.797928E-3
88.754654E-3
87.995911E-3
88.506889E-3
88.868523E-3
88.407898E-3
89.237022E-3
88.643646E-3
89.223289E-3
89.607239E-3
89.183807E-3
90.136528E-3
89.558601E-3
89.828682E-3
90.392303E-3
89.783478E-3
90.481567E-3
89.773178E-3
89.990616E-3
90.422058E-3
89.749718E-3
90.444946E-3
89.659309E-3
90.166855E-3
90.430069E-3
89.953995E-3
90.811729E-3
90.165710E-3
90.830612E-3
91.154480E-3
90.527344E-3
91.371346E-3
90.616035E-3
90.467262E-3
90.161705E-3
88.760376E-3
88.509178E-3
86.993408E-3
86.453247E-3
86.078453E-3
84.808159E-3
85.103416E-3
84.150124E-3
84.456253E-3
84.885979E-3
84.366417E-3
85.334015E-3
85.054207E-3
85.346031E-3
86.167145E-3
85.724258E-3
86.749077E-3
86.309052E-3
87.007713E-3
87.587357E-3
87.459183E-3
88.528633E-3
88.082314E-3
88.418770E-3
88.794708E-3
88.046265E-3
88.613892E-3
88.017082E-3
88.174438E-3
88.287163E-3
87.515259E-3
88.154984E-3
87.658310E-3
87.876892E-3
88.445663E-3
87.779617E-3
88.564682E-3
88.080597E-3
88.464546E-3
89.050484E-3
88.482285E-3
89.275932E-3
88.972664E-3
89.290237E-3
89.883041E-3
89.231300E-3
89.870453E-3
89.262199E-3
89.690208E-3
89.799500E-3
89.140892E-3
89.765167E-3
89.291382E-3
89.447021E-3
89.838982E-3
89.275932E-3
90.033531E-3
89.662170E-3
90.150833E-3
90.706444E-3
90.149689E-3
91.040039E-3
90.691566E-3
