Notes :


2023-11-05 ¿ÀÈÄ 2:45:13
Volts
Ch : LED 2,
303.107643E-3
302.940559E-3
303.017807E-3
303.021240E-3
302.990913E-3
303.208923E-3
303.226662E-3
303.389740E-3
303.569984E-3
303.466415E-3
303.555107E-3
303.428078E-3
303.462982E-3
303.615761E-3
303.398323E-3
303.537941E-3
303.531647E-3
303.580284E-3
303.802872E-3
303.693581E-3
303.921318E-3
303.883553E-3
303.928185E-3
304.175949E-3
304.071808E-3
304.221153E-3
304.244614E-3
304.336739E-3
304.509544E-3
304.351616E-3
304.593086E-3
304.559898E-3
304.606819E-3
304.841423E-3
304.549026E-3
304.733849E-3
304.701805E-3
304.669189E-3
304.863739E-3
304.578781E-3
304.698372E-3
304.710388E-3
304.715538E-3
304.820824E-3
304.587364E-3
304.717827E-3
304.729843E-3
304.767609E-3
304.828835E-3
304.574776E-3
304.801369E-3
304.853439E-3
304.767609E-3
304.947281E-3
304.859734E-3
305.090332E-3
305.038261E-3
304.906654E-3
304.821396E-3
304.179382E-3
303.959084E-3
303.598595E-3
303.205490E-3
303.008080E-3
302.587509E-3
302.482224E-3
302.387810E-3
302.187538E-3
302.179527E-3
302.186394E-3
302.422142E-3
302.570343E-3
302.446175E-3
302.635002E-3
302.478218E-3
302.720833E-3
302.795792E-3
302.832413E-3
302.985191E-3
302.960587E-3
303.130531E-3
303.238678E-3
303.179169E-3
303.328514E-3
303.127670E-3
303.297615E-3
303.299332E-3
303.144264E-3
303.462410E-3
303.316498E-3
303.659821E-3
303.656387E-3
303.643799E-3
303.945351E-3
303.962517E-3
304.142761E-3
304.121017E-3
304.071808E-3
304.319000E-3
304.259491E-3
304.526138E-3
304.599953E-3
304.557610E-3
304.819679E-3
304.861450E-3
305.003357E-3
305.021095E-3
304.916382E-3
305.128098E-3
305.056572E-3
305.138397E-3
305.199623E-3
305.006218E-3
305.279732E-3
305.132103E-3
305.198479E-3
305.310059E-3
305.263138E-3
305.366707E-3
305.263138E-3
305.407333E-3
305.505753E-3
305.311203E-3
305.563545E-3
305.516052E-3
305.590439E-3
305.663109E-3
305.553818E-3
305.738068E-3
305.328941E-3
304.994774E-3
304.650307E-3
304.281235E-3
304.145622E-3
303.798294E-3
303.632927E-3
303.542519E-3
303.276443E-3
303.404617E-3
303.208351E-3
303.276443E-3
303.507042E-3
303.344536E-3
303.580284E-3
303.513908E-3
303.627777E-3
303.864098E-3
303.843498E-3
304.080391E-3
304.090691E-3
304.107857E-3
304.255486E-3
304.259491E-3
304.392815E-3
304.310989E-3
304.327583E-3
304.479790E-3
304.393387E-3
304.575348E-3
304.575920E-3
304.678917E-3
304.724121E-3
304.599380E-3
304.793930E-3
304.789925E-3
304.776192E-3
304.846001E-3
304.717255E-3
304.988480E-3
304.986191E-3
305.058861E-3
305.240250E-3
305.219078E-3
305.410194E-3
305.434227E-3
305.423355E-3
305.608749E-3
305.492020E-3
305.590439E-3
305.550957E-3
305.660820E-3
305.805588E-3
305.619621E-3
305.742073E-3
305.779839E-3
305.784988E-3
305.926323E-3
305.754089E-3
305.791855E-3
305.861092E-3
305.911446E-3
305.874825E-3
305.722046E-3
305.944633E-3
305.954933E-3
306.083107E-3
306.222725E-3
305.988121E-3
305.769539E-3
305.431938E-3
304.874039E-3
304.569626E-3
304.177666E-3
303.988266E-3
303.814888E-3
303.487587E-3
303.628349E-3
303.405190E-3
303.546524E-3
303.618050E-3
303.676987E-3
303.825188E-3
303.614616E-3
303.802299E-3
303.860092E-3
303.840637E-3
304.070091E-3
304.031181E-3
304.264641E-3
304.483223E-3
304.347038E-3
304.416275E-3
304.331589E-3
304.438591E-3
304.508400E-3
304.556465E-3
304.749870E-3
304.553032E-3
304.716110E-3
304.831123E-3
304.813957E-3
304.947281E-3
304.757309E-3
305.028534E-3
305.168152E-3
305.287743E-3
305.368423E-3
305.210495E-3
305.296898E-3
305.466270E-3
305.338097E-3
305.515480E-3
305.446815E-3
305.569839E-3
305.709457E-3
305.574989E-3
305.865669E-3
305.746651E-3
305.843353E-3
305.873680E-3
305.671692E-3
305.901718E-3
305.842781E-3
305.964661E-3
305.939484E-3
305.821609E-3
306.124878E-3
305.932617E-3
305.989265E-3
306.001854E-3
305.926895E-3
306.059647E-3
306.038475E-3
306.150627E-3
306.270218E-3
306.151199E-3
306.167221E-3
305.659676E-3
305.259132E-3
304.864311E-3
304.400253E-3
304.205704E-3
303.745079E-3
303.504753E-3
303.321075E-3
302.966881E-3
303.131676E-3
302.922821E-3
302.946854E-3
303.004646E-3
302.872467E-3
303.027534E-3
302.839851E-3
302.954292E-3
303.065872E-3
302.903366E-3
303.256989E-3
303.222656E-3
303.390312E-3
303.561974E-3
303.468704E-3
303.599739E-3
303.409767E-3
303.394318E-3
303.525925E-3
303.430367E-3
303.682137E-3
303.670692E-3
303.746223E-3
303.930473E-3
303.800011E-3
304.126740E-3
304.030609E-3
304.049492E-3
304.209709E-3
304.080391E-3
304.426003E-3
304.420853E-3
304.482079E-3
304.615974E-3
304.543304E-3
304.705238E-3
304.664612E-3
304.769897E-3
304.826546E-3
304.745865E-3
304.962158E-3
304.819679E-3
304.767036E-3
304.915237E-3
304.865456E-3
305.014801E-3
304.857445E-3
304.804802E-3
305.029106E-3
304.829979E-3
304.962158E-3
304.868889E-3
304.886055E-3
305.081749E-3
305.053139E-3
305.208778E-3
305.248833E-3
305.188751E-3
305.320930E-3
305.047417E-3
304.848862E-3
304.402542E-3
304.039764E-3
303.777122E-3
303.334236E-3
303.191757E-3
302.956009E-3
302.606392E-3
302.667046E-3
302.321434E-3
302.462769E-3
302.529716E-3
302.426147E-3
302.684784E-3
302.577782E-3
302.641869E-3
302.636719E-3
302.716255E-3
302.995491E-3
302.820969E-3
303.026390E-3
303.005219E-3
303.084183E-3
303.330231E-3
303.090477E-3
303.275299E-3
303.318214E-3
303.317070E-3
303.596306E-3
303.470421E-3
303.511047E-3
303.469276E-3
303.521347E-3
303.692436E-3
303.526497E-3
303.693581E-3
303.792572E-3
303.835487E-3
304.223442E-3
303.973961E-3
304.199409E-3
304.211426E-3
304.172516E-3
304.360199E-3
304.178810E-3
304.296112E-3
304.382515E-3
304.325867E-3
304.443169E-3
304.405403E-3
304.567909E-3
304.541016E-3
304.459190E-3
304.454041E-3
304.265213E-3
304.444313E-3
304.557037E-3
304.516983E-3
304.717255E-3
304.462051E-3
304.648590E-3
304.779053E-3
304.764175E-3
304.942703E-3
304.880905E-3
305.001068E-3
305.106354E-3
305.039978E-3
305.105782E-3
304.779053E-3
304.627419E-3
304.321861E-3
303.809738E-3
303.570557E-3
303.096771E-3
303.018379E-3
302.902794E-3
302.686501E-3
302.824402E-3
302.523994E-3
302.701950E-3
302.883339E-3
302.796936E-3
303.077316E-3
303.094482E-3
303.146553E-3
303.267860E-3
303.264427E-3
303.509903E-3
303.449821E-3
303.642654E-3
303.826332E-3
303.745079E-3
303.973961E-3
303.799438E-3
303.863525E-3
303.940201E-3
303.760529E-3
304.079247E-3
304.031754E-3
304.223442E-3
304.446602E-3
304.356766E-3
304.454613E-3
304.460907E-3
304.650879E-3
304.766464E-3
304.621124E-3
304.806519E-3
304.792213E-3
304.997063E-3
305.203056E-3
305.151558E-3
305.419350E-3
305.368423E-3
305.664825E-3
305.679131E-3
305.492020E-3
305.757523E-3
305.595589E-3
305.654526E-3
305.671120E-3
305.477715E-3
305.677986E-3
305.668259E-3
305.738640E-3
305.791283E-3
305.693436E-3
305.934906E-3
305.838203E-3
305.944633E-3
305.986404E-3
305.862808E-3
306.104851E-3
306.072807E-3
306.089401E-3
306.264496E-3
305.854225E-3
305.703163E-3
305.253410E-3
304.878616E-3
304.659462E-3
304.230881E-3
304.331589E-3
304.034615E-3
303.875542E-3
303.850365E-3
303.580856E-3
303.868675E-3
303.844643E-3
303.951073E-3
304.100418E-3
304.079247E-3
304.333878E-3
304.337883E-3
304.463768E-3
304.629135E-3
304.599953E-3
304.880333E-3
304.820824E-3
304.869461E-3
304.985046E-3
304.833412E-3
305.082893E-3
305.017662E-3
305.246544E-3
305.130959E-3
305.060577E-3
305.273437E-3
305.060577E-3
305.434227E-3
305.346680E-3
305.355835E-3
305.756950E-3
305.597878E-3
305.913734E-3
305.795288E-3
305.821037E-3
305.933189E-3
305.809021E-3
306.039619E-3
305.968666E-3
306.134033E-3
306.368065E-3
306.222153E-3
306.482506E-3
306.366920E-3
306.255913E-3
306.483650E-3
306.280518E-3
306.463051E-3
306.444740E-3
306.479073E-3
306.726265E-3
306.591225E-3
306.802368E-3
306.643867E-3
306.604385E-3
306.934547E-3
306.806946E-3
307.030678E-3
306.972313E-3
306.978035E-3
307.089043E-3
306.755447E-3
306.644440E-3
306.162071E-3
305.810165E-3
305.529213E-3
304.834557E-3
304.751015E-3
304.472351E-3
304.159355E-3
304.227448E-3
303.964233E-3
304.201698E-3
304.206276E-3
304.128456E-3
304.322433E-3
304.186821E-3
304.430580E-3
304.269218E-3
304.095840E-3
304.333878E-3
304.164505E-3
304.517555E-3
304.638290E-3
304.536438E-3
304.704094E-3
304.496956E-3
304.710960E-3
304.722977E-3
304.562187E-3
304.776192E-3
304.619980E-3
304.769897E-3
304.793358E-3
304.809952E-3
305.026245E-3
304.904366E-3
305.252266E-3
305.233955E-3
305.101204E-3
305.440521E-3
305.319786E-3
305.494881E-3
305.489731E-3
305.449677E-3
305.756950E-3
305.678558E-3
305.867386E-3
305.977821E-3
305.843925E-3
306.082535E-3
305.948067E-3
306.109428E-3
306.083107E-3
305.952644E-3
306.169510E-3
305.961800E-3
306.126022E-3
306.164932E-3
305.982399E-3
306.237030E-3
306.006432E-3
306.195259E-3
306.247330E-3
306.088829E-3
306.419563E-3
306.309700E-3
306.397247E-3
306.362915E-3
306.028748E-3
306.031036E-3
305.545807E-3
305.138397E-3
304.841995E-3
304.348183E-3
304.373360E-3
303.906441E-3
303.893280E-3
303.627205E-3
303.332520E-3
303.571129E-3
303.305054E-3
303.493309E-3
303.624916E-3
303.521919E-3
303.873253E-3
303.661537E-3
303.774261E-3
303.906441E-3
303.877831E-3
304.267502E-3
304.137611E-3
304.348183E-3
304.498672E-3
304.341316E-3
304.646873E-3
304.360199E-3
304.469490E-3
304.670334E-3
304.549026E-3
304.842567E-3
304.551315E-3
304.713821E-3
304.936981E-3
304.800224E-3
305.231667E-3
305.009079E-3
305.200195E-3
305.317497E-3
305.134964E-3
305.399323E-3
305.342674E-3
305.308914E-3
305.464554E-3
305.338097E-3
305.703735E-3
305.743790E-3
305.727196E-3
305.980110E-3
305.761528E-3
306.118011E-3
305.896568E-3
305.870819E-3
305.875969E-3
305.662537E-3
305.973244E-3
305.843925E-3
305.857658E-3
305.962372E-3
305.792427E-3
306.051636E-3
305.961800E-3
306.014442E-3
306.081963E-3
305.975533E-3
306.257629E-3
306.131172E-3
306.205559E-3
306.344604E-3
305.847359E-3
305.644798E-3
305.028534E-3
304.718971E-3
304.467773E-3
304.015160E-3
304.034042E-3
303.619194E-3
303.471565E-3
303.527641E-3
303.391457E-3
303.598595E-3
303.599167E-3
303.648376E-3
303.840637E-3
303.616905E-3
303.756523E-3
303.713036E-3
303.788567E-3
303.952217E-3
303.778839E-3
304.146194E-3
304.049492E-3
304.182243E-3
304.329872E-3
304.079247E-3
304.372787E-3
304.210281E-3
304.176521E-3
304.279518E-3
304.111862E-3
304.379082E-3
304.312134E-3
304.281807E-3
304.355049E-3
304.246902E-3
304.561615E-3
304.482651E-3
304.461479E-3
304.730415E-3
304.595375E-3
304.909515E-3
304.932404E-3
304.832268E-3
305.157280E-3
305.065727E-3
305.316353E-3
305.243111E-3
305.391884E-3
305.572128E-3
305.410767E-3
305.679703E-3
305.565834E-3
305.590439E-3
305.768394E-3
305.591583E-3
305.846786E-3
305.838203E-3
305.632210E-3
305.867386E-3
305.746078E-3
305.986977E-3
306.025887E-3
306.091118E-3
306.307983E-3
306.124878E-3
306.385231E-3
306.313133E-3
306.021309E-3
305.867386E-3
305.303192E-3
305.203629E-3
304.888344E-3
304.614830E-3
304.587936E-3
304.095840E-3
304.099274E-3
303.863525E-3
303.808022E-3
303.940201E-3
303.797150E-3
304.104996E-3
304.131889E-3
304.024887E-3
304.278946E-3
304.175377E-3
304.566765E-3
304.561615E-3
304.476357E-3
304.766464E-3
304.541588E-3
304.771614E-3
304.787064E-3
304.756737E-3
304.912949E-3
304.759598E-3
304.951859E-3
304.891205E-3
304.792786E-3
305.039978E-3
304.945564E-3
305.173302E-3
305.253983E-3
305.117798E-3
305.467987E-3
305.355835E-3
305.600739E-3
305.576134E-3
305.431938E-3
305.699158E-3
305.684280E-3
305.927467E-3
305.986404E-3
305.830765E-3
306.119156E-3
306.040764E-3
306.063652E-3
305.961800E-3
305.905151E-3
306.152344E-3
306.009865E-3
306.148911E-3
306.110001E-3
306.000710E-3
306.298828E-3
306.009865E-3
306.106567E-3
306.138611E-3
305.996132E-3
306.288528E-3
306.060219E-3
306.251907E-3
306.378937E-3
306.268501E-3
306.476212E-3
306.163788E-3
305.943489E-3
305.756950E-3
305.155563E-3
305.072594E-3
304.658890E-3
304.438591E-3
304.221153E-3
303.914452E-3
304.178238E-3
303.887558E-3
303.988838E-3
304.060364E-3
303.973389E-3
304.399109E-3
304.194260E-3
304.343605E-3
304.392815E-3
304.372787E-3
304.634857E-3
304.511833E-3
304.658318E-3
304.910660E-3
304.786491E-3
305.183601E-3
304.887199E-3
304.962158E-3
305.085754E-3
304.915810E-3
305.209923E-3
305.039978E-3
305.096626E-3
305.226517E-3
305.133820E-3
305.508614E-3
305.375862E-3
305.552101E-3
305.831909E-3
305.672836E-3
305.845070E-3
305.711746E-3
305.831909E-3
305.989838E-3
305.786705E-3
306.261635E-3
306.113434E-3
306.163788E-3
306.376648E-3
306.159210E-3
306.529999E-3
306.225586E-3
306.225014E-3
306.326866E-3
306.068230E-3
306.361198E-3
306.183243E-3
306.309128E-3
306.466484E-3
306.177521E-3
306.387520E-3
306.290817E-3
306.414413E-3
306.483650E-3
306.313705E-3
306.612968E-3
306.447029E-3
306.539726E-3
306.685066E-3
306.401825E-3
306.321144E-3
305.738068E-3
305.345535E-3
305.109787E-3
304.492950E-3
304.405975E-3
304.103279E-3
303.878975E-3
304.006577E-3
303.623772E-3
303.676414E-3
303.600883E-3
303.638077E-3
303.931618E-3
303.687859E-3
303.798294E-3
303.663826E-3
303.734207E-3
303.955650E-3
303.871536E-3
304.059219E-3
304.019165E-3
304.130173E-3
304.346466E-3
304.122162E-3
304.388237E-3
304.273224E-3
304.225731E-3
304.515839E-3
304.310989E-3
304.550743E-3
304.484367E-3
304.448891E-3
304.606819E-3
304.440308E-3
304.812241E-3
304.733849E-3
304.737282E-3
304.978180E-3
304.866600E-3
305.205917E-3
305.158424E-3
305.053711E-3
305.380440E-3
305.219650E-3
305.389595E-3
305.433655E-3
305.327225E-3
305.653381E-3
305.497742E-3
305.747223E-3
305.714035E-3
305.536652E-3
305.761528E-3
305.595589E-3
305.848503E-3
305.838203E-3
305.794716E-3
305.976105E-3
305.707169E-3
305.862808E-3
306.015015E-3
305.815887E-3
306.026459E-3
305.802727E-3
305.974960E-3
306.052780E-3
305.787849E-3
305.864525E-3
305.496597E-3
305.326653E-3
304.787064E-3
304.409981E-3
304.376221E-3
303.841782E-3
303.810883E-3
303.454971E-3
303.258133E-3
303.444099E-3
303.220367E-3
303.358841E-3
303.484726E-3
303.428650E-3
303.613472E-3
303.451538E-3
303.599739E-3
303.483009E-3
303.459549E-3
303.865242E-3
303.699875E-3
303.936768E-3
303.921890E-3
303.916168E-3
304.121590E-3
303.939629E-3
304.106712E-3
304.034615E-3
303.999710E-3
304.324150E-3
304.150772E-3
304.249763E-3
304.195976E-3
304.137611E-3
304.487228E-3
304.290962E-3
304.499817E-3
304.587936E-3
304.434013E-3
304.808235E-3
304.641151E-3
304.819107E-3
304.953003E-3
304.896927E-3
305.272293E-3
305.263710E-3
305.268860E-3
305.457115E-3
305.322075E-3
305.538940E-3
305.335808E-3
305.395889E-3
305.405617E-3
305.299187E-3
305.716324E-3
305.478859E-3
305.551529E-3
305.582428E-3
305.444527E-3
305.892563E-3
305.663109E-3
305.859375E-3
305.949211E-3
305.707169E-3
306.081963E-3
305.827332E-3
305.992699E-3
306.127167E-3
305.787849E-3
305.847359E-3
305.308914E-3
304.941559E-3
304.775620E-3
304.337311E-3
304.312706E-3
