Notes :


2023-11-06 ¿ÀÈÄ 7:09:12
Volts
Ch : LED 2,
259.685898E-3
259.818077E-3
260.175705E-3
260.500145E-3
260.675240E-3
261.023712E-3
261.111259E-3
261.259460E-3
261.117554E-3
260.987091E-3
261.082649E-3
260.976791E-3
261.157608E-3
261.124992E-3
261.107826E-3
261.326981E-3
261.186790E-3
261.266899E-3
261.265182E-3
261.561012E-3
261.998177E-3
261.943245E-3
262.306595E-3
262.602997E-3
262.461662E-3
262.359238E-3
262.035942E-3
262.152672E-3
262.144661E-3
262.067413E-3
262.165260E-3
261.981010E-3
261.887169E-3
261.715508E-3
261.437988E-3
261.451721E-3
260.862350E-3
260.458374E-3
259.841537E-3
259.094810E-3
258.547783E-3
257.645416E-3
257.005692E-3
256.388855E-3
255.811501E-3
255.594063E-3
255.335426E-3
255.293083E-3
255.459595E-3
255.767441E-3
256.244087E-3
256.447792E-3
256.824303E-3
257.065773E-3
257.161331E-3
257.510376E-3
257.518387E-3
257.798767E-3
257.917786E-3
257.897186E-3
258.073997E-3
258.006477E-3
258.091736E-3
258.052254E-3
257.879448E-3
257.811928E-3
257.539558E-3
257.478333E-3
257.291794E-3
257.282639E-3
257.894325E-3
258.154678E-3
258.463669E-3
259.038162E-3
259.403229E-3
259.506798E-3
259.188080E-3
259.239006E-3
259.434700E-3
259.395790E-3
259.736824E-3
259.637833E-3
259.702492E-3
259.712791E-3
259.543991E-3
259.669876E-3
259.390640E-3
259.366608E-3
259.486198E-3
259.509087E-3
259.825516E-3
259.943390E-3
260.191727E-3
260.515594E-3
260.568237E-3
260.739326E-3
260.701561E-3
260.691261E-3
260.861778E-3
260.935593E-3
261.413383E-3
261.459732E-3
261.405945E-3
261.416245E-3
261.310959E-3
261.599350E-3
261.426544E-3
261.480904E-3
261.602211E-3
261.581039E-3
261.674309E-3
261.379051E-3
261.117554E-3
260.870361E-3
260.487556E-3
260.155106E-3
259.520531E-3
259.204674E-3
258.876228E-3
257.714653E-3
256.808281E-3
256.185150E-3
256.145096E-3
256.336784E-3
256.182289E-3
256.468964E-3
256.579971E-3
257.056618E-3
257.677460E-3
257.810211E-3
258.255959E-3
258.452225E-3
258.499146E-3
258.805275E-3
258.674812E-3
258.772659E-3
258.679962E-3
258.706284E-3
258.840752E-3
258.762932E-3
258.823013E-3
258.570099E-3
258.370972E-3
258.318901E-3
258.072281E-3
258.048820E-3
257.992172E-3
258.099747E-3
258.346939E-3
258.314323E-3
258.597565E-3
258.857918E-3
259.228706E-3
259.716797E-3
259.965706E-3
260.418320E-3
260.586548E-3
260.614014E-3
260.714722E-3
260.472107E-3
260.606575E-3
260.476112E-3
260.418892E-3
260.385704E-3
260.158539E-3
260.230064E-3
260.190010E-3
260.183716E-3
260.357094E-3
260.180283E-3
260.325050E-3
260.293579E-3
260.451508E-3
260.624313E-3
260.579681E-3
260.782814E-3
260.770226E-3
260.870934E-3
261.106110E-3
261.036301E-3
261.241722E-3
261.190796E-3
261.124992E-3
261.337852E-3
261.306953E-3
261.684608E-3
261.836243E-3
261.327553E-3
260.904121E-3
260.195160E-3
259.741974E-3
259.083366E-3
258.329773E-3
257.564163E-3
256.636047E-3
256.238365E-3
255.887032E-3
255.713654E-3
255.933380E-3
256.017494E-3
256.380272E-3
256.852913E-3
257.179642E-3
257.715797E-3
257.869720E-3
258.192444E-3
258.302879E-3
258.222198E-3
258.374405E-3
258.301163E-3
258.574104E-3
258.702278E-3
258.619881E-3
258.832741E-3
258.668518E-3
258.753204E-3
258.580971E-3
258.300591E-3
258.225060E-3
257.885742E-3
257.788467E-3
257.590485E-3
257.473183E-3
257.774734E-3
257.910919E-3
258.322334E-3
258.716583E-3
258.901978E-3
259.278488E-3
259.386063E-3
259.550285E-3
259.678459E-3
259.748268E-3
259.937096E-3
259.840393E-3
259.924507E-3
259.927940E-3
259.721375E-3
259.828949E-3
259.661865E-3
259.650421E-3
259.635544E-3
259.482193E-3
259.644127E-3
259.529114E-3
259.624672E-3
259.768867E-3
259.728813E-3
259.759140E-3
259.626389E-3
259.601784E-3
259.522820E-3
259.368896E-3
259.416962E-3
259.170341E-3
259.193230E-3
259.374046E-3
259.196091E-3
259.407234E-3
259.308815E-3
259.424400E-3
259.316254E-3
258.924866E-3
258.740616E-3
257.978439E-3
257.242584E-3
256.502151E-3
255.562592E-3
254.863358E-3
254.264832E-3
254.124641E-3
254.398155E-3
254.598999E-3
255.008125E-3
255.010986E-3
255.317116E-3
255.653000E-3
255.824661E-3
256.294441E-3
256.328773E-3
256.425476E-3
256.527901E-3
256.537056E-3
256.991959E-3
256.904984E-3
257.000542E-3
257.251740E-3
257.243156E-3
257.401085E-3
257.233429E-3
257.147598E-3
257.003403E-3
256.778526E-3
256.935883E-3
256.836319E-3
257.274628E-3
257.806206E-3
258.181572E-3
259.185791E-3
259.732819E-3
259.766006E-3
259.792328E-3
259.646416E-3
259.951973E-3
259.960556E-3
260.060692E-3
260.067558E-3
259.916496E-3
259.969711E-3
259.849548E-3
259.767151E-3
259.775734E-3
259.536552E-3
259.519386E-3
259.400368E-3
259.406662E-3
259.538841E-3
259.446716E-3
259.466171E-3
259.290504E-3
259.264183E-3
259.339142E-3
259.208679E-3
259.299660E-3
259.265327E-3
259.211540E-3
259.329414E-3
259.196091E-3
259.273911E-3
259.292221E-3
259.419823E-3
259.788895E-3
259.858704E-3
260.089302E-3
260.029221E-3
259.697914E-3
259.492493E-3
258.839607E-3
258.299446E-3
257.493782E-3
256.806564E-3
256.044960E-3
255.027580E-3
254.450226E-3
253.777885E-3
253.456306E-3
253.312683E-3
253.112411E-3
253.355598E-3
253.512955E-3
253.720665E-3
254.098320E-3
254.303169E-3
254.783821E-3
255.028152E-3
255.142593E-3
255.361748E-3
255.275345E-3
255.590057E-3
255.682182E-3
255.813789E-3
256.047821E-3
255.844116E-3
256.014061E-3
255.975151E-3
255.802345E-3
255.590630E-3
255.215263E-3
255.134010E-3
255.181503E-3
255.243874E-3
255.471039E-3
255.373192E-3
255.705643E-3
256.008339E-3
256.269264E-3
256.861496E-3
257.025146E-3
257.407951E-3
257.681465E-3
257.838249E-3
258.098030E-3
258.059692E-3
258.156967E-3
258.206749E-3
258.182716E-3
258.303452E-3
258.206749E-3
258.376122E-3
258.346939E-3
258.278275E-3
258.440781E-3
258.320045E-3
258.436775E-3
258.457947E-3
258.405304E-3
258.591270E-3
258.564949E-3
258.699989E-3
258.810997E-3
258.819008E-3
259.011269E-3
258.916855E-3
259.110260E-3
259.058762E-3
259.072495E-3
259.214973E-3
259.101105E-3
259.198952E-3
259.303093E-3
259.117126E-3
259.084511E-3
258.586121E-3
258.172417E-3
257.608223E-3
256.798553E-3
256.188583E-3
255.245018E-3
254.496002E-3
253.677750E-3
253.015137E-3
252.892113E-3
252.737617E-3
252.845192E-3
252.960777E-3
253.017426E-3
253.297806E-3
253.477478E-3
253.818512E-3
254.152107E-3
254.376411E-3
254.699135E-3
254.852486E-3
255.081940E-3
255.299377E-3
255.497932E-3
255.830956E-3
255.869865E-3
256.045532E-3
256.139374E-3
255.976868E-3
256.007767E-3
255.530548E-3
255.305672E-3
254.969215E-3
254.690552E-3
254.859352E-3
254.790115E-3
254.990387E-3
255.323982E-3
255.542564E-3
256.110764E-3
256.329346E-3
256.652641E-3
256.875229E-3
256.910706E-3
257.345009E-3
257.298660E-3
257.379913E-3
257.564735E-3
257.534981E-3
257.659149E-3
257.493210E-3
257.550430E-3
257.723236E-3
257.573318E-3
257.731247E-3
257.675171E-3
257.579613E-3
257.690620E-3
257.703209E-3
257.922935E-3
257.715225E-3
257.761002E-3
257.872581E-3
257.882881E-3
258.147812E-3
257.941818E-3
257.969856E-3
258.088303E-3
258.049965E-3
258.257675E-3
258.156967E-3
258.197021E-3
258.345222E-3
258.273697E-3
258.573532E-3
258.498573E-3
258.298874E-3
257.843399E-3
257.084084E-3
256.576538E-3
255.732536E-3
254.874802E-3
254.158974E-3
253.104973E-3
252.751350E-3
252.282715E-3
252.157402E-3
252.391434E-3
252.428627E-3
252.824593E-3
253.007126E-3
253.367615E-3
253.929520E-3
254.074287E-3
254.537201E-3
254.830742E-3
254.958344E-3
255.146027E-3
255.026436E-3
255.083656E-3
255.104828E-3
255.109978E-3
255.218697E-3
255.134010E-3
255.159187E-3
255.061913E-3
255.120850E-3
255.134583E-3
254.875374E-3
254.788971E-3
254.661369E-3
254.647636E-3
255.008125E-3
255.008125E-3
255.396652E-3
255.577469E-3
255.823517E-3
256.182289E-3
256.261826E-3
256.642914E-3
256.776237E-3
256.824303E-3
257.156181E-3
257.033730E-3
257.151031E-3
257.191658E-3
257.164764E-3
257.217407E-3
257.041168E-3
257.197952E-3
257.283211E-3
257.254028E-3
257.481194E-3
257.356453E-3
257.639694E-3
257.703209E-3
257.642555E-3
257.730675E-3
257.573318E-3
257.739830E-3
257.861137E-3
257.746696E-3
257.849121E-3
257.626534E-3
257.789040E-3
257.850838E-3
257.961273E-3
258.184433E-3
258.229637E-3
258.436203E-3
258.287430E-3
257.972717E-3
257.800484E-3
257.213974E-3
256.703568E-3
256.025505E-3
255.097961E-3
254.261398E-3
253.210831E-3
252.648354E-3
252.290154E-3
252.061272E-3
252.335930E-3
252.331352E-3
252.694702E-3
252.965927E-3
253.107262E-3
253.542709E-3
253.487206E-3
253.783607E-3
253.730392E-3
253.586769E-3
253.578186E-3
253.491211E-3
253.954697E-3
254.184151E-3
254.317474E-3
254.560661E-3
254.425049E-3
254.424477E-3
254.441071E-3
254.231644E-3
254.318619E-3
254.105186E-3
254.236794E-3
254.212189E-3
254.170990E-3
254.359818E-3
254.409027E-3
254.633904E-3
254.779243E-3
254.809570E-3
255.159187E-3
255.199242E-3
255.393219E-3
255.466461E-3
255.412674E-3
255.663872E-3
255.576324E-3
255.586624E-3
255.595779E-3
255.382919E-3
255.479050E-3
255.312538E-3
255.403519E-3
255.484200E-3
255.272484E-3
255.437279E-3
255.285072E-3
255.355453E-3
255.423546E-3
255.382347E-3
255.595207E-3
255.568314E-3
255.575752E-3
255.672455E-3
255.602074E-3
255.847549E-3
255.764008E-3
255.804634E-3
255.826378E-3
255.806351E-3
256.031799E-3
255.949402E-3
256.258392E-3
256.427765E-3
256.485558E-3
256.783104E-3
256.473541E-3
256.077576E-3
255.467606E-3
254.669380E-3
254.210472E-3
253.260612E-3
252.522469E-3
251.913071E-3
251.387215E-3
251.428986E-3
251.166344E-3
251.342010E-3
251.585770E-3
251.698494E-3
252.101326E-3
252.282143E-3
252.614594E-3
252.956200E-3
253.071785E-3
253.403664E-3
253.293228E-3
253.369904E-3
253.589058E-3
253.539848E-3
253.871155E-3
253.886032E-3
253.958702E-3
253.977585E-3
253.846550E-3
253.796768E-3
253.406525E-3
253.300667E-3
253.395081E-3
253.273201E-3
253.586769E-3
253.615952E-3
253.969574E-3
254.327202E-3
254.684830E-3
255.132866E-3
255.376625E-3
255.863571E-3
256.551933E-3
256.705856E-3
257.048035E-3
257.365608E-3
257.435417E-3
257.047462E-3
256.397438E-3
256.261253E-3
255.957413E-3
255.903053E-3
255.904770E-3
255.713654E-3
255.813789E-3
255.750275E-3
255.846405E-3
255.917358E-3
255.677032E-3
255.810928E-3
255.598640E-3
255.544853E-3
255.739975E-3
255.626106E-3
255.774879E-3
255.710793E-3
255.673027E-3
255.838966E-3
255.785179E-3
255.945969E-3
256.062698E-3
256.103897E-3
256.265259E-3
256.337929E-3
256.701851E-3
256.876373E-3
256.742477E-3
256.530190E-3
255.770874E-3
255.119705E-3
254.216194E-3
253.368187E-3
252.676964E-3
251.867867E-3
251.379776E-3
250.958061E-3
250.852776E-3
251.055908E-3
250.983810E-3
251.248741E-3
251.374054E-3
251.543999E-3
251.808357E-3
251.782608E-3
252.108765E-3
252.290726E-3
252.519608E-3
252.804565E-3
252.822876E-3
253.020287E-3
253.088379E-3
253.229713E-3
253.551292E-3
253.391647E-3
253.508949E-3
253.370476E-3
253.131866E-3
253.078651E-3
252.719307E-3
252.864647E-3
252.912140E-3
252.953911E-3
253.219986E-3
253.330994E-3
253.922653E-3
254.330063E-3
254.721451E-3
255.123138E-3
255.131149E-3
255.429268E-3
255.438423E-3
255.543137E-3
255.738258E-3
255.700493E-3
255.850410E-3
255.875587E-3
255.676460E-3
255.846977E-3
255.671310E-3
255.765724E-3
255.694771E-3
255.691338E-3
255.916786E-3
255.982018E-3
256.259537E-3
256.356812E-3
256.277847E-3
256.483269E-3
256.387138E-3
256.507874E-3
256.561661E-3
256.363106E-3
256.482697E-3
256.390572E-3
256.585693E-3
256.652069E-3
256.656075E-3
256.778526E-3
256.640053E-3
256.819153E-3
256.875801E-3
256.807709E-3
256.914139E-3
256.468391E-3
256.282997E-3
255.681038E-3
254.945183E-3
254.318047E-3
253.415680E-3
252.749062E-3
251.915359E-3
251.268768E-3
251.007843E-3
250.803566E-3
250.869942E-3
250.940895E-3
250.987816E-3
251.349449E-3
251.398087E-3
251.732826E-3
252.024078E-3
252.299881E-3
252.734184E-3
252.850342E-3
253.011131E-3
253.133011E-3
253.153038E-3
253.349304E-3
253.211403E-3
253.287506E-3
253.392220E-3
253.211975E-3
253.197670E-3
252.826309E-3
252.732468E-3
252.765083E-3
252.754211E-3
252.928734E-3
252.876091E-3
253.079224E-3
253.522682E-3
253.787613E-3
254.347801E-3
254.516029E-3
254.883957E-3
255.174065E-3
255.151176E-3
255.461884E-3
255.365181E-3
255.587196E-3
255.679321E-3
255.670166E-3
255.873299E-3
255.768013E-3
255.832100E-3
255.761719E-3
255.634117E-3
255.751991E-3
255.577469E-3
255.655861E-3
255.797768E-3
255.768585E-3
256.061554E-3
255.979729E-3
256.103897E-3
256.174278E-3
256.107903E-3
256.315613E-3
256.092453E-3
256.128502E-3
256.163979E-3
256.112480E-3
256.178284E-3
255.971146E-3
255.922508E-3
255.875587E-3
255.687904E-3
256.008911E-3
255.931664E-3
256.162834E-3
256.375122E-3
255.984879E-3
255.546570E-3
254.840469E-3
254.376984E-3
253.854561E-3
252.862930E-3
252.313042E-3
251.494789E-3
251.095390E-3
250.931740E-3
250.776672E-3
251.078796E-3
251.123428E-3
251.427269E-3
251.944542E-3
252.071571E-3
252.531052E-3
252.699852E-3
253.005981E-3
253.285217E-3
253.391647E-3
253.748131E-3
253.857422E-3
254.079437E-3
254.320335E-3
254.219627E-3
254.301453E-3
254.051971E-3
253.818512E-3
253.722954E-3
253.209686E-3
253.195381E-3
252.965927E-3
252.944756E-3
253.059769E-3
253.054047E-3
253.494072E-3
253.871155E-3
254.203033E-3
254.617882E-3
254.821587E-3
255.215263E-3
255.385208E-3
255.543709E-3
255.792618E-3
255.674171E-3
255.877304E-3
255.770874E-3
255.770302E-3
255.973434E-3
255.814362E-3
255.862999E-3
255.801773E-3
255.930519E-3
256.048393E-3
255.909920E-3
256.100464E-3
256.094170E-3
256.171417E-3
256.392288E-3
256.238365E-3
256.336212E-3
256.364250E-3
256.264114E-3
256.360817E-3
256.163979E-3
256.351089E-3
256.276131E-3
256.249237E-3
256.441498E-3
256.321907E-3
256.513596E-3
256.576538E-3
256.578827E-3
256.525612E-3
255.895042E-3
255.555153E-3
255.060768E-3
254.253960E-3
253.571892E-3
252.557373E-3
251.946259E-3
251.386070E-3
250.955200E-3
250.956345E-3
250.831604E-3
251.149750E-3
251.322556E-3
251.708794E-3
252.087593E-3
252.199745E-3
252.537346E-3
252.689552E-3
252.527046E-3
252.531052E-3
252.306747E-3
252.595139E-3
252.848053E-3
252.873802E-3
253.131294E-3
252.925301E-3
253.078079E-3
252.991676E-3
252.791977E-3
252.872658E-3
252.635193E-3
252.788544E-3
252.804565E-3
252.735901E-3
252.985954E-3
253.028870E-3
253.269768E-3
253.463745E-3
253.655434E-3
254.069138E-3
254.092026E-3
254.360390E-3
254.469109E-3
254.433060E-3
254.647636E-3
254.546928E-3
254.609871E-3
254.548073E-3
254.340935E-3
254.502869E-3
254.306602E-3
254.362106E-3
254.362106E-3
254.400444E-3
254.570389E-3
254.454231E-3
254.442215E-3
254.434204E-3
254.316330E-3
254.425621E-3
254.286003E-3
254.470825E-3
254.498863E-3
254.411316E-3
254.641342E-3
254.580116E-3
254.715157E-3
254.716301E-3
254.677963E-3
254.897118E-3
254.891968E-3
255.173492E-3
255.284500E-3
255.369186E-3
255.523682E-3
255.162621E-3
254.732323E-3
254.160118E-3
