Notes :


2023-10-30 ¿ÀÈÄ 11:41:56
Volts
Ch : LED 2,
201.319313E-3
199.234200E-3
198.141289E-3
195.722008E-3
192.633820E-3
191.455650E-3
188.371468E-3
187.688255E-3
187.131500E-3
186.094093E-3
187.244797E-3
186.121559E-3
186.752129E-3
186.958122E-3
186.605644E-3
188.050461E-3
187.563515E-3
188.707924E-3
189.471817E-3
189.360809E-3
191.265678E-3
191.201591E-3
192.909050E-3
194.050026E-3
194.363022E-3
196.193504E-3
195.910263E-3
196.897888E-3
197.378540E-3
196.953964E-3
197.966194E-3
196.707344E-3
196.961403E-3
196.757126E-3
195.882797E-3
196.734810E-3
195.854187E-3
196.618080E-3
197.331619E-3
197.212601E-3
198.933792E-3
198.789024E-3
200.395203E-3
201.787376E-3
202.202797E-3
203.993797E-3
203.514290E-3
204.418945E-3
204.833794E-3
204.182625E-3
205.245781E-3
204.156303E-3
204.362869E-3
204.472733E-3
203.463364E-3
204.224968E-3
203.092003E-3
203.622437E-3
204.220963E-3
203.829575E-3
205.171394E-3
204.658127E-3
205.717278E-3
206.631088E-3
206.330109E-3
207.740593E-3
207.035065E-3
207.992935E-3
208.303070E-3
207.111168E-3
206.834221E-3
203.942299E-3
202.155876E-3
200.122833E-3
197.119904E-3
196.157455E-3
193.554497E-3
192.624092E-3
192.027855E-3
190.559578E-3
191.241074E-3
190.595627E-3
191.725159E-3
192.882729E-3
193.214035E-3
195.153236E-3
195.321465E-3
196.462440E-3
197.737885E-3
198.006248E-3
200.120544E-3
200.217247E-3
201.712990E-3
203.034782E-3
202.729225E-3
203.751183E-3
202.728081E-3
202.844238E-3
202.598763E-3
201.284409E-3
201.829147E-3
200.855255E-3
201.313591E-3
201.948166E-3
201.276970E-3
202.873993E-3
202.610207E-3
203.801537E-3
204.973984E-3
204.891014E-3
206.477737E-3
206.234550E-3
207.054520E-3
208.165741E-3
207.984924E-3
209.604263E-3
209.552765E-3
210.487747E-3
211.499405E-3
211.289406E-3
212.556839E-3
212.322807E-3
212.936783E-3
213.760757E-3
213.192558E-3
214.385033E-3
213.895226E-3
214.485741E-3
215.277100E-3
214.637375E-3
216.099930E-3
215.808105E-3
216.642380E-3
217.497826E-3
216.917610E-3
218.283463E-3
217.962456E-3
218.351555E-3
218.538666E-3
216.563988E-3
215.673065E-3
212.651825E-3
210.433388E-3
208.660126E-3
205.943871E-3
205.200577E-3
203.512001E-3
203.122330E-3
203.334618E-3
202.681732E-3
203.877640E-3
203.702545E-3
204.504204E-3
205.661201E-3
205.380821E-3
206.813049E-3
207.116890E-3
208.402061E-3
210.187340E-3
210.750961E-3
212.899590E-3
213.229179E-3
213.944435E-3
214.591026E-3
213.604546E-3
214.116096E-3
212.909317E-3
212.750244E-3
213.129616E-3
212.142563E-3
213.121605E-3
212.559700E-3
213.115883E-3
214.102364E-3
213.408279E-3
214.582443E-3
214.485168E-3
215.061951E-3
215.955734E-3
215.689659E-3
217.417717E-3
217.454910E-3
218.162155E-3
219.128036E-3
218.665123E-3
219.946289E-3
219.570351E-3
219.968033E-3
220.670700E-3
219.976616E-3
220.918465E-3
220.437813E-3
220.646667E-3
221.122169E-3
220.116234E-3
221.116447E-3
220.578575E-3
220.790291E-3
221.631432E-3
221.083260E-3
222.351837E-3
222.031975E-3
222.316360E-3
223.072815E-3
222.378159E-3
223.539734E-3
222.189331E-3
220.740509E-3
219.058228E-3
215.471649E-3
213.970757E-3
211.184120E-3
209.270096E-3
208.485031E-3
206.588745E-3
207.241631E-3
206.619072E-3
206.871414E-3
207.972336E-3
207.443619E-3
209.038353E-3
208.939934E-3
209.337044E-3
210.399055E-3
210.001373E-3
212.222099E-3
212.939644E-3
213.983917E-3
215.744019E-3
215.256500E-3
216.700745E-3
215.851021E-3
215.424728E-3
215.364075E-3
213.982201E-3
214.688301E-3
214.007950E-3
213.753319E-3
214.557266E-3
213.720703E-3
215.084839E-3
214.835930E-3
215.063095E-3
216.262436E-3
215.832710E-3
217.608833E-3
217.794228E-3
218.155861E-3
219.445610E-3
218.829918E-3
220.333672E-3
220.185471E-3
220.333099E-3
221.154785E-3
220.108223E-3
221.235466E-3
220.440102E-3
220.180321E-3
220.708466E-3
219.590950E-3
220.822906E-3
220.339394E-3
220.024109E-3
220.858955E-3
219.922829E-3
221.249199E-3
221.000290E-3
221.261787E-3
222.108650E-3
221.254921E-3
222.536087E-3
222.260284E-3
222.249985E-3
222.802162E-3
220.931053E-3
220.434380E-3
218.052292E-3
215.309143E-3
213.597679E-3
210.388184E-3
209.400558E-3
207.488251E-3
206.115532E-3
206.195068E-3
205.090714E-3
205.985641E-3
205.777359E-3
205.864334E-3
206.947517E-3
206.372452E-3
207.797813E-3
207.793236E-3
208.105087E-3
209.755898E-3
209.751892E-3
212.035561E-3
212.900162E-3
213.373947E-3
214.747238E-3
213.759041E-3
214.534378E-3
213.767052E-3
212.917900E-3
213.347626E-3
212.019539E-3
212.643242E-3
212.155724E-3
211.950302E-3
213.027763E-3
212.527084E-3
214.010811E-3
214.118385E-3
214.562416E-3
215.925407E-3
215.448189E-3
216.858673E-3
216.730499E-3
216.925049E-3
218.188477E-3
217.672920E-3
218.948936E-3
218.635941E-3
218.265152E-3
219.055367E-3
217.844009E-3
218.285179E-3
217.551041E-3
216.770554E-3
217.505264E-3
216.497612E-3
217.662621E-3
217.763901E-3
217.628860E-3
218.975830E-3
218.502617E-3
219.760323E-3
219.751740E-3
219.584656E-3
220.859528E-3
220.210075E-3
221.007156E-3
220.079041E-3
218.416786E-3
217.128181E-3
213.660622E-3
211.580658E-3
208.593178E-3
205.979919E-3
205.252075E-3
203.160667E-3
202.985001E-3
202.253723E-3
201.553345E-3
202.544403E-3
201.797104E-3
202.958679E-3
203.090858E-3
203.159523E-3
204.471588E-3
204.171753E-3
205.565643E-3
206.246567E-3
207.025909E-3
209.133911E-3
209.386826E-3
210.967827E-3
211.235046E-3
211.001015E-3
211.928558E-3
210.831070E-3
211.205864E-3
210.546684E-3
209.757614E-3
210.407639E-3
209.507561E-3
210.285759E-3
210.250854E-3
210.114670E-3
211.415291E-3
210.994720E-3
212.460136E-3
213.075256E-3
213.409424E-3
215.388680E-3
215.400696E-3
216.844368E-3
217.150497E-3
216.941643E-3
218.040848E-3
217.155647E-3
217.809677E-3
217.413139E-3
216.875267E-3
217.627716E-3
216.672707E-3
217.411423E-3
217.462921E-3
217.037201E-3
217.955589E-3
217.091560E-3
217.789078E-3
217.634010E-3
217.352486E-3
218.596458E-3
218.172455E-3
219.371796E-3
219.502831E-3
219.483376E-3
221.112442E-3
220.140266E-3
220.147705E-3
218.580437E-3
215.958595E-3
214.506340E-3
211.190987E-3
209.543037E-3
207.801819E-3
206.095505E-3
206.127548E-3
204.303932E-3
204.694748E-3
204.538536E-3
204.141998E-3
205.656624E-3
205.112457E-3
206.409073E-3
206.973839E-3
207.103729E-3
209.047508E-3
209.120178E-3
211.308861E-3
212.563705E-3
213.278389E-3
215.329170E-3
214.908028E-3
215.748596E-3
215.656471E-3
214.753532E-3
215.452766E-3
213.990211E-3
214.057732E-3
213.985062E-3
213.557625E-3
214.694595E-3
213.827133E-3
215.060234E-3
215.497398E-3
215.631866E-3
217.282677E-3
216.917038E-3
218.179321E-3
218.905449E-3
218.997574E-3
220.807457E-3
220.184898E-3
221.227455E-3
221.763611E-3
221.705246E-3
223.061943E-3
222.308922E-3
222.933769E-3
222.990990E-3
222.403908E-3
223.503685E-3
222.388458E-3
223.095131E-3
223.530006E-3
223.173523E-3
224.438095E-3
223.646164E-3
224.590874E-3
225.014305E-3
224.844933E-3
226.195335E-3
225.436020E-3
226.324654E-3
226.974106E-3
226.670837E-3
227.430153E-3
225.407982E-3
224.075890E-3
221.907234E-3
218.932343E-3
217.676353E-3
214.756966E-3
213.496971E-3
212.639809E-3
211.299706E-3
211.997795E-3
210.971260E-3
212.010956E-3
212.667274E-3
212.680435E-3
214.397049E-3
214.125824E-3
215.121460E-3
215.991783E-3
216.105080E-3
218.157005E-3
218.122101E-3
219.684219E-3
220.920753E-3
220.848656E-3
222.236824E-3
221.430588E-3
221.732712E-3
221.848869E-3
221.004868E-3
221.747017E-3
220.354843E-3
220.579147E-3
220.933914E-3
220.446968E-3
221.758461E-3
221.274948E-3
222.145271E-3
223.163223E-3
223.278236E-3
224.915314E-3
224.600601E-3
225.824547E-3
226.704025E-3
226.653671E-3
228.248978E-3
227.414703E-3
228.053284E-3
228.383446E-3
227.556610E-3
228.195763E-3
226.967812E-3
227.000427E-3
226.923752E-3
225.922966E-3
226.634216E-3
225.651741E-3
226.036263E-3
226.515770E-3
225.624275E-3
226.810455E-3
226.076317E-3
226.714325E-3
227.436447E-3
226.793861E-3
228.313637E-3
227.849007E-3
228.593445E-3
228.653526E-3
226.919746E-3
226.254845E-3
223.027611E-3
220.824623E-3
218.605614E-3
215.563774E-3
214.613342E-3
212.173462E-3
211.515999E-3
211.368370E-3
210.617065E-3
211.888504E-3
211.487961E-3
212.253571E-3
213.141060E-3
212.793732E-3
214.255714E-3
213.808823E-3
214.875412E-3
216.214943E-3
216.653824E-3
218.800735E-3
218.750381E-3
219.748306E-3
220.334244E-3
219.612122E-3
220.266151E-3
219.093132E-3
219.185829E-3
219.282532E-3
218.288612E-3
219.006729E-3
218.213654E-3
218.792152E-3
219.483376E-3
219.085693E-3
220.653534E-3
220.689583E-3
221.718979E-3
222.850800E-3
222.799873E-3
224.462128E-3
224.333382E-3
225.324440E-3
226.309204E-3
226.064301E-3
227.160072E-3
226.673698E-3
227.132607E-3
227.525139E-3
226.581573E-3
227.346611E-3
226.388741E-3
226.470566E-3
226.737213E-3
225.563049E-3
226.328659E-3
225.719261E-3
226.118660E-3
226.941490E-3
226.547241E-3
227.760315E-3
227.408981E-3
227.910233E-3
228.448677E-3
227.918243E-3
229.368210E-3
228.858376E-3
228.979111E-3
228.598022E-3
226.000214E-3
224.539948E-3
221.115303E-3
218.853378E-3
217.034912E-3
214.427948E-3
213.803101E-3
212.254715E-3
211.997223E-3
212.337112E-3
211.505699E-3
212.709045E-3
212.414932E-3
213.187408E-3
214.407349E-3
214.079475E-3
215.481949E-3
215.329170E-3
216.411781E-3
217.956734E-3
218.247986E-3
220.105362E-3
220.218086E-3
221.027756E-3
221.793938E-3
220.758247E-3
221.343040E-3
220.274734E-3
219.903946E-3
220.034981E-3
218.776131E-3
219.487953E-3
218.905449E-3
219.062233E-3
219.977760E-3
219.656754E-3
221.123886E-3
221.384811E-3
222.206497E-3
223.447609E-3
223.247910E-3
224.685860E-3
224.446678E-3
225.133324E-3
226.124954E-3
225.664330E-3
227.055359E-3
226.536942E-3
226.655960E-3
227.034760E-3
225.685501E-3
226.453972E-3
225.465775E-3
225.216866E-3
225.616264E-3
224.419212E-3
225.393677E-3
225.085258E-3
225.243187E-3
225.984192E-3
225.434875E-3
227.030182E-3
226.749229E-3
226.835060E-3
227.526855E-3
227.010155E-3
228.559113E-3
227.964020E-3
227.205276E-3
226.193047E-3
223.055077E-3
221.677780E-3
218.564987E-3
216.305923E-3
214.917755E-3
212.333679E-3
212.304497E-3
210.964966E-3
210.444832E-3
210.928345E-3
210.157585E-3
211.555481E-3
211.555481E-3
212.225533E-3
213.365936E-3
212.849808E-3
214.622498E-3
215.041924E-3
216.178894E-3
218.078041E-3
218.336105E-3
220.469856E-3
220.749664E-3
221.014023E-3
221.591949E-3
220.381737E-3
221.177673E-3
220.098495E-3
219.602394E-3
219.908524E-3
218.904305E-3
219.980049E-3
219.809532E-3
219.990921E-3
221.252632E-3
220.958519E-3
222.839928E-3
223.000717E-3
223.651886E-3
225.215149E-3
224.945641E-3
226.710892E-3
226.788712E-3
227.030182E-3
228.154564E-3
227.485657E-3
228.738785E-3
228.556252E-3
228.523064E-3
229.138756E-3
228.036690E-3
229.161072E-3
228.597450E-3
228.303337E-3
228.999138E-3
228.168869E-3
229.412842E-3
229.163933E-3
228.999138E-3
229.937553E-3
229.317284E-3
230.837059E-3
230.619049E-3
230.500031E-3
231.463051E-3
230.811310E-3
232.424355E-3
232.341385E-3
231.747437E-3
231.452179E-3
228.465843E-3
227.055359E-3
223.568344E-3
220.727348E-3
219.412422E-3
216.829491E-3
216.716194E-3
215.651894E-3
215.091705E-3
216.035843E-3
215.759468E-3
217.501831E-3
217.895508E-3
218.499756E-3
220.143700E-3
219.819832E-3
221.372223E-3
221.724701E-3
222.311783E-3
224.226952E-3
224.198341E-3
226.095772E-3
226.158142E-3
226.028252E-3
227.035332E-3
225.907516E-3
226.558685E-3
225.847435E-3
225.270653E-3
225.825691E-3
224.784851E-3
225.777626E-3
225.690079E-3
225.904655E-3
227.335167E-3
227.160072E-3
228.672981E-3
228.808022E-3
229.130173E-3
230.642509E-3
230.350685E-3
231.855583E-3
232.022095E-3
232.126808E-3
233.432579E-3
232.963371E-3
234.016228E-3
233.892632E-3
233.774185E-3
234.571266E-3
233.597374E-3
234.291458E-3
233.993912E-3
233.629990E-3
234.488297E-3
233.650589E-3
234.439659E-3
233.855438E-3
233.512115E-3
234.640503E-3
234.134674E-3
235.600662E-3
235.667038E-3
235.383224E-3
236.396027E-3
235.851288E-3
237.163353E-3
237.123299E-3
236.466980E-3
236.411476E-3
233.775902E-3
232.274437E-3
229.670334E-3
226.991844E-3
225.951004E-3
223.330307E-3
222.762108E-3
221.580505E-3
220.582008E-3
221.349907E-3
220.763969E-3
221.994781E-3
222.218513E-3
222.461700E-3
223.964310E-3
223.498535E-3
224.737930E-3
224.947357E-3
225.186539E-3
226.891136E-3
226.764679E-3
228.067017E-3
228.218651E-3
227.587509E-3
228.377724E-3
227.192116E-3
227.474785E-3
226.757812E-3
225.915527E-3
226.462555E-3
225.475502E-3
226.353264E-3
226.433372E-3
226.233673E-3
227.655602E-3
227.333450E-3
228.642654E-3
229.061508E-3
229.127884E-3
230.609894E-3
230.162430E-3
231.198692E-3
231.301689E-3
230.962372E-3
232.176590E-3
231.393242E-3
232.329369E-3
232.095909E-3
231.478500E-3
232.407761E-3
231.411552E-3
232.184601E-3
231.943130E-3
231.387520E-3
232.470131E-3
231.469345E-3
232.113075E-3
232.131958E-3
231.491661E-3
232.562828E-3
231.826973E-3
232.790565E-3
232.913017E-3
232.650375E-3
234.053993E-3
233.573341E-3
234.676552E-3
234.603882E-3
233.236313E-3
232.748222E-3
229.579353E-3
227.620697E-3
224.987984E-3
222.090912E-3
221.161079E-3
218.413925E-3
217.868614E-3
217.151642E-3
216.337967E-3
217.438889E-3
216.864395E-3
218.026543E-3
218.787575E-3
218.818474E-3
220.389175E-3
219.787788E-3
220.930481E-3
221.878052E-3
222.472572E-3
224.545097E-3
224.320793E-3
225.644302E-3
226.013374E-3
225.463486E-3
226.182175E-3
224.751091E-3
224.956512E-3
224.570847E-3
223.687935E-3
224.549675E-3
223.296547E-3
223.939705E-3
224.193764E-3
223.921394E-3
225.482941E-3
224.856949E-3
225.951576E-3
226.813889E-3
226.889420E-3
228.519058E-3
228.041267E-3
229.237747E-3
229.996490E-3
230.084610E-3
231.550026E-3
230.809593E-3
231.488800E-3
231.649017E-3
230.989838E-3
231.744576E-3
230.488014E-3
230.790710E-3
230.611610E-3
229.873466E-3
230.930328E-3
229.784775E-3
230.252838E-3
230.495453E-3
229.954720E-3
231.196976E-3
230.523491E-3
231.234741E-3
231.513977E-3
231.066513E-3
232.474709E-3
231.883621E-3
232.499886E-3
232.308197E-3
230.347252E-3
229.360199E-3
225.999641E-3
223.916817E-3
221.686935E-3
218.819046E-3
218.049431E-3
215.549469E-3
215.018463E-3
214.598465E-3
213.563919E-3
214.550972E-3
213.748741E-3
214.617348E-3
215.418434E-3
215.284538E-3
216.712761E-3
216.227531E-3
217.414856E-3
218.877983E-3
219.263077E-3
221.403122E-3
221.463203E-3
222.580147E-3
223.248482E-3
222.520638E-3
223.309708E-3
221.954155E-3
221.943855E-3
221.745872E-3
220.634651E-3
221.443176E-3
220.301056E-3
220.860100E-3
221.393394E-3
220.969391E-3
222.457123E-3
222.134399E-3
223.486519E-3
224.561119E-3
224.365425E-3
226.055145E-3
225.829124E-3
226.847649E-3
227.795792E-3
227.558899E-3
228.932190E-3
228.278160E-3
228.924179E-3
229.180527E-3
228.126526E-3
228.971100E-3
227.784348E-3
227.897072E-3
228.193474E-3
227.125168E-3
228.079033E-3
227.253914E-3
227.848434E-3
228.398895E-3
227.910805E-3
229.131889E-3
228.715324E-3
229.432297E-3
230.106926E-3
229.557610E-3
230.820465E-3
