Notes :


2023-10-30 ¿ÀÈÄ 11:32:57
Volts
Ch : LED 2,
95.349312E-3
95.296669E-3
95.227432E-3
95.960426E-3
95.191956E-3
96.088600E-3
95.874596E-3
95.560455E-3
96.418762E-3
95.442581E-3
96.162415E-3
95.926666E-3
95.822525E-3
96.346092E-3
95.531273E-3
96.480560E-3
96.257973E-3
96.025085E-3
96.916008E-3
96.097755E-3
96.921730E-3
96.751213E-3
96.673965E-3
97.230148E-3
96.153831E-3
96.958351E-3
96.490860E-3
95.540428E-3
95.639420E-3
93.716812E-3
93.876457E-3
92.983246E-3
91.976738E-3
92.268562E-3
91.046906E-3
91.680908E-3
91.390800E-3
91.213417E-3
91.925240E-3
91.159630E-3
92.187309E-3
92.099190E-3
91.819382E-3
92.804718E-3
91.956711E-3
93.032455E-3
93.188667E-3
93.105698E-3
94.406891E-3
93.783188E-3
94.809151E-3
94.838333E-3
94.484138E-3
95.210838E-3
94.371986E-3
95.035172E-3
94.857216E-3
94.318771E-3
95.134735E-3
94.036674E-3
94.858360E-3
94.810295E-3
94.159698E-3
94.989967E-3
94.251251E-3
95.029449E-3
95.095253E-3
94.695854E-3
95.672035E-3
94.828606E-3
95.681763E-3
95.579910E-3
95.189095E-3
96.106911E-3
95.321846E-3
96.065140E-3
96.181870E-3
95.376778E-3
96.237946E-3
95.480347E-3
96.134377E-3
95.936966E-3
95.593643E-3
96.471405E-3
95.684624E-3
96.404457E-3
96.324921E-3
95.919228E-3
96.931458E-3
96.092033E-3
96.839333E-3
96.826744E-3
96.372414E-3
97.163773E-3
96.387863E-3
97.021294E-3
96.729469E-3
95.669746E-3
95.814514E-3
94.271278E-3
94.077301E-3
93.395805E-3
92.119789E-3
92.380714E-3
91.300392E-3
91.666603E-3
91.466904E-3
90.958214E-3
91.825104E-3
91.013145E-3
91.770744E-3
91.869164E-3
91.531563E-3
92.463112E-3
91.961861E-3
92.903709E-3
93.008423E-3
92.865944E-3
94.130516E-3
93.800354E-3
94.597435E-3
94.902420E-3
94.347954E-3
95.276070E-3
94.556808E-3
95.002556E-3
95.048332E-3
94.270706E-3
95.175362E-3
94.524193E-3
94.877815E-3
94.889259E-3
94.160271E-3
95.111275E-3
94.599724E-3
95.110130E-3
95.130730E-3
94.806290E-3
95.651436E-3
95.158195E-3
95.780182E-3
95.918083E-3
95.276070E-3
96.309471E-3
95.702934E-3
96.366119E-3
96.465683E-3
95.933533E-3
96.831894E-3
96.250534E-3
96.806145E-3
96.813583E-3
96.088600E-3
97.050476E-3
96.494865E-3
96.993256E-3
97.095680E-3
96.519470E-3
97.481918E-3
96.782684E-3
97.241592E-3
97.404099E-3
96.777534E-3
97.618103E-3
97.103119E-3
97.515106E-3
97.504234E-3
96.813011E-3
97.322845E-3
96.337509E-3
96.038818E-3
95.579910E-3
94.014931E-3
94.125366E-3
93.048477E-3
93.030167E-3
92.775536E-3
91.856575E-3
92.508316E-3
91.937256E-3
92.377281E-3
92.719460E-3
92.372704E-3
93.199539E-3
92.932892E-3
93.548584E-3
93.958855E-3
93.610954E-3
94.559669E-3
94.293022E-3
94.885826E-3
95.454025E-3
95.116425E-3
96.114922E-3
95.558739E-3
95.792198E-3
95.842552E-3
95.317268E-3
96.265984E-3
95.464897E-3
95.585060E-3
95.758438E-3
95.207405E-3
96.037674E-3
95.368767E-3
95.776176E-3
96.084023E-3
95.582771E-3
96.583557E-3
95.857430E-3
96.246529E-3
96.800995E-3
96.302032E-3
97.282791E-3
96.621323E-3
96.800995E-3
97.362328E-3
96.757507E-3
97.689629E-3
96.807861E-3
96.997833E-3
97.401237E-3
96.919441E-3
97.756004E-3
97.073936E-3
97.009277E-3
97.703362E-3
96.996117E-3
98.114777E-3
97.239304E-3
97.479057E-3
98.072433E-3
97.560883E-3
98.510742E-3
97.703362E-3
97.863007E-3
98.309898E-3
97.647285E-3
98.349953E-3
97.126007E-3
96.865082E-3
96.778107E-3
95.391655E-3
95.554161E-3
94.028091E-3
93.731117E-3
93.762016E-3
92.639923E-3
93.461609E-3
92.628479E-3
92.918587E-3
93.559456E-3
93.105125E-3
94.177437E-3
93.570900E-3
93.844414E-3
94.572258E-3
94.056702E-3
95.221138E-3
94.668961E-3
95.058060E-3
95.853996E-3
95.321846E-3
96.466827E-3
95.740700E-3
95.863152E-3
96.290016E-3
95.543289E-3
96.223640E-3
95.451736E-3
95.514107E-3
96.022797E-3
95.196533E-3
96.018219E-3
95.379639E-3
95.712662E-3
96.152687E-3
95.468330E-3
96.577835E-3
95.866585E-3
96.150970E-3
96.662521E-3
95.952988E-3
96.784401E-3
96.296310E-3
96.496010E-3
97.011566E-3
96.227646E-3
97.053909E-3
96.348381E-3
96.605301E-3
97.175217E-3
96.250534E-3
97.157478E-3
96.584129E-3
96.950912E-3
97.405815E-3
96.639061E-3
97.603798E-3
97.035599E-3
97.174072E-3
97.821808E-3
97.065926E-3
97.906494E-3
97.230721E-3
97.307968E-3
97.935677E-3
97.167778E-3
97.869873E-3
96.957207E-3
96.550941E-3
96.576118E-3
94.999123E-3
95.126152E-3
93.730545E-3
93.173218E-3
93.378067E-3
92.156410E-3
92.806435E-3
92.362404E-3
92.530060E-3
93.181229E-3
92.457962E-3
93.309402E-3
93.049049E-3
93.176651E-3
94.074440E-3
93.418121E-3
94.482994E-3
94.235802E-3
94.672394E-3
95.501518E-3
95.038605E-3
95.874596E-3
95.510674E-3
95.544434E-3
96.272850E-3
95.492363E-3
96.070862E-3
95.357323E-3
95.333290E-3
95.994759E-3
95.235443E-3
95.784760E-3
95.344734E-3
95.426559E-3
96.192741E-3
95.459747E-3
96.253967E-3
95.938110E-3
96.055984E-3
96.788406E-3
95.991898E-3
96.691132E-3
96.460533E-3
96.637917E-3
97.308540E-3
96.467972E-3
97.177505E-3
96.777534E-3
96.829605E-3
97.508240E-3
96.599579E-3
97.308540E-3
96.990395E-3
97.100830E-3
97.728539E-3
96.895409E-3
97.663879E-3
97.350311E-3
97.392082E-3
98.091888E-3
97.358894E-3
98.014641E-3
97.751999E-3
97.861290E-3
98.579979E-3
97.816086E-3
98.216629E-3
97.532845E-3
96.924591E-3
96.925735E-3
95.321846E-3
95.257187E-3
94.251251E-3
93.515968E-3
93.661308E-3
92.578125E-3
93.005562E-3
92.690277E-3
92.552948E-3
93.363762E-3
92.614174E-3
93.396378E-3
93.221855E-3
93.241882E-3
94.127083E-3
93.437004E-3
94.262123E-3
94.245529E-3
94.441223E-3
95.445442E-3
95.054626E-3
95.971298E-3
95.945549E-3
95.852852E-3
96.509171E-3
95.534706E-3
96.286011E-3
95.946693E-3
95.514107E-3
96.092033E-3
95.163345E-3
95.840263E-3
95.668602E-3
95.371056E-3
96.074867E-3
95.264626E-3
96.208763E-3
96.036530E-3
95.934677E-3
96.541214E-3
95.808792E-3
96.878815E-3
96.944046E-3
96.739769E-3
97.413254E-3
96.601295E-3
97.573471E-3
97.480202E-3
97.001266E-3
97.832108E-3
96.715164E-3
97.555161E-3
97.501373E-3
97.218132E-3
97.785187E-3
96.984673E-3
97.926521E-3
97.834396E-3
97.456741E-3
98.384857E-3
97.505951E-3
98.429489E-3
98.505592E-3
98.007202E-3
98.662949E-3
97.717094E-3
98.411179E-3
98.196030E-3
97.315979E-3
97.499657E-3
95.880318E-3
95.971298E-3
95.126152E-3
93.919373E-3
94.110489E-3
92.914009E-3
93.293381E-3
93.054199E-3
92.602158E-3
93.519974E-3
92.770386E-3
93.626976E-3
93.748283E-3
93.473053E-3
94.408607E-3
93.774033E-3
94.489861E-3
94.781685E-3
94.532776E-3
95.672035E-3
95.256042E-3
96.347809E-3
96.604156E-3
96.265411E-3
97.041893E-3
96.237373E-3
96.760941E-3
96.811867E-3
96.078300E-3
96.866798E-3
96.017075E-3
96.756363E-3
96.711731E-3
96.200752E-3
96.979523E-3
96.321487E-3
97.078514E-3
97.052193E-3
96.647072E-3
97.500229E-3
96.822739E-3
97.570038E-3
97.586632E-3
97.216988E-3
98.282433E-3
97.619820E-3
98.342514E-3
98.473549E-3
97.930527E-3
98.768234E-3
97.931671E-3
98.659515E-3
98.733330E-3
98.166275E-3
99.110413E-3
98.421478E-3
99.138451E-3
99.184227E-3
98.674393E-3
99.696922E-3
99.038887E-3
99.632263E-3
99.668312E-3
99.173355E-3
100.019073E-3
99.275208E-3
99.893761E-3
99.830246E-3
98.828888E-3
99.208260E-3
97.936821E-3
97.879028E-3
96.965790E-3
95.482635E-3
95.642281E-3
94.483566E-3
94.814873E-3
94.425201E-3
93.760300E-3
94.722748E-3
94.060135E-3
94.909286E-3
95.099831E-3
94.607735E-3
95.663452E-3
95.171928E-3
95.813370E-3
96.050262E-3
95.730972E-3
96.964645E-3
96.649933E-3
97.370911E-3
97.501373E-3
97.032738E-3
98.007774E-3
97.439575E-3
97.750854E-3
97.854424E-3
97.100258E-3
97.978592E-3
97.190094E-3
97.493362E-3
97.610664E-3
97.190094E-3
98.011208E-3
97.467041E-3
97.861290E-3
98.095322E-3
97.354317E-3
98.431778E-3
98.003769E-3
98.591995E-3
98.749352E-3
98.063850E-3
98.990250E-3
98.602295E-3
98.990822E-3
99.127579E-3
98.597717E-3
99.453735E-3
98.894119E-3
99.184799E-3
99.271202E-3
98.727608E-3
99.625969E-3
99.109840E-3
99.480629E-3
99.530983E-3
98.996544E-3
99.775314E-3
99.270058E-3
99.696922E-3
99.815369E-3
99.348450E-3
99.936104E-3
99.250031E-3
99.597931E-3
99.522400E-3
98.734474E-3
99.110985E-3
97.851563E-3
97.276497E-3
96.570969E-3
95.290947E-3
95.422554E-3
94.310760E-3
94.254684E-3
94.202614E-3
93.643570E-3
94.593430E-3
94.015503E-3
94.631767E-3
95.017433E-3
94.591141E-3
95.602798E-3
95.015717E-3
95.536995E-3
95.983315E-3
95.590210E-3
96.797562E-3
96.471977E-3
96.861076E-3
97.312546E-3
96.746063E-3
97.639275E-3
96.679115E-3
96.955490E-3
97.245026E-3
96.514320E-3
97.446442E-3
96.595573E-3
96.742058E-3
97.207832E-3
96.629333E-3
97.539711E-3
96.672821E-3
97.175789E-3
97.632408E-3
97.073364E-3
98.050690E-3
97.321701E-3
97.535133E-3
98.212624E-3
97.579765E-3
98.514175E-3
97.937965E-3
98.130226E-3
98.467255E-3
97.770309E-3
98.799706E-3
98.024940E-3
98.208618E-3
98.762512E-3
98.135948E-3
99.089241E-3
98.239517E-3
98.434067E-3
99.019432E-3
98.300171E-3
99.434280E-3
98.651505E-3
98.858643E-3
99.359322E-3
98.698425E-3
99.565315E-3
99.082947E-3
99.223709E-3
99.358749E-3
98.384285E-3
98.819733E-3
97.427559E-3
96.728325E-3
96.387291E-3
94.982529E-3
95.056915E-3
94.095612E-3
93.913078E-3
94.225502E-3
93.406677E-3
94.393158E-3
93.875313E-3
94.248390E-3
94.855499E-3
94.176292E-3
95.156479E-3
94.492722E-3
94.846344E-3
95.675468E-3
95.276070E-3
96.463966E-3
96.059990E-3
96.425056E-3
97.137451E-3
96.478844E-3
97.390938E-3
96.738052E-3
96.838760E-3
97.395515E-3
96.437073E-3
97.350311E-3
96.636200E-3
96.750641E-3
97.186661E-3
96.318626E-3
97.184944E-3
96.564102E-3
96.858215E-3
97.598648E-3
96.748352E-3
97.753716E-3
97.179222E-3
97.413254E-3
98.167419E-3
97.382355E-3
98.280144E-3
97.706223E-3
98.105049E-3
98.701859E-3
97.979736E-3
98.710442E-3
98.229790E-3
98.270988E-3
98.926735E-3
98.105621E-3
98.968506E-3
98.232079E-3
98.624611E-3
99.201965E-3
98.497581E-3
99.280357E-3
98.710442E-3
98.953056E-3
99.752426E-3
98.875237E-3
99.732971E-3
99.168777E-3
99.199104E-3
99.686623E-3
98.784256E-3
98.986816E-3
97.798920E-3
97.269630E-3
97.108841E-3
95.246315E-3
95.429993E-3
94.374847E-3
94.065285E-3
94.478989E-3
93.548584E-3
94.303322E-3
93.835831E-3
94.025230E-3
94.630051E-3
93.986320E-3
94.869804E-3
94.601440E-3
94.808578E-3
95.599365E-3
95.024300E-3
95.935822E-3
95.993042E-3
96.407890E-3
97.327423E-3
96.687698E-3
97.482491E-3
96.984673E-3
97.005272E-3
97.709084E-3
96.768951E-3
97.400665E-3
96.940041E-3
96.894836E-3
97.473907E-3
96.639061E-3
97.364044E-3
96.963501E-3
97.135735E-3
97.876167E-3
96.996117E-3
97.798920E-3
97.626114E-3
97.687912E-3
98.502159E-3
97.816658E-3
98.511887E-3
98.352242E-3
98.368835E-3
99.156189E-3
98.355675E-3
99.036026E-3
98.704720E-3
98.639488E-3
99.331856E-3
98.526192E-3
99.129868E-3
98.994255E-3
98.908997E-3
99.577904E-3
98.983955E-3
99.687195E-3
99.387932E-3
99.405670E-3
100.308037E-3
99.551582E-3
100.204468E-3
99.865723E-3
99.679756E-3
100.451660E-3
99.636269E-3
100.216484E-3
99.406815E-3
98.753357E-3
98.741913E-3
97.099113E-3
96.992683E-3
95.953560E-3
95.403099E-3
95.634270E-3
94.557953E-3
95.059776E-3
94.832039E-3
94.620323E-3
95.502090E-3
94.933891E-3
95.768166E-3
95.657730E-3
95.898056E-3
96.641350E-3
95.954132E-3
97.086525E-3
97.127724E-3
96.971512E-3
98.079872E-3
97.494507E-3
98.277283E-3
97.980309E-3
97.962570E-3
98.616600E-3
97.767448E-3
98.388863E-3
98.151970E-3
97.798347E-3
98.418045E-3
97.636986E-3
98.397446E-3
98.043823E-3
97.820091E-3
98.696709E-3
97.925949E-3
98.771095E-3
98.630905E-3
98.652649E-3
99.383926E-3
98.535919E-3
99.333000E-3
99.171066E-3
99.068642E-3
99.786758E-3
99.132729E-3
99.963570E-3
99.739838E-3
99.547577E-3
100.202751E-3
99.388504E-3
100.358391E-3
99.941254E-3
99.718094E-3
100.364113E-3
99.664307E-3
100.472260E-3
100.372696E-3
100.265121E-3
100.924301E-3
100.110054E-3
101.057625E-3
100.905991E-3
100.615311E-3
101.135445E-3
100.337791E-3
101.003265E-3
100.697708E-3
99.862862E-3
99.860001E-3
98.287010E-3
98.386574E-3
97.272491E-3
96.314049E-3
96.346664E-3
95.139885E-3
95.555878E-3
95.362473E-3
94.976807E-3
95.917511E-3
95.289230E-3
96.179581E-3
96.346664E-3
96.240234E-3
96.961212E-3
96.161842E-3
97.321701E-3
97.275925E-3
97.121429E-3
98.070145E-3
97.458458E-3
98.386002E-3
98.379135E-3
97.872734E-3
98.498154E-3
97.647285E-3
98.456383E-3
98.263550E-3
97.622108E-3
98.291016E-3
97.284508E-3
97.942543E-3
97.881889E-3
97.537422E-3
98.380280E-3
97.675323E-3
98.546791E-3
98.648643E-3
98.101616E-3
99.058342E-3
98.307610E-3
98.999405E-3
99.024582E-3
98.465538E-3
99.331856E-3
98.538780E-3
99.329567E-3
99.331284E-3
98.697281E-3
99.560165E-3
98.765373E-3
99.521255E-3
99.551582E-3
98.855782E-3
99.807930E-3
99.004555E-3
99.767303E-3
99.864578E-3
99.264908E-3
100.049973E-3
99.298668E-3
100.105476E-3
100.114632E-3
99.715233E-3
100.314903E-3
99.528694E-3
100.148392E-3
100.127792E-3
99.161339E-3
99.595070E-3
98.201180E-3
98.158264E-3
97.224426E-3
96.056557E-3
96.074867E-3
94.775963E-3
95.084953E-3
94.690132E-3
94.131088E-3
95.018578E-3
94.164848E-3
95.009995E-3
95.098686E-3
94.659233E-3
95.694923E-3
95.115280E-3
96.042824E-3
96.213341E-3
95.819664E-3
96.945190E-3
96.477127E-3
97.395515E-3
97.597504E-3
97.150612E-3
98.023796E-3
97.227287E-3
97.868729E-3
97.666740E-3
96.932602E-3
97.798347E-3
96.961784E-3
97.595787E-3
97.501945E-3
96.795845E-3
97.701645E-3
97.013283E-3
97.683907E-3
97.809219E-3
97.273636E-3
98.311615E-3
97.656441E-3
98.273849E-3
98.288727E-3
97.766876E-3
98.721886E-3
98.186874E-3
98.812294E-3
98.816872E-3
98.291016E-3
98.997116E-3
98.369408E-3
98.842621E-3
98.686409E-3
98.233795E-3
99.099541E-3
98.542786E-3
99.124146E-3
99.108696E-3
98.497581E-3
99.525261E-3
98.847771E-3
99.341583E-3
99.315262E-3
98.914719E-3
99.789619E-3
99.058914E-3
99.744415E-3
99.717522E-3
99.080086E-3
99.833107E-3
98.546791E-3
98.564529E-3
97.772598E-3
96.379280E-3
96.510315E-3
95.122719E-3
95.036316E-3
94.660378E-3
93.620682E-3
94.317055E-3
