Notes :


2023-11-05 ¿ÀÈÄ 2:20:55
Volts
Ch : LED 2,
288.470078E-3
288.270378E-3
288.381386E-3
288.133621E-3
288.091278E-3
288.306427E-3
288.148499E-3
288.165665E-3
287.882423E-3
287.681007E-3
287.927628E-3
287.313080E-3
287.129974E-3
286.819267E-3
286.006737E-3
285.689163E-3
284.890938E-3
284.699249E-3
284.174538E-3
284.016609E-3
284.166527E-3
283.998299E-3
284.296417E-3
284.269524E-3
284.181976E-3
284.479523E-3
284.353065E-3
284.502983E-3
284.696388E-3
284.639740E-3
284.937286E-3
284.757614E-3
284.971619E-3
285.020828E-3
284.650040E-3
284.838867E-3
284.510422E-3
284.656906E-3
284.461784E-3
284.308434E-3
284.576797E-3
284.399414E-3
284.877205E-3
284.917831E-3
284.818268E-3
285.143280E-3
284.979057E-3
285.146141E-3
285.300064E-3
285.217667E-3
285.586166E-3
285.502625E-3
285.587311E-3
285.791588E-3
285.579872E-3
285.938072E-3
285.777283E-3
285.889435E-3
285.786438E-3
285.843086E-3
286.288834E-3
286.102295E-3
286.391830E-3
286.359215E-3
286.520576E-3
286.666489E-3
286.446762E-3
286.747169E-3
286.794662E-3
286.600685E-3
286.821556E-3
286.681366E-3
286.609268E-3
286.692810E-3
286.564636E-3
286.962318E-3
286.735153E-3
286.869049E-3
286.489105E-3
286.095428E-3
286.217308E-3
285.427094E-3
285.258293E-3
285.040855E-3
284.691238E-3
284.947014E-3
284.619713E-3
284.589386E-3
284.682655E-3
284.674072E-3
285.128975E-3
284.956169E-3
285.106659E-3
285.467148E-3
285.340118E-3
285.843086E-3
285.678291E-3
285.835075E-3
286.132050E-3
285.908318E-3
286.378670E-3
286.068535E-3
286.380959E-3
286.567497E-3
286.485672E-3
286.880493E-3
286.508560E-3
286.868477E-3
286.964035E-3
286.824417E-3
287.214661E-3
287.016678E-3
287.115669E-3
287.408638E-3
287.367439E-3
287.655830E-3
287.441826E-3
287.520218E-3
287.779999E-3
287.637520E-3
287.952232E-3
287.714195E-3
287.875557E-3
288.196564E-3
288.089561E-3
288.327599E-3
287.911034E-3
288.213158E-3
288.446617E-3
288.281822E-3
288.746452E-3
288.555336E-3
288.567924E-3
288.526726E-3
288.380814E-3
288.578796E-3
288.624573E-3
288.498116E-3
288.613701E-3
288.440895E-3
288.586235E-3
288.190842E-3
288.054657E-3
287.937927E-3
287.302780E-3
287.369728E-3
286.479950E-3
286.299133E-3
286.039352E-3
285.678291E-3
285.948372E-3
285.544968E-3
285.623360E-3
285.704613E-3
285.694885E-3
285.937500E-3
285.847664E-3
285.994148E-3
286.493683E-3
286.087418E-3
286.279678E-3
286.181831E-3
286.186409E-3
286.645317E-3
286.416435E-3
286.531448E-3
286.250496E-3
286.412430E-3
286.461067E-3
286.119461E-3
286.360931E-3
286.099434E-3
286.336327E-3
286.363792E-3
286.161232E-3
286.423874E-3
286.394691E-3
286.346054E-3
286.588669E-3
286.192703E-3
286.501122E-3
286.474228E-3
286.278534E-3
286.678505E-3
286.311722E-3
286.528015E-3
286.557198E-3
286.666489E-3
286.630440E-3
286.441040E-3
286.854744E-3
286.774063E-3
286.984062E-3
287.096214E-3
287.033272E-3
287.187767E-3
287.021255E-3
286.930275E-3
287.239265E-3
286.945152E-3
287.057304E-3
287.020683E-3
287.160301E-3
287.436676E-3
286.894226E-3
286.749458E-3
286.223602E-3
285.899162E-3
285.638237E-3
284.971619E-3
284.980774E-3
284.579086E-3
284.341621E-3
284.410858E-3
284.129906E-3
284.387970E-3
284.313011E-3
284.242630E-3
284.676361E-3
284.531593E-3
284.708977E-3
285.022545E-3
284.865189E-3
285.155296E-3
285.104942E-3
285.504913E-3
285.329247E-3
285.439682E-3
285.753822E-3
285.417366E-3
285.542107E-3
285.410500E-3
285.669136E-3
285.801315E-3
285.525513E-3
285.730934E-3
285.940361E-3
285.892296E-3
286.245918E-3
286.008453E-3
286.144066E-3
286.350632E-3
286.454201E-3
286.635017E-3
286.332893E-3
286.736298E-3
286.636162E-3
286.453629E-3
286.986923E-3
286.673355E-3
287.016106E-3
286.891365E-3
287.055016E-3
287.342262E-3
287.156296E-3
287.508774E-3
287.392616E-3
287.582016E-3
287.691307E-3
287.454414E-3
287.748528E-3
287.826920E-3
287.553406E-3
287.820053E-3
287.489319E-3
287.596321E-3
287.725067E-3
287.512779E-3
287.506485E-3
287.236977E-3
287.182617E-3
286.576080E-3
285.906601E-3
285.966682E-3
285.252571E-3
285.313225E-3
285.143280E-3
285.003662E-3
284.985352E-3
284.549904E-3
284.746170E-3
284.675217E-3
284.658623E-3
284.931564E-3
284.707260E-3
284.828568E-3
285.054016E-3
284.863472E-3
285.211372E-3
285.110664E-3
285.139275E-3
285.285759E-3
285.066605E-3
285.295486E-3
285.008812E-3
285.297775E-3
285.364723E-3
285.072899E-3
285.341263E-3
285.038567E-3
285.468864E-3
285.545540E-3
285.605621E-3
285.796165E-3
285.559273E-3
285.984421E-3
285.809898E-3
285.791016E-3
286.080551E-3
285.799026E-3
286.054802E-3
286.300850E-3
286.173820E-3
286.615562E-3
286.435318E-3
286.695099E-3
286.681366E-3
286.585808E-3
286.895370E-3
286.878777E-3
287.198067E-3
287.164307E-3
287.192917E-3
287.476730E-3
287.354279E-3
287.461853E-3
287.339401E-3
287.263870E-3
287.410927E-3
287.157440E-3
287.351418E-3
287.352562E-3
287.020683E-3
287.175751E-3
286.714554E-3
286.351204E-3
286.082840E-3
285.649109E-3
285.596466E-3
285.081482E-3
285.112953E-3
285.189629E-3
284.893227E-3
285.206223E-3
284.945297E-3
285.348129E-3
285.292053E-3
285.478592E-3
285.732651E-3
285.560417E-3
285.575867E-3
285.686302E-3
285.795593E-3
286.022186E-3
285.908318E-3
285.895729E-3
286.123466E-3
286.002159E-3
286.232185E-3
285.990715E-3
286.038208E-3
286.251640E-3
286.074829E-3
286.416435E-3
285.908318E-3
286.209297E-3
286.224174E-3
286.161804E-3
286.634445E-3
286.336899E-3
286.484528E-3
286.376381E-3
286.533165E-3
286.774063E-3
286.530304E-3
286.611557E-3
286.941719E-3
286.799812E-3
287.195206E-3
286.966896E-3
287.144279E-3
287.339401E-3
287.158585E-3
287.669563E-3
287.453270E-3
287.787437E-3
287.706757E-3
287.465858E-3
287.743378E-3
287.404060E-3
287.611198E-3
287.628937E-3
287.613487E-3
287.835503E-3
287.488747E-3
287.374306E-3
287.535667E-3
287.060738E-3
286.815834E-3
286.316872E-3
285.956383E-3
285.982132E-3
285.579300E-3
285.684586E-3
285.282326E-3
285.283470E-3
285.354996E-3
285.140419E-3
285.516357E-3
285.383034E-3
285.574722E-3
285.558701E-3
285.497475E-3
285.728645E-3
285.647964E-3
285.799026E-3
285.900307E-3
285.734367E-3
285.705185E-3
285.559273E-3
285.468292E-3
285.830498E-3
285.635948E-3
285.867691E-3
285.943794E-3
285.704613E-3
285.985565E-3
285.726929E-3
285.990715E-3
285.834503E-3
286.007309E-3
286.235046E-3
285.890007E-3
286.074829E-3
285.882568E-3
285.978699E-3
286.205864E-3
286.039925E-3
286.288261E-3
286.263084E-3
286.297417E-3
286.548615E-3
286.278534E-3
286.511993E-3
286.478233E-3
286.489105E-3
286.862183E-3
286.656761E-3
286.891365E-3
286.679649E-3
286.796951E-3
287.110519E-3
286.820412E-3
287.098503E-3
286.925125E-3
286.845016E-3
286.972618E-3
286.778641E-3
286.986923E-3
286.522293E-3
286.463928E-3
286.229897E-3
285.757256E-3
285.585022E-3
285.186768E-3
284.893227E-3
285.122681E-3
284.747887E-3
284.765625E-3
284.833717E-3
284.855461E-3
285.326958E-3
285.081482E-3
285.230827E-3
285.161018E-3
285.326958E-3
285.402489E-3
285.076332E-3
285.401344E-3
285.220528E-3
285.413933E-3
285.672569E-3
285.361862E-3
285.423660E-3
285.496902E-3
285.254288E-3
285.597038E-3
285.305214E-3
285.384178E-3
285.518646E-3
285.500908E-3
285.850525E-3
285.448837E-3
285.576439E-3
285.489464E-3
285.620499E-3
285.830498E-3
285.542679E-3
285.899162E-3
285.684013E-3
285.783005E-3
285.784721E-3
285.608482E-3
285.950661E-3
285.911751E-3
285.797310E-3
286.236763E-3
285.994720E-3
286.136627E-3
286.320877E-3
286.162376E-3
286.571503E-3
286.310577E-3
286.620712E-3
286.426735E-3
286.388969E-3
286.532021E-3
286.149216E-3
286.624146E-3
286.566353E-3
286.521721E-3
286.640167E-3
286.232758E-3
286.390686E-3
286.421585E-3
285.762405E-3
285.646820E-3
285.056877E-3
284.994507E-3
284.848595E-3
284.317589E-3
284.349632E-3
283.974266E-3
284.087563E-3
283.934212E-3
283.875847E-3
284.267235E-3
284.010315E-3
284.702682E-3
284.533882E-3
284.410858E-3
284.533882E-3
284.282112E-3
284.526443E-3
284.603119E-3
284.632301E-3
284.908676E-3
284.667778E-3
284.650040E-3
284.655762E-3
284.519005E-3
284.825134E-3
284.641457E-3
284.921265E-3
284.881783E-3
284.553909E-3
284.961891E-3
284.732437E-3
285.076904E-3
285.098076E-3
285.063744E-3
285.292053E-3
285.132980E-3
285.087776E-3
285.284042E-3
285.313797E-3
285.510063E-3
285.364151E-3
285.361862E-3
285.496902E-3
285.500908E-3
285.841942E-3
285.669708E-3
286.098289E-3
286.080551E-3
285.752106E-3
286.040497E-3
285.839653E-3
285.980988E-3
286.011887E-3
286.018753E-3
286.090279E-3
285.727501E-3
286.095428E-3
285.912895E-3
285.762405E-3
285.973549E-3
285.944366E-3
285.970116E-3
285.877991E-3
285.551834E-3
285.567856E-3
284.846878E-3
284.596825E-3
284.449768E-3
284.030914E-3
284.115601E-3
283.555984E-3
283.761406E-3
283.604050E-3
283.519363E-3
283.857536E-3
283.809471E-3
284.050369E-3
284.139061E-3
284.236908E-3
284.473228E-3
284.288406E-3
284.319305E-3
284.285545E-3
284.396553E-3
284.723854E-3
284.448051E-3
284.491539E-3
284.826851E-3
284.445763E-3
284.902382E-3
284.464645E-3
284.585381E-3
284.759331E-3
284.693527E-3
285.277748E-3
284.960175E-3
285.102081E-3
285.190201E-3
285.225105E-3
285.439110E-3
285.389900E-3
285.287476E-3
285.369301E-3
285.356712E-3
285.621071E-3
285.191345E-3
285.318375E-3
285.692596E-3
285.542679E-3
286.108589E-3
285.719490E-3
285.898018E-3
286.045074E-3
285.801315E-3
285.932922E-3
285.757828E-3
286.090279E-3
286.145782E-3
286.241913E-3
286.470795E-3
286.150360E-3
286.064529E-3
286.463356E-3
286.310005E-3
286.564064E-3
286.336327E-3
286.272240E-3
286.482239E-3
286.313438E-3
286.567497E-3
286.259079E-3
286.327744E-3
285.906601E-3
285.353279E-3
285.325241E-3
284.786224E-3
284.922409E-3
284.937286E-3
284.623146E-3
284.889221E-3
284.732437E-3
284.697533E-3
285.091782E-3
284.994507E-3
285.363007E-3
285.422516E-3
285.439110E-3
285.544968E-3
285.333252E-3
285.601044E-3
285.390472E-3
285.800743E-3
285.878563E-3
285.760689E-3
285.924339E-3
285.737801E-3
285.889435E-3
286.043358E-3
285.881996E-3
286.048508E-3
285.978127E-3
286.011887E-3
286.450768E-3
286.133766E-3
286.308861E-3
286.351204E-3
286.224747E-3
286.571503E-3
286.301994E-3
286.570930E-3
286.375237E-3
286.467934E-3
286.701393E-3
286.541176E-3
286.750603E-3
286.522865E-3
286.840439E-3
286.933708E-3
286.838150E-3
287.023544E-3
286.876488E-3
286.841011E-3
287.239838E-3
286.914253E-3
286.845016E-3
286.925125E-3
286.841583E-3
287.077904E-3
286.803246E-3
286.892509E-3
286.667061E-3
286.944580E-3
287.240410E-3
286.818123E-3
286.964607E-3
286.789513E-3
286.700249E-3
286.645317E-3
286.112595E-3
285.977554E-3
285.569572E-3
285.276031E-3
285.087776E-3
284.817123E-3
284.842873E-3
284.767342E-3
284.429741E-3
284.739304E-3
284.615707E-3
284.998512E-3
285.259438E-3
285.258865E-3
285.570717E-3
285.258293E-3
285.490036E-3
285.288620E-3
285.446548E-3
285.583305E-3
285.440826E-3
285.863113E-3
285.540962E-3
285.451126E-3
285.789871E-3
285.581589E-3
285.875702E-3
285.871124E-3
285.768127E-3
286.034775E-3
285.667419E-3
285.964966E-3
286.310005E-3
286.096001E-3
286.232758E-3
285.962677E-3
286.266518E-3
286.136627E-3
286.156654E-3
286.340332E-3
285.979271E-3
286.443329E-3
286.308289E-3
286.327171E-3
286.559486E-3
286.281967E-3
286.439323E-3
286.646461E-3
286.682510E-3
286.819839E-3
286.550903E-3
286.653328E-3
286.787796E-3
286.710548E-3
286.943436E-3
286.709976E-3
287.058449E-3
286.628723E-3
286.439896E-3
286.744308E-3
286.420441E-3
286.855888E-3
286.887932E-3
286.698532E-3
286.824989E-3
286.439896E-3
286.482811E-3
286.276245E-3
285.831642E-3
285.570717E-3
285.103226E-3
285.083199E-3
284.884071E-3
284.552765E-3
284.761047E-3
284.456635E-3
284.708405E-3
284.651184E-3
284.372520E-3
284.834862E-3
284.622574E-3
284.775925E-3
284.683228E-3
284.671211E-3
284.893799E-3
284.747314E-3
285.010529E-3
285.098076E-3
285.042000E-3
285.121536E-3
284.995651E-3
284.882927E-3
284.898949E-3
284.762764E-3
284.934425E-3
284.786797E-3
284.881210E-3
284.795952E-3
284.695816E-3
284.922409E-3
284.588814E-3
284.802246E-3
284.879494E-3
284.898949E-3
285.107803E-3
284.965897E-3
285.161591E-3
285.070038E-3
285.140991E-3
285.440254E-3
285.269165E-3
285.520935E-3
285.907173E-3
285.577583E-3
285.891151E-3
285.690308E-3
285.731506E-3
285.979271E-3
285.717773E-3
286.133194E-3
285.888863E-3
286.103439E-3
286.133194E-3
286.012459E-3
286.361504E-3
285.891724E-3
286.225319E-3
286.152649E-3
285.968399E-3
286.303711E-3
286.141205E-3
286.204147E-3
286.224747E-3
286.111450E-3
286.220741E-3
285.753250E-3
285.535240E-3
285.230827E-3
284.709549E-3
284.941292E-3
284.429169E-3
284.135628E-3
284.346771E-3
283.983994E-3
284.413147E-3
284.081841E-3
284.218025E-3
284.506989E-3
284.503555E-3
284.832573E-3
284.464645E-3
284.615707E-3
284.534454E-3
284.639168E-3
284.889793E-3
284.670067E-3
284.713554E-3
284.991646E-3
284.806252E-3
285.112381E-3
284.922981E-3
284.898376E-3
285.130692E-3
284.948158E-3
285.289192E-3
284.953880E-3
285.342407E-3
285.405922E-3
285.165024E-3
285.492325E-3
285.282326E-3
285.312080E-3
285.564995E-3
285.355568E-3
285.647964E-3
285.557556E-3
285.725784E-3
285.843658E-3
285.725784E-3
285.871696E-3
285.708046E-3
285.948372E-3
286.309433E-3
285.891151E-3
286.249924E-3
286.025620E-3
285.921478E-3
286.474228E-3
286.148643E-3
286.517143E-3
286.363792E-3
286.478806E-3
286.578369E-3
286.293983E-3
286.439323E-3
286.110306E-3
286.403275E-3
286.628723E-3
286.347771E-3
286.686516E-3
286.618996E-3
286.569214E-3
286.815262E-3
286.296844E-3
286.082268E-3
285.659409E-3
285.256004E-3
285.459709E-3
284.951019E-3
284.847450E-3
284.562492E-3
284.616280E-3
284.949875E-3
284.681511E-3
285.044289E-3
284.987640E-3
285.307503E-3
285.708046E-3
285.285759E-3
285.330391E-3
285.088348E-3
285.451126E-3
285.673141E-3
285.516930E-3
285.682869E-3
285.644531E-3
285.514641E-3
285.861397E-3
285.597038E-3
285.796165E-3
285.864258E-3
285.997581E-3
286.393547E-3
286.068535E-3
286.275673E-3
286.048508E-3
286.275673E-3
286.443329E-3
286.228752E-3
286.629868E-3
286.533737E-3
286.813545E-3
287.150002E-3
287.288475E-3
287.788582E-3
287.993431E-3
287.900162E-3
288.290977E-3
288.059807E-3
288.219452E-3
288.324165E-3
288.312721E-3
288.475800E-3
288.137627E-3
288.328171E-3
288.047791E-3
288.016891E-3
288.260078E-3
287.929916E-3
288.151932E-3
287.821198E-3
287.740517E-3
287.873840E-3
287.531090E-3
287.652969E-3
287.634659E-3
287.600899E-3
287.900734E-3
287.693596E-3
287.783432E-3
287.773132E-3
287.479019E-3
287.301636E-3
286.666489E-3
286.663055E-3
286.269379E-3
286.005020E-3
286.190414E-3
285.734940E-3
286.026764E-3
285.896873E-3
285.841942E-3
286.149216E-3
285.833931E-3
286.157227E-3
286.347198E-3
286.561775E-3
286.762619E-3
286.629868E-3
286.836433E-3
286.964607E-3
286.855888E-3
287.026405E-3
286.633873E-3
286.939430E-3
286.996651E-3
286.740875E-3
287.061310E-3
286.652184E-3
