Notes :


2023-11-04 ¿ÀÀü 12:30:14
Volts
Ch : LED 2,
361.113167E-3
360.940361E-3
361.295700E-3
361.083984E-3
361.495399E-3
361.469650E-3
361.478806E-3
361.901665E-3
361.633873E-3
361.883926E-3
361.633301E-3
361.517715E-3
361.791801E-3
361.340332E-3
361.571503E-3
361.391830E-3
361.450195E-3
361.483955E-3
361.332893E-3
361.513138E-3
361.595535E-3
361.513710E-3
361.867905E-3
361.573792E-3
361.728287E-3
361.783791E-3
361.544037E-3
361.908531E-3
361.568642E-3
361.754036E-3
361.642456E-3
361.384392E-3
361.638451E-3
361.387825E-3
361.881638E-3
361.586380E-3
361.498260E-3
361.670494E-3
361.164665E-3
361.037636E-3
360.441399E-3
359.845161E-3
359.436607E-3
358.721924E-3
358.460426E-3
358.157730E-3
357.845306E-3
357.881927E-3
357.533455E-3
357.764626E-3
357.857323E-3
357.650185E-3
358.151436E-3
358.012962E-3
358.307648E-3
358.415794E-3
358.547974E-3
359.184265E-3
359.172249E-3
359.761620E-3
359.667778E-3
359.808540E-3
360.226822E-3
359.986496E-3
360.401917E-3
360.405922E-3
360.458565E-3
360.627937E-3
360.396767E-3
360.523796E-3
360.738373E-3
360.447693E-3
360.806465E-3
360.663986E-3
361.211586E-3
361.225319E-3
361.000443E-3
361.514854E-3
361.368370E-3
361.826134E-3
361.898232E-3
361.729431E-3
362.200928E-3
361.920547E-3
362.203789E-3
362.009811E-3
362.150002E-3
362.301064E-3
362.163162E-3
362.490463E-3
362.495613E-3
362.460709E-3
362.929344E-3
362.827492E-3
363.111305E-3
363.285828E-3
362.965965E-3
363.099861E-3
362.829208E-3
363.023186E-3
363.097000E-3
362.767982E-3
363.235474E-3
362.889862E-3
363.274384E-3
363.170815E-3
363.092422E-3
363.436317E-3
363.237762E-3
363.676071E-3
363.744164E-3
363.620567E-3
363.727570E-3
363.299561E-3
363.051796E-3
362.721062E-3
361.966324E-3
361.709976E-3
360.853386E-3
360.634232E-3
360.430527E-3
359.825706E-3
359.993362E-3
359.654617E-3
359.841728E-3
360.051727E-3
359.898949E-3
360.354996E-3
360.127831E-3
360.469437E-3
360.455132E-3
360.518074E-3
360.903740E-3
360.739517E-3
361.134911E-3
361.137772E-3
361.072540E-3
361.416435E-3
361.245346E-3
361.292839E-3
361.475372E-3
361.177826E-3
361.557770E-3
361.264229E-3
361.409569E-3
361.644173E-3
361.186409E-3
361.626434E-3
361.459351E-3
361.895943E-3
361.932564E-3
361.778641E-3
362.292480E-3
361.956596E-3
362.425232E-3
362.358284E-3
362.487030E-3
362.796593E-3
362.396049E-3
362.794876E-3
362.872124E-3
362.764549E-3
363.079834E-3
362.876129E-3
363.109589E-3
363.215446E-3
363.100433E-3
363.550186E-3
363.209152E-3
363.464355E-3
363.632011E-3
363.442612E-3
363.863182E-3
363.529587E-3
363.859177E-3
363.764763E-3
363.540459E-3
363.978767E-3
363.489532E-3
363.948441E-3
363.793373E-3
363.749886E-3
364.082336E-3
363.602257E-3
363.973618E-3
364.039993E-3
363.959312E-3
364.338684E-3
363.958168E-3
363.965607E-3
363.980484E-3
363.257790E-3
363.222885E-3
362.360573E-3
362.139130E-3
361.734581E-3
360.981560E-3
360.908890E-3
360.240555E-3
360.606766E-3
360.408783E-3
360.378456E-3
360.812759E-3
360.626793E-3
361.077690E-3
361.232185E-3
361.296272E-3
361.821556E-3
361.621284E-3
361.921692E-3
362.224388E-3
361.976051E-3
362.413216E-3
362.030411E-3
362.126541E-3
362.148857E-3
361.918259E-3
362.237549E-3
361.867332E-3
362.247849E-3
362.142563E-3
361.905098E-3
362.317085E-3
362.081909E-3
362.372017E-3
362.493896E-3
362.465858E-3
362.776566E-3
362.567711E-3
362.777710E-3
362.929344E-3
362.685585E-3
362.999153E-3
362.753105E-3
362.954521E-3
363.107300E-3
362.794304E-3
363.299561E-3
363.008308E-3
363.327026E-3
363.546181E-3
363.305283E-3
363.833427E-3
363.650894E-3
363.955307E-3
363.839722E-3
363.963318E-3
364.205933E-3
363.844872E-3
363.962173E-3
364.081192E-3
364.019394E-3
364.312363E-3
363.991356E-3
364.161873E-3
364.577293E-3
364.240837E-3
364.637947E-3
364.384460E-3
364.536095E-3
364.671707E-3
364.496040E-3
364.950943E-3
364.477730E-3
364.515495E-3
364.227104E-3
363.648033E-3
363.530731E-3
362.670708E-3
362.384033E-3
361.890221E-3
361.391830E-3
361.353493E-3
360.929489E-3
360.925484E-3
361.200714E-3
361.045647E-3
361.445618E-3
361.352348E-3
361.624146E-3
361.963463E-3
361.743164E-3
362.267876E-3
362.106514E-3
362.548256E-3
362.716484E-3
362.497330E-3
362.844086E-3
362.549400E-3
362.852669E-3
362.612343E-3
362.474442E-3
362.724495E-3
362.214088E-3
362.321663E-3
362.311363E-3
362.236977E-3
362.648964E-3
362.266731E-3
362.458420E-3
362.767410E-3
362.550545E-3
363.042641E-3
362.768555E-3
362.932205E-3
363.066101E-3
362.939072E-3
363.212013E-3
362.714767E-3
362.953949E-3
362.872696E-3
362.844658E-3
363.129616E-3
362.790298E-3
363.038063E-3
363.177109E-3
363.124466E-3
363.468361E-3
363.256073E-3
363.443756E-3
363.817406E-3
363.546181E-3
363.808823E-3
363.508415E-3
363.584518E-3
363.732719E-3
363.498688E-3
363.805962E-3
363.233757E-3
363.516426E-3
363.726425E-3
363.642883E-3
363.930130E-3
363.547897E-3
363.731575E-3
363.911247E-3
363.737297E-3
364.077759E-3
363.746452E-3
363.547325E-3
363.553619E-3
362.755966E-3
362.678146E-3
361.824417E-3
361.510277E-3
361.203575E-3
360.557556E-3
360.637093E-3
359.881210E-3
359.929848E-3
360.005951E-3
359.941292E-3
360.433388E-3
360.053444E-3
360.381317E-3
360.872841E-3
360.890007E-3
361.225319E-3
360.932922E-3
361.030769E-3
361.513710E-3
361.304283E-3
361.690521E-3
361.321449E-3
361.430168E-3
361.728859E-3
361.538315E-3
361.782646E-3
361.277390E-3
361.444473E-3
361.391830E-3
361.330032E-3
361.524010E-3
361.148071E-3
361.318016E-3
361.594391E-3
361.650467E-3
361.965752E-3
361.794662E-3
361.905098E-3
362.298203E-3
362.139702E-3
362.531662E-3
361.977768E-3
362.216377E-3
362.397766E-3
362.184906E-3
362.587738E-3
362.081337E-3
362.388039E-3
362.592316E-3
362.610626E-3
362.949944E-3
362.910461E-3
362.809181E-3
363.117599E-3
362.945938E-3
363.141632E-3
362.784576E-3
362.714195E-3
363.179970E-3
362.817192E-3
363.090706E-3
362.565422E-3
362.808609E-3
363.135338E-3
362.844658E-3
363.213730E-3
362.972260E-3
363.125038E-3
363.407135E-3
363.159370E-3
363.404846E-3
363.163376E-3
362.782860E-3
362.846947E-3
362.178612E-3
362.051010E-3
361.237907E-3
360.871696E-3
360.743523E-3
360.087776E-3
360.090065E-3
359.465218E-3
359.687233E-3
359.979057E-3
359.795380E-3
360.186768E-3
359.973907E-3
360.344124E-3
360.737228E-3
360.479164E-3
360.822487E-3
360.851097E-3
360.924339E-3
361.449051E-3
361.322021E-3
361.697388E-3
361.633873E-3
361.558914E-3
361.968040E-3
361.627579E-3
361.885071E-3
361.552048E-3
361.711121E-3
361.850166E-3
361.521721E-3
361.895943E-3
361.735725E-3
361.820412E-3
362.208939E-3
362.146568E-3
362.418938E-3
362.393188E-3
362.468719E-3
362.812614E-3
362.588882E-3
362.893867E-3
362.951088E-3
362.928772E-3
363.303566E-3
363.029480E-3
363.407707E-3
363.113022E-3
363.259506E-3
363.570786E-3
363.339043E-3
363.607407E-3
363.380814E-3
363.537598E-3
363.779640E-3
363.557053E-3
363.612556E-3
363.700676E-3
363.582802E-3
363.896370E-3
363.650894E-3
363.785362E-3
363.599396E-3
363.506126E-3
363.957024E-3
363.543892E-3
363.854599E-3
363.491249E-3
363.549614E-3
363.951302E-3
363.753891E-3
363.978767E-3
363.760757E-3
363.648033E-3
363.369370E-3
362.731361E-3
362.428093E-3
361.873055E-3
361.455345E-3
361.184692E-3
360.621643E-3
360.740089E-3
360.586166E-3
360.372162E-3
360.973549E-3
360.798454E-3
361.058235E-3
361.170387E-3
361.315155E-3
361.887932E-3
361.712265E-3
362.270737E-3
362.281609E-3
362.604332E-3
362.800598E-3
362.714195E-3
362.971115E-3
362.947083E-3
362.878418E-3
363.150787E-3
362.922478E-3
363.087845E-3
363.168526E-3
363.224030E-3
363.546181E-3
363.189125E-3
363.516426E-3
363.564491E-3
363.580513E-3
363.977623E-3
363.772202E-3
364.159012E-3
364.184189E-3
364.365005E-3
364.497757E-3
364.410782E-3
364.641953E-3
364.726067E-3
364.660263E-3
364.900589E-3
364.664268E-3
364.919472E-3
365.076828E-3
365.069962E-3
365.461349E-3
365.229034E-3
365.575790E-3
365.303993E-3
365.334320E-3
365.750885E-3
365.361786E-3
365.641022E-3
365.424156E-3
365.456200E-3
365.645599E-3
365.390396E-3
365.706825E-3
365.652466E-3
365.492821E-3
365.639305E-3
365.354919E-3
365.585518E-3
365.625572E-3
365.455627E-3
365.733719E-3
365.271950E-3
365.119171E-3
364.506340E-3
363.958168E-3
363.856316E-3
362.956810E-3
362.737083E-3
362.180901E-3
361.872482E-3
361.994934E-3
361.790085E-3
362.113380E-3
362.163162E-3
362.307358E-3
362.763977E-3
362.603760E-3
362.941933E-3
363.238907E-3
363.167953E-3
363.672638E-3
363.575935E-3
363.907242E-3
364.007378E-3
363.754463E-3
364.035988E-3
363.708687E-3
364.004517E-3
363.752174E-3
363.752747E-3
363.884354E-3
363.564491E-3
363.968468E-3
363.850021E-3
363.772774E-3
364.053726E-3
364.041710E-3
364.328384E-3
364.638519E-3
364.413643E-3
364.728928E-3
364.562988E-3
364.855957E-3
364.918900E-3
364.761543E-3
365.142632E-3
364.748955E-3
365.214729E-3
365.040779E-3
365.029335E-3
365.352631E-3
365.109444E-3
365.453911E-3
365.462494E-3
365.401268E-3
365.686798E-3
365.549469E-3
365.697098E-3
365.903664E-3
365.570641E-3
365.812111E-3
365.592957E-3
365.817261E-3
365.908813E-3
365.625000E-3
365.884781E-3
365.653610E-3
366.093636E-3
365.960312E-3
365.777206E-3
366.160583E-3
365.879059E-3
365.869904E-3
365.572357E-3
365.110016E-3
364.744949E-3
363.980484E-3
363.607979E-3
363.084984E-3
362.331963E-3
362.289619E-3
361.871910E-3
361.928558E-3
361.860466E-3
361.586380E-3
362.172318E-3
361.914825E-3
362.381744E-3
362.473297E-3
362.316513E-3
362.699890E-3
362.438393E-3
362.904167E-3
362.984276E-3
363.075829E-3
363.411140E-3
362.987137E-3
363.299561E-3
363.398552E-3
363.214874E-3
363.403702E-3
363.004303E-3
363.090134E-3
363.105583E-3
362.744522E-3
363.205147E-3
362.913322E-3
363.358498E-3
363.468361E-3
363.252068E-3
363.805962E-3
363.447189E-3
364.093208E-3
364.140129E-3
364.088631E-3
364.561844E-3
364.224815E-3
364.727783E-3
364.737511E-3
364.680862E-3
365.084267E-3
364.811897E-3
365.035057E-3
365.214157E-3
365.235901E-3
365.658188E-3
365.373230E-3
365.719414E-3
365.817261E-3
365.590668E-3
365.991211E-3
365.689659E-3
365.929413E-3
365.916252E-3
365.812111E-3
366.053009E-3
365.758896E-3
366.100502E-3
366.054726E-3
365.992928E-3
366.460419E-3
366.174889E-3
366.240692E-3
366.320801E-3
366.178322E-3
366.209793E-3
365.538597E-3
365.166092E-3
364.853668E-3
363.993645E-3
363.872910E-3
362.983131E-3
362.773132E-3
362.439537E-3
362.084770E-3
362.256432E-3
361.863327E-3
362.281609E-3
362.265015E-3
362.295341E-3
362.695885E-3
362.375450E-3
362.628365E-3
362.881279E-3
362.939644E-3
363.331032E-3
363.154793E-3
363.365364E-3
363.787651E-3
363.430595E-3
363.895226E-3
363.608551E-3
363.642883E-3
363.744736E-3
363.491821E-3
363.713837E-3
363.151360E-3
363.509560E-3
363.423729E-3
363.366508E-3
363.875771E-3
363.664055E-3
363.917542E-3
364.151001E-3
364.178467E-3
364.562416E-3
364.422798E-3
364.390182E-3
364.443970E-3
364.235115E-3
364.578438E-3
364.189911E-3
364.333534E-3
364.575005E-3
364.316368E-3
364.786720E-3
364.406204E-3
364.947510E-3
365.031624E-3
364.834785E-3
365.194702E-3
364.933777E-3
365.230751E-3
365.159798E-3
365.143204E-3
365.283394E-3
364.974976E-3
365.019035E-3
365.209007E-3
365.023041E-3
365.317726E-3
365.003014E-3
365.211296E-3
365.534019E-3
365.295982E-3
365.690231E-3
365.321732E-3
365.642738E-3
365.645599E-3
365.106010E-3
365.166092E-3
364.180756E-3
363.999939E-3
363.566208E-3
363.082695E-3
362.933350E-3
362.365150E-3
362.620354E-3
363.023758E-3
363.277245E-3
363.799667E-3
363.637733E-3
364.008522E-3
364.422798E-3
364.326096E-3
364.868546E-3
364.673424E-3
365.164948E-3
365.586090E-3
365.647888E-3
366.192055E-3
365.950012E-3
366.252136E-3
366.340828E-3
366.341972E-3
366.658974E-3
366.414070E-3
366.282463E-3
366.565704E-3
366.424942E-3
366.748238E-3
366.310501E-3
366.405487E-3
366.763115E-3
366.694450E-3
367.149925E-3
366.771698E-3
367.095566E-3
367.334175E-3
367.076683E-3
367.452049E-3
366.950226E-3
367.132759E-3
367.391968E-3
367.234039E-3
367.349625E-3
367.179680E-3
367.201996E-3
367.590523E-3
367.413712E-3
367.510986E-3
367.234612E-3
367.262077E-3
367.652321E-3
367.123032E-3
367.460060E-3
367.006302E-3
367.189980E-3
367.431450E-3
367.093277E-3
367.428017E-3
367.144775E-3
367.268372E-3
367.439461E-3
367.205429E-3
367.370796E-3
367.242622E-3
367.276382E-3
367.710686E-3
367.440033E-3
367.679787E-3
367.216873E-3
366.913605E-3
366.977692E-3
366.049004E-3
365.781212E-3
365.055084E-3
364.593315E-3
364.661980E-3
364.210510E-3
364.381599E-3
364.077187E-3
364.411354E-3
364.806747E-3
364.794731E-3
365.221596E-3
365.307999E-3
365.471077E-3
365.841293E-3
365.857887E-3
366.477013E-3
366.572571E-3
366.640091E-3
367.311287E-3
367.000580E-3
367.320442E-3
367.121315E-3
367.119026E-3
367.369080E-3
367.072105E-3
367.284393E-3
366.985130E-3
367.196846E-3
367.499542E-3
367.377663E-3
367.712402E-3
367.636299E-3
367.822266E-3
368.056297E-3
367.955017E-3
368.230247E-3
368.151855E-3
368.000221E-3
368.478584E-3
368.108368E-3
368.294907E-3
368.293762E-3
368.292046E-3
368.827057E-3
368.606186E-3
369.061661E-3
368.786430E-3
369.011879E-3
369.097710E-3
368.921471E-3
369.239616E-3
369.091988E-3
369.109726E-3
369.328308E-3
369.098854E-3
369.275665E-3
369.319153E-3
369.176102E-3
369.644165E-3
369.398689E-3
369.585800E-3
369.468498E-3
369.465637E-3
369.845581E-3
369.588089E-3
369.874763E-3
369.612694E-3
369.665909E-3
369.594955E-3
368.960381E-3
368.760109E-3
368.221664E-3
367.553329E-3
367.287827E-3
366.648674E-3
366.453552E-3
366.363716E-3
366.105080E-3
366.622925E-3
366.362000E-3
366.681862E-3
366.756821E-3
366.936493E-3
367.353058E-3
367.198563E-3
367.757034E-3
367.687798E-3
368.069458E-3
368.324089E-3
368.225098E-3
368.498611E-3
368.553543E-3
368.380165E-3
368.582153E-3
368.306351E-3
368.523216E-3
368.367004E-3
368.023109E-3
368.510056E-3
368.195343E-3
368.590164E-3
368.523788E-3
368.636513E-3
369.095421E-3
368.882561E-3
369.366074E-3
369.341469E-3
369.360924E-3
369.513130E-3
369.304848E-3
369.461060E-3
369.585800E-3
369.386673E-3
369.560051E-3
369.367218E-3
369.691658E-3
369.841003E-3
369.610977E-3
370.049286E-3
369.873619E-3
370.440102E-3
370.182610E-3
370.043564E-3
370.452690E-3
370.052719E-3
370.313072E-3
370.185471E-3
370.050430E-3
370.266724E-3
369.955444E-3
370.112228E-3
370.442963E-3
369.996071E-3
370.390892E-3
370.183754E-3
370.442963E-3
370.520210E-3
370.375443E-3
370.768547E-3
370.263863E-3
370.301628E-3
369.780922E-3
369.184685E-3
368.924332E-3
368.032837E-3
367.682076E-3
367.179108E-3
366.618919E-3
366.513634E-3
366.099930E-3
366.200638E-3
366.399193E-3
366.226959E-3
366.642380E-3
366.523933E-3
367.005730E-3
367.148209E-3
366.856956E-3
367.270088E-3
367.151642E-3
367.720413E-3
367.674637E-3
367.833710E-3
368.224525E-3
367.953873E-3
368.242264E-3
368.205070E-3
367.929268E-3
368.189621E-3
367.821121E-3
367.879486E-3
367.991066E-3
367.583084E-3
