Notes :


2023-10-30 ¿ÀÈÄ 11:16:28
Volts
Ch : LED 2,
108.124352E-3
107.714081E-3
108.267975E-3
107.985306E-3
108.138657E-3
108.620453E-3
108.379555E-3
108.748627E-3
108.456802E-3
108.381844E-3
108.601570E-3
107.795906E-3
107.701492E-3
106.294441E-3
105.064201E-3
103.899193E-3
102.139091E-3
101.221848E-3
99.720383E-3
99.110413E-3
98.893547E-3
98.241806E-3
98.799706E-3
98.613739E-3
98.907852E-3
99.358749E-3
99.353600E-3
100.039673E-3
100.106049E-3
100.536346E-3
101.103973E-3
101.007271E-3
102.091026E-3
102.407455E-3
102.852631E-3
103.682899E-3
103.839111E-3
104.603577E-3
104.651642E-3
104.645920E-3
105.088806E-3
104.395294E-3
104.715157E-3
104.262543E-3
104.005623E-3
104.374695E-3
103.935814E-3
104.246521E-3
104.157829E-3
104.625320E-3
105.139160E-3
104.930878E-3
105.711937E-3
105.693626E-3
106.060410E-3
106.595421E-3
106.494141E-3
106.871223E-3
107.006836E-3
107.266617E-3
107.764435E-3
107.413673E-3
108.086586E-3
107.757568E-3
107.698631E-3
108.174133E-3
107.712936E-3
108.188438E-3
108.172989E-3
108.119202E-3
108.658791E-3
108.376122E-3
108.949471E-3
108.675957E-3
108.979225E-3
109.609222E-3
109.311676E-3
109.733963E-3
109.514236E-3
109.482765E-3
109.719086E-3
108.676529E-3
107.992172E-3
106.848907E-3
105.564308E-3
104.802704E-3
103.305817E-3
102.802849E-3
102.321053E-3
101.806641E-3
102.139664E-3
101.862144E-3
102.421188E-3
102.660942E-3
102.917862E-3
103.764153E-3
103.759575E-3
104.607582E-3
104.928589E-3
105.152321E-3
106.183434E-3
106.222343E-3
107.087517E-3
107.688904E-3
108.190155E-3
108.887100E-3
108.687401E-3
109.267044E-3
108.934021E-3
108.931160E-3
109.268188E-3
108.796692E-3
108.889961E-3
108.743477E-3
108.569527E-3
108.990097E-3
108.554649E-3
109.055901E-3
109.090805E-3
109.160614E-3
109.754562E-3
109.590340E-3
110.337639E-3
110.400009E-3
110.544777E-3
111.198235E-3
111.080360E-3
111.704063E-3
111.820793E-3
112.011337E-3
112.662506E-3
112.497139E-3
112.893105E-3
112.888527E-3
112.793541E-3
113.322830E-3
112.850189E-3
113.234711E-3
113.234711E-3
113.282776E-3
113.619804E-3
113.436699E-3
113.768005E-3
113.876152E-3
113.442421E-3
114.107323E-3
113.856125E-3
114.142227E-3
114.404297E-3
114.266396E-3
114.665222E-3
114.254379E-3
114.226913E-3
113.549423E-3
112.317467E-3
111.725807E-3
110.024643E-3
109.276772E-3
108.339500E-3
107.369041E-3
107.326126E-3
106.624603E-3
107.088089E-3
107.236290E-3
107.229996E-3
108.134651E-3
108.216476E-3
108.959198E-3
109.590340E-3
109.628677E-3
110.397148E-3
110.342216E-3
111.009407E-3
111.450577E-3
111.474609E-3
112.390137E-3
112.469101E-3
112.981224E-3
113.165474E-3
112.748909E-3
113.172340E-3
112.584114E-3
112.904549E-3
112.696838E-3
112.401581E-3
112.726021E-3
112.314606E-3
112.807274E-3
112.932587E-3
112.651062E-3
113.322830E-3
113.005257E-3
113.363457E-3
113.705635E-3
113.471031E-3
114.104462E-3
113.984299E-3
114.392281E-3
114.787102E-3
114.361954E-3
115.102959E-3
114.847183E-3
115.397644E-3
115.474892E-3
114.982224E-3
115.332985E-3
114.765358E-3
114.965057E-3
114.978218E-3
114.480400E-3
115.033150E-3
114.713287E-3
115.152168E-3
115.450287E-3
115.240288E-3
115.848541E-3
115.592194E-3
115.829659E-3
116.123772E-3
115.715790E-3
116.270256E-3
115.946388E-3
116.229630E-3
116.277695E-3
115.186501E-3
114.753342E-3
113.416672E-3
112.235641E-3
111.061478E-3
109.495354E-3
109.045601E-3
108.149529E-3
107.893753E-3
108.235359E-3
107.878304E-3
108.625603E-3
108.705711E-3
109.189796E-3
109.763718E-3
109.768867E-3
110.627174E-3
110.750771E-3
111.055183E-3
111.851120E-3
111.861420E-3
112.770081E-3
112.980652E-3
113.024139E-3
113.532829E-3
113.157463E-3
113.687897E-3
113.412094E-3
113.342857E-3
113.321686E-3
112.775803E-3
113.064766E-3
112.915993E-3
112.997246E-3
113.095665E-3
112.756920E-3
113.204956E-3
112.973213E-3
113.279915E-3
113.695908E-3
113.505936E-3
114.161110E-3
114.138222E-3
114.372253E-3
114.736176E-3
114.686394E-3
115.315247E-3
115.129280E-3
115.434837E-3
115.906334E-3
115.520096E-3
115.927505E-3
115.631676E-3
115.479469E-3
115.667152E-3
115.100670E-3
115.453148E-3
115.091515E-3
115.323257E-3
115.484047E-3
115.190506E-3
115.811920E-3
115.538406E-3
115.782166E-3
116.149521E-3
115.841675E-3
116.276550E-3
115.955544E-3
115.956688E-3
116.013336E-3
115.572739E-3
115.326118E-3
114.103317E-3
113.081360E-3
112.293434E-3
110.774803E-3
110.369110E-3
109.246445E-3
108.651924E-3
108.679962E-3
108.082008E-3
108.524323E-3
108.338356E-3
108.736038E-3
109.413528E-3
109.289932E-3
110.081291E-3
109.859848E-3
110.103607E-3
110.813141E-3
110.749054E-3
111.745262E-3
112.050247E-3
112.612724E-3
113.172913E-3
113.179779E-3
113.850975E-3
113.686752E-3
113.519096E-3
113.651276E-3
113.048172E-3
113.271332E-3
112.860489E-3
112.674522E-3
112.909698E-3
112.438774E-3
112.938309E-3
112.789536E-3
113.016701E-3
113.570595E-3
113.283348E-3
114.086723E-3
113.951111E-3
114.076424E-3
114.616013E-3
114.328766E-3
114.822006E-3
114.753342E-3
115.211105E-3
115.616798E-3
115.350723E-3
115.884018E-3
115.744972E-3
115.800476E-3
116.333199E-3
115.726662E-3
116.143799E-3
115.697479E-3
115.664864E-3
115.972710E-3
115.419388E-3
115.780449E-3
115.552711E-3
115.768433E-3
116.239357E-3
115.913773E-3
116.464233E-3
116.178131E-3
116.567802E-3
117.023277E-3
116.674805E-3
116.868782E-3
116.235352E-3
115.547562E-3
115.064049E-3
113.456154E-3
112.594414E-3
111.365318E-3
110.289001E-3
110.115623E-3
109.248161E-3
109.376335E-3
108.976936E-3
108.962631E-3
109.837532E-3
109.582329E-3
110.207176E-3
110.549927E-3
110.797691E-3
111.703491E-3
111.525536E-3
112.082863E-3
112.345505E-3
112.798119E-3
113.683319E-3
113.520241E-3
114.271545E-3
114.363670E-3
114.214897E-3
114.563370E-3
113.966560E-3
114.186859E-3
113.843536E-3
113.425827E-3
113.720512E-3
113.243866E-3
113.694191E-3
113.470459E-3
113.413239E-3
114.050102E-3
113.596916E-3
114.119911E-3
114.266396E-3
114.399147E-3
114.986801E-3
114.859200E-3
115.449142E-3
115.535545E-3
115.764427E-3
116.401863E-3
116.194153E-3
116.741753E-3
116.709709E-3
116.600990E-3
117.208672E-3
116.670227E-3
116.907120E-3
116.857910E-3
116.614151E-3
117.112541E-3
116.818428E-3
117.267036E-3
117.376900E-3
117.228699E-3
117.852402E-3
117.589188E-3
118.068123E-3
118.038940E-3
118.112183E-3
118.517303E-3
118.088722E-3
118.630600E-3
118.536758E-3
117.951965E-3
117.893028E-3
116.843033E-3
116.225052E-3
115.172768E-3
113.638687E-3
113.099670E-3
111.803055E-3
111.536407E-3
111.193085E-3
110.707855E-3
111.479187E-3
111.238289E-3
112.058830E-3
112.728882E-3
112.533188E-3
113.454437E-3
113.358879E-3
114.127922E-3
114.431763E-3
114.392281E-3
115.256310E-3
115.188217E-3
116.023064E-3
116.448784E-3
116.392136E-3
117.105103E-3
116.612434E-3
116.824722E-3
116.878510E-3
116.282845E-3
116.523743E-3
115.778160E-3
116.069984E-3
116.083145E-3
115.727234E-3
116.421890E-3
116.143799E-3
116.519737E-3
116.967773E-3
116.802979E-3
117.485046E-3
117.349434E-3
117.910767E-3
118.168831E-3
118.002319E-3
118.685532E-3
118.481827E-3
118.999100E-3
119.025421E-3
118.708992E-3
119.326973E-3
118.883514E-3
119.250870E-3
119.242287E-3
119.078064E-3
119.684601E-3
119.251442E-3
119.640541E-3
119.942093E-3
119.383049E-3
120.160675E-3
119.772720E-3
120.023918E-3
120.071411E-3
119.594765E-3
120.298576E-3
119.996452E-3
120.365524E-3
120.229912E-3
119.509506E-3
119.285774E-3
117.955399E-3
117.372322E-3
116.316605E-3
114.759064E-3
114.331055E-3
113.202095E-3
112.958908E-3
112.835884E-3
112.572098E-3
113.373184E-3
113.434410E-3
114.011765E-3
114.563942E-3
114.526749E-3
115.417099E-3
115.514374E-3
115.899467E-3
116.470528E-3
116.381264E-3
117.410660E-3
117.360306E-3
117.709923E-3
117.733383E-3
117.355156E-3
117.756271E-3
117.301941E-3
117.379189E-3
117.360306E-3
116.821861E-3
117.322540E-3
117.043877E-3
117.063904E-3
117.189789E-3
116.910553E-3
117.471313E-3
117.218971E-3
117.301369E-3
117.888451E-3
117.687607E-3
118.390846E-3
118.428612E-3
118.718719E-3
119.138145E-3
118.825150E-3
119.377327E-3
119.176483E-3
119.443130E-3
119.517517E-3
119.048882E-3
119.622803E-3
119.187355E-3
119.398499E-3
119.418526E-3
119.102097E-3
119.448280E-3
119.132423E-3
119.313812E-3
119.594193E-3
119.434547E-3
119.984436E-3
119.651985E-3
119.776726E-3
120.113754E-3
119.850540E-3
120.336342E-3
120.129204E-3
119.808769E-3
119.617081E-3
118.301010E-3
117.930794E-3
116.238213E-3
115.290070E-3
114.631462E-3
113.424110E-3
113.358879E-3
112.775803E-3
112.696838E-3
113.021851E-3
113.077354E-3
113.787460E-3
113.785744E-3
114.431190E-3
114.982796E-3
114.863205E-3
115.828514E-3
115.763855E-3
115.933800E-3
116.687965E-3
116.598701E-3
117.443275E-3
117.262459E-3
117.466164E-3
117.816925E-3
117.306519E-3
117.706490E-3
117.091370E-3
116.813278E-3
117.106819E-3
116.540337E-3
117.006111E-3
116.507149E-3
116.568375E-3
116.936874E-3
116.746902E-3
117.442703E-3
117.243004E-3
117.188644E-3
117.831230E-3
117.692757E-3
118.511581E-3
118.373680E-3
118.575096E-3
118.999100E-3
118.935585E-3
119.230270E-3
118.999672E-3
118.850899E-3
119.361877E-3
118.705559E-3
119.222832E-3
118.848610E-3
118.717003E-3
119.112396E-3
118.520737E-3
119.183350E-3
118.910408E-3
119.020844E-3
119.533539E-3
118.917847E-3
119.412231E-3
119.248581E-3
119.199944E-3
119.736099E-3
119.328117E-3
119.563293E-3
119.135857E-3
118.560791E-3
118.018913E-3
116.512871E-3
115.796471E-3
114.479256E-3
113.607216E-3
113.391495E-3
112.443924E-3
112.561798E-3
112.461090E-3
112.647057E-3
113.285065E-3
113.319969E-3
114.032364E-3
114.124489E-3
114.483833E-3
115.290070E-3
114.925575E-3
115.579605E-3
115.649414E-3
116.090012E-3
116.811562E-3
116.716576E-3
117.399788E-3
117.137146E-3
117.103386E-3
117.513657E-3
116.831017E-3
116.874504E-3
116.593552E-3
116.381264E-3
116.544914E-3
116.104317E-3
116.282272E-3
116.223335E-3
116.257095E-3
117.043877E-3
116.780663E-3
117.326546E-3
117.481041E-3
117.453003E-3
118.224907E-3
118.097878E-3
118.355370E-3
118.452644E-3
118.635750E-3
119.199371E-3
118.926430E-3
119.450569E-3
119.272041E-3
119.177628E-3
119.661713E-3
119.073486E-3
119.147301E-3
119.060326E-3
118.805122E-3
119.206810E-3
118.843460E-3
119.129562E-3
119.079781E-3
119.034004E-3
119.749260E-3
119.405365E-3
119.846535E-3
119.799614E-3
119.574738E-3
120.276260E-3
119.565010E-3
119.432259E-3
118.694687E-3
117.840958E-3
117.237854E-3
115.651131E-3
115.160179E-3
114.112473E-3
113.251877E-3
113.476181E-3
112.494278E-3
112.822151E-3
113.059616E-3
113.120842E-3
113.869286E-3
113.869286E-3
114.666939E-3
115.070343E-3
115.041161E-3
115.776443E-3
115.698051E-3
116.604996E-3
116.917419E-3
116.848755E-3
117.619514E-3
117.359734E-3
117.945671E-3
117.854118E-3
117.485619E-3
117.872429E-3
117.181206E-3
117.466736E-3
117.312241E-3
117.020416E-3
117.361450E-3
117.012978E-3
117.531395E-3
117.787170E-3
117.887306E-3
118.459511E-3
118.402290E-3
119.103241E-3
119.552994E-3
119.255447E-3
119.943237E-3
119.747543E-3
120.295143E-3
120.587540E-3
120.281410E-3
120.876503E-3
120.303154E-3
120.724869E-3
120.490837E-3
120.284843E-3
120.673943E-3
120.066261E-3
120.447350E-3
120.666504E-3
120.135498E-3
120.780945E-3
120.236206E-3
120.619583E-3
120.693970E-3
120.546341E-3
121.040726E-3
120.598984E-3
120.856476E-3
120.986938E-3
120.476532E-3
120.938873E-3
120.025635E-3
119.614792E-3
118.914986E-3
117.379761E-3
116.958046E-3
115.476036E-3
115.070343E-3
114.353943E-3
113.704491E-3
114.372253E-3
113.837242E-3
114.527321E-3
115.110970E-3
114.911842E-3
116.013908E-3
116.200447E-3
116.741753E-3
117.247581E-3
117.340851E-3
118.060684E-3
118.240929E-3
118.813133E-3
119.028854E-3
118.682671E-3
119.157600E-3
118.757057E-3
118.949318E-3
118.986511E-3
118.432617E-3
118.772507E-3
118.175125E-3
118.391418E-3
118.301010E-3
117.955971E-3
118.396568E-3
118.132210E-3
118.444061E-3
118.708420E-3
118.601990E-3
119.280052E-3
118.988800E-3
119.477463E-3
120.050812E-3
119.819641E-3
120.649338E-3
120.436478E-3
120.615005E-3
121.003532E-3
120.543480E-3
121.167183E-3
120.843887E-3
120.884514E-3
120.981789E-3
120.588112E-3
121.139717E-3
120.714569E-3
120.898819E-3
121.191216E-3
120.987511E-3
121.605492E-3
121.338844E-3
121.697044E-3
122.045517E-3
121.626663E-3
122.332191E-3
122.057533E-3
122.111320E-3
122.019196E-3
120.869637E-3
120.514297E-3
119.361305E-3
118.512726E-3
117.533112E-3
116.260529E-3
116.022491E-3
115.287209E-3
115.221977E-3
115.536118E-3
115.280342E-3
116.237640E-3
116.460228E-3
116.896820E-3
117.779160E-3
117.857552E-3
118.512726E-3
118.468666E-3
118.828583E-3
119.470596E-3
119.313812E-3
120.105743E-3
119.820213E-3
119.840240E-3
120.273399E-3
119.613647E-3
120.046234E-3
119.451714E-3
119.220543E-3
119.320107E-3
118.830299E-3
119.443130E-3
118.937874E-3
119.009399E-3
119.425392E-3
119.274330E-3
120.169830E-3
120.095444E-3
120.241928E-3
120.826721E-3
120.715141E-3
121.638680E-3
121.521378E-3
121.586609E-3
122.171974E-3
121.820641E-3
122.188568E-3
121.821785E-3
121.719360E-3
121.963120E-3
121.415520E-3
121.845245E-3
121.545982E-3
121.389198E-3
121.810341E-3
121.433258E-3
121.976280E-3
121.950531E-3
121.973419E-3
122.340202E-3
122.110748E-3
122.779083E-3
122.669792E-3
122.787094E-3
123.528671E-3
122.720146E-3
122.819710E-3
122.098732E-3
121.254158E-3
120.865631E-3
119.152451E-3
118.615150E-3
117.435265E-3
116.803551E-3
116.937447E-3
116.234207E-3
116.803551E-3
116.610146E-3
116.966629E-3
117.850685E-3
117.799187E-3
118.560219E-3
118.634605E-3
118.998528E-3
119.642258E-3
119.478607E-3
120.192146E-3
120.305443E-3
120.858765E-3
121.410370E-3
121.134567E-3
121.741104E-3
121.257019E-3
121.028137E-3
121.527672E-3
120.689392E-3
120.890236E-3
120.554352E-3
120.393562E-3
120.812988E-3
120.336914E-3
120.827293E-3
120.932007E-3
121.047592E-3
121.678734E-3
121.337128E-3
122.111893E-3
122.124481E-3
122.213745E-3
122.912979E-3
122.536469E-3
122.935295E-3
123.116684E-3
123.074913E-3
123.449707E-3
123.004532E-3
123.224258E-3
123.072624E-3
122.932434E-3
123.331261E-3
122.800827E-3
123.209953E-3
123.093224E-3
122.890091E-3
123.536682E-3
123.208809E-3
123.656273E-3
123.549843E-3
123.584747E-3
124.095726E-3
123.599625E-3
123.977280E-3
123.826790E-3
123.156738E-3
123.008537E-3
121.631813E-3
120.928574E-3
119.928360E-3
118.438339E-3
118.025780E-3
116.789818E-3
116.713142E-3
116.370392E-3
116.187859E-3
116.780090E-3
116.475105E-3
117.162323E-3
117.560005E-3
117.649841E-3
118.484116E-3
118.231201E-3
118.900108E-3
119.246292E-3
119.052887E-3
119.785881E-3
119.693756E-3
120.558357E-3
120.733452E-3
120.646477E-3
121.143150E-3
120.667076E-3
120.880508E-3
120.564651E-3
119.987297E-3
120.336914E-3
119.579887E-3
119.912338E-3
119.856834E-3
119.549561E-3
119.975281E-3
119.691467E-3
120.235634E-3
120.561218E-3
120.384407E-3
121.174049E-3
