Notes :


2023-10-30 ¿ÀÈÄ 11:03:28
Volts
Ch : LED 2,
339.689255E-3
340.388489E-3
340.071487E-3
341.148376E-3
340.526390E-3
340.575027E-3
340.668869E-3
339.824295E-3
340.220833E-3
339.399719E-3
339.034653E-3
339.417458E-3
338.537407E-3
339.390564E-3
338.687897E-3
338.762283E-3
339.190292E-3
338.671303E-3
339.725304E-3
339.317894E-3
339.696693E-3
340.423393E-3
340.080643E-3
341.012192E-3
340.222549E-3
340.449715E-3
340.885162E-3
340.187073E-3
340.860558E-3
340.132713E-3
339.854050E-3
340.653419E-3
340.043449E-3
340.662003E-3
340.066910E-3
340.136147E-3
340.653419E-3
340.076065E-3
341.024780E-3
340.708351E-3
341.247368E-3
342.257881E-3
341.956329E-3
343.139076E-3
342.870712E-3
343.012047E-3
342.758560E-3
341.088295E-3
340.617943E-3
338.657570E-3
337.115479E-3
336.387062E-3
334.489632E-3
334.525681E-3
333.456230E-3
333.163261E-3
333.642769E-3
333.098030E-3
334.145737E-3
333.887672E-3
334.147453E-3
335.107040E-3
334.776306E-3
335.714149E-3
335.440063E-3
335.947037E-3
336.915207E-3
336.784744E-3
338.096237E-3
337.964058E-3
338.483047E-3
339.150810E-3
338.306808E-3
338.976288E-3
338.116264E-3
337.540054E-3
337.964058E-3
336.676025E-3
337.240219E-3
336.471176E-3
336.634827E-3
337.326050E-3
336.754990E-3
337.843895E-3
337.688255E-3
337.904549E-3
339.366531E-3
338.876724E-3
340.017128E-3
339.776230E-3
340.171051E-3
340.980721E-3
340.516090E-3
341.370392E-3
340.948105E-3
340.862274E-3
341.515160E-3
340.652847E-3
341.212463E-3
340.605927E-3
340.779877E-3
341.314316E-3
340.662575E-3
341.303444E-3
340.986443E-3
341.181564E-3
342.162323E-3
341.720009E-3
342.707634E-3
342.576599E-3
343.064117E-3
343.946457E-3
343.656921E-3
344.859695E-3
344.342995E-3
344.055176E-3
343.886948E-3
341.740036E-3
340.886307E-3
338.785744E-3
337.352943E-3
336.668015E-3
334.806061E-3
334.562874E-3
333.598137E-3
333.293152E-3
333.969498E-3
333.396149E-3
334.390640E-3
334.216690E-3
334.481621E-3
335.490417E-3
335.046959E-3
336.064911E-3
336.055756E-3
336.494637E-3
337.759209E-3
337.639618E-3
338.724518E-3
338.366318E-3
338.708496E-3
339.421463E-3
338.591194E-3
339.097595E-3
338.366890E-3
338.138580E-3
338.482475E-3
337.611580E-3
338.160324E-3
337.853622E-3
338.063049E-3
338.837814E-3
338.430977E-3
339.213753E-3
339.226341E-3
339.414597E-3
340.399933E-3
339.840317E-3
340.659142E-3
340.667152E-3
340.819931E-3
341.919708E-3
341.305733E-3
341.936302E-3
341.756630E-3
341.797829E-3
342.384338E-3
341.710281E-3
342.232132E-3
341.954613E-3
342.123985E-3
342.733955E-3
342.114258E-3
342.834091E-3
342.610359E-3
342.538261E-3
343.398857E-3
342.886734E-3
343.656921E-3
343.597412E-3
343.669510E-3
344.451714E-3
343.980789E-3
344.527817E-3
343.881798E-3
343.215179E-3
342.869568E-3
340.842247E-3
340.323830E-3
338.457298E-3
337.115479E-3
336.911201E-3
335.538483E-3
335.564232E-3
335.169983E-3
335.222626E-3
335.924721E-3
335.768509E-3
336.852264E-3
337.195015E-3
337.214470E-3
338.290215E-3
337.771797E-3
338.800621E-3
339.225769E-3
339.285851E-3
340.548134E-3
340.084076E-3
340.762711E-3
340.572739E-3
340.307808E-3
340.735817E-3
339.740753E-3
340.276909E-3
339.674950E-3
339.205170E-3
339.768791E-3
338.887596E-3
339.630890E-3
339.585114E-3
339.517021E-3
340.468597E-3
340.223694E-3
341.184998E-3
341.286850E-3
341.174698E-3
342.125702E-3
341.479111E-3
342.450142E-3
342.416954E-3
341.950035E-3
342.800903E-3
342.061615E-3
342.622948E-3
342.277908E-3
341.747475E-3
342.283630E-3
341.562653E-3
342.329979E-3
342.135429E-3
341.729736E-3
342.498207E-3
341.633034E-3
342.554283E-3
342.487907E-3
342.605209E-3
343.477249E-3
343.049240E-3
344.199944E-3
344.470024E-3
344.429398E-3
345.225334E-3
344.043159E-3
343.679810E-3
342.152596E-3
340.340996E-3
339.448357E-3
337.271118E-3
337.060547E-3
335.878372E-3
334.842110E-3
335.142517E-3
334.176636E-3
335.098457E-3
335.050964E-3
335.053253E-3
335.977364E-3
335.554504E-3
336.756134E-3
336.627388E-3
336.506081E-3
337.717438E-3
337.333488E-3
338.600922E-3
338.991165E-3
339.006615E-3
340.091515E-3
339.337921E-3
340.036583E-3
339.806557E-3
339.230919E-3
339.676666E-3
338.671303E-3
339.191437E-3
338.813782E-3
338.384628E-3
339.221191E-3
338.286209E-3
339.331627E-3
339.265823E-3
339.389992E-3
340.183640E-3
339.764214E-3
340.723228E-3
340.829086E-3
340.839958E-3
341.786957E-3
341.443062E-3
342.373466E-3
342.444420E-3
341.924858E-3
342.404938E-3
341.565514E-3
342.211533E-3
342.023277E-3
341.595840E-3
342.289352E-3
341.350365E-3
342.166901E-3
342.273331E-3
341.921425E-3
342.691040E-3
342.284203E-3
343.292999E-3
343.553352E-3
343.646049E-3
345.068550E-3
344.705772E-3
345.726013E-3
345.642471E-3
344.277763E-3
343.959618E-3
341.785240E-3
340.496063E-3
338.971710E-3
337.193298E-3
336.710930E-3
335.419464E-3
335.398293E-3
334.986877E-3
334.387207E-3
335.052109E-3
334.333992E-3
335.352516E-3
335.603142E-3
335.169411E-3
336.072350E-3
335.407448E-3
336.377335E-3
336.696053E-3
336.910629E-3
338.130569E-3
337.837601E-3
338.854408E-3
339.161682E-3
338.768005E-3
339.518166E-3
338.572884E-3
338.758278E-3
338.633537E-3
337.997818E-3
338.472748E-3
337.462807E-3
337.795258E-3
337.757492E-3
337.325478E-3
338.179779E-3
337.648201E-3
338.580894E-3
339.189720E-3
338.989449E-3
340.197945E-3
339.889526E-3
340.976143E-3
341.169548E-3
340.941811E-3
342.012978E-3
341.327477E-3
341.987801E-3
342.133713E-3
341.530037E-3
342.179489E-3
341.385269E-3
341.923714E-3
341.728020E-3
341.125488E-3
342.101669E-3
341.571236E-3
342.337990E-3
342.458153E-3
341.828156E-3
343.133354E-3
342.714500E-3
343.785095E-3
344.312096E-3
344.027710E-3
345.005035E-3
343.885803E-3
343.592834E-3
342.133713E-3
340.020561E-3
339.165115E-3
336.714363E-3
336.116982E-3
335.080719E-3
333.613014E-3
334.036446E-3
332.997894E-3
333.559799E-3
333.622169E-3
333.214188E-3
334.197807E-3
333.573532E-3
334.305954E-3
334.550285E-3
333.883095E-3
334.954262E-3
334.582901E-3
335.524178E-3
336.280632E-3
336.130714E-3
337.495995E-3
337.091446E-3
337.880516E-3
337.656784E-3
336.991310E-3
337.515450E-3
336.421394E-3
336.512375E-3
336.130142E-3
335.187149E-3
335.889816E-3
335.261536E-3
336.024284E-3
336.276627E-3
336.290932E-3
337.332344E-3
337.267113E-3
338.232994E-3
338.851547E-3
338.614082E-3
339.998817E-3
339.720154E-3
340.427399E-3
340.732384E-3
340.176201E-3
341.057968E-3
340.672874E-3
341.044235E-3
340.817070E-3
340.199661E-3
340.936661E-3
340.247726E-3
340.752983E-3
340.723228E-3
340.328407E-3
341.440773E-3
341.217613E-3
342.097092E-3
342.354012E-3
341.903114E-3
343.083000E-3
342.872429E-3
343.499565E-3
343.445778E-3
342.172623E-3
341.901970E-3
339.990234E-3
338.771439E-3
337.184143E-3
335.137367E-3
334.636688E-3
333.126068E-3
333.063126E-3
332.601929E-3
331.670380E-3
332.540131E-3
332.229424E-3
332.828522E-3
333.396721E-3
333.229065E-3
334.243011E-3
334.025002E-3
334.517670E-3
334.859848E-3
334.715652E-3
336.082649E-3
336.020279E-3
336.854553E-3
337.263680E-3
336.884880E-3
337.767220E-3
337.100029E-3
337.269974E-3
337.119484E-3
336.202812E-3
336.680031E-3
335.927582E-3
336.335564E-3
336.234283E-3
335.971069E-3
336.985588E-3
336.848831E-3
337.274551E-3
337.957764E-3
337.751770E-3
338.863564E-3
338.768578E-3
339.292145E-3
339.495277E-3
339.316750E-3
340.530396E-3
340.328979E-3
340.971565E-3
341.239357E-3
340.476608E-3
341.199875E-3
340.787888E-3
341.059113E-3
341.167259E-3
340.563011E-3
341.398430E-3
341.103745E-3
341.670227E-3
341.972351E-3
342.018700E-3
343.051529E-3
342.765427E-3
343.444061E-3
344.119835E-3
343.648911E-3
344.761276E-3
344.303513E-3
343.996811E-3
343.343353E-3
341.728020E-3
341.131210E-3
339.204025E-3
338.338280E-3
337.562370E-3
336.175919E-3
336.372757E-3
335.401726E-3
335.832024E-3
336.364746E-3
336.185074E-3
337.675667E-3
337.558937E-3
338.175201E-3
339.043236E-3
338.638115E-3
339.725304E-3
339.638901E-3
340.414810E-3
341.151810E-3
340.996742E-3
342.128563E-3
341.592979E-3
342.035866E-3
342.315674E-3
341.524887E-3
342.430115E-3
341.286850E-3
341.210175E-3
341.374969E-3
340.662575E-3
341.506004E-3
341.134644E-3
341.690826E-3
342.168045E-3
342.204094E-3
343.371391E-3
342.885590E-3
343.295860E-3
344.117546E-3
343.482971E-3
344.638824E-3
344.108963E-3
344.223404E-3
344.932365E-3
344.361877E-3
345.134354E-3
344.240570E-3
344.375038E-3
344.803047E-3
344.004250E-3
344.805908E-3
343.969345E-3
344.256592E-3
344.515228E-3
344.120407E-3
345.019341E-3
344.424248E-3
344.952393E-3
345.712852E-3
345.433617E-3
346.378899E-3
345.828438E-3
345.952606E-3
346.569443E-3
345.402145E-3
345.606422E-3
343.722725E-3
342.400360E-3
341.354370E-3
339.355087E-3
338.853264E-3
337.112617E-3
336.643982E-3
336.297798E-3
335.536766E-3
336.397934E-3
335.751343E-3
336.227989E-3
337.093735E-3
336.901474E-3
338.073921E-3
337.794113E-3
337.870216E-3
338.307953E-3
338.264465E-3
339.349365E-3
339.169693E-3
339.610863E-3
340.189934E-3
339.711571E-3
340.523529E-3
339.744186E-3
339.816856E-3
340.040588E-3
338.945389E-3
339.591980E-3
338.917351E-3
338.908195E-3
339.339638E-3
338.719940E-3
339.782524E-3
339.519310E-3
339.968491E-3
340.743828E-3
340.579033E-3
341.653633E-3
341.476822E-3
341.832161E-3
342.974281E-3
342.772865E-3
343.941879E-3
343.475533E-3
343.700409E-3
344.303513E-3
343.311882E-3
344.077492E-3
343.386841E-3
343.371391E-3
343.751907E-3
343.145370E-3
343.859482E-3
343.326759E-3
343.869781E-3
344.469452E-3
344.048309E-3
345.122337E-3
344.985580E-3
345.609283E-3
346.720505E-3
346.442413E-3
347.669220E-3
347.220039E-3
346.711922E-3
346.520805E-3
344.099808E-3
343.441772E-3
341.316605E-3
340.040588E-3
339.280128E-3
337.499428E-3
337.570953E-3
336.468887E-3
336.516380E-3
337.218475E-3
336.514664E-3
337.495422E-3
337.237930E-3
337.409019E-3
338.298798E-3
337.715149E-3
338.492775E-3
338.390923E-3
338.971710E-3
340.094948E-3
339.901543E-3
341.128349E-3
340.675735E-3
340.966988E-3
341.704559E-3
340.974998E-3
341.699982E-3
340.947533E-3
340.577888E-3
340.764427E-3
339.581680E-3
340.164185E-3
339.495277E-3
339.371681E-3
340.050316E-3
339.561653E-3
340.520096E-3
340.335274E-3
340.750694E-3
341.831017E-3
341.447067E-3
342.482758E-3
342.382622E-3
342.573738E-3
343.425751E-3
342.763710E-3
343.480110E-3
343.387413E-3
343.477249E-3
343.922424E-3
342.982292E-3
343.537331E-3
342.888451E-3
342.847824E-3
343.292999E-3
342.625237E-3
343.293571E-3
343.072128E-3
343.146515E-3
344.352722E-3
343.896103E-3
344.834518E-3
344.927216E-3
345.154953E-3
346.401215E-3
345.645332E-3
346.046448E-3
345.164108E-3
344.209099E-3
343.204880E-3
340.850258E-3
339.887810E-3
338.182640E-3
337.181854E-3
337.025070E-3
335.702705E-3
336.007118E-3
335.790253E-3
335.707855E-3
336.575890E-3
336.072922E-3
336.681747E-3
336.772728E-3
336.854553E-3
337.460518E-3
336.947250E-3
338.009262E-3
338.127136E-3
338.547134E-3
339.885521E-3
339.459229E-3
340.283203E-3
340.445709E-3
340.439415E-3
340.701485E-3
339.723015E-3
339.978218E-3
339.159966E-3
338.733673E-3
338.689041E-3
337.898254E-3
338.603210E-3
338.515091E-3
338.288498E-3
339.569092E-3
339.225197E-3
340.215683E-3
340.604782E-3
340.799904E-3
341.893959E-3
341.554070E-3
342.480469E-3
342.467308E-3
342.632103E-3
343.386841E-3
342.641258E-3
343.488693E-3
343.183136E-3
342.679596E-3
343.217468E-3
342.336845E-3
342.736244E-3
342.494774E-3
342.371178E-3
343.153954E-3
342.505074E-3
343.338776E-3
343.307877E-3
343.306732E-3
344.408798E-3
343.878365E-3
344.874001E-3
345.231056E-3
345.033073E-3
345.728874E-3
344.536972E-3
344.435120E-3
342.950249E-3
341.336632E-3
340.462303E-3
338.278198E-3
337.830734E-3
336.610794E-3
335.608864E-3
335.736465E-3
334.801483E-3
335.570526E-3
335.798264E-3
335.740471E-3
336.816216E-3
336.370468E-3
337.656784E-3
337.829018E-3
337.665367E-3
338.635254E-3
338.355446E-3
339.797974E-3
340.075493E-3
340.505219E-3
341.289711E-3
340.652847E-3
341.676521E-3
341.385269E-3
340.544128E-3
340.917778E-3
339.809990E-3
340.141296E-3
339.879799E-3
339.488411E-3
340.318108E-3
339.679527E-3
340.427399E-3
340.464020E-3
340.446281E-3
341.665077E-3
341.207314E-3
342.472458E-3
342.682457E-3
342.661858E-3
343.835449E-3
343.414307E-3
344.374466E-3
344.315529E-3
344.116974E-3
344.605064E-3
343.847466E-3
344.498062E-3
344.229698E-3
343.614006E-3
344.327545E-3
343.330765E-3
343.992233E-3
344.309235E-3
343.952179E-3
344.816208E-3
344.352150E-3
345.200157E-3
345.505142E-3
345.537186E-3
346.349716E-3
345.968056E-3
347.010040E-3
346.892166E-3
346.117401E-3
346.120834E-3
344.028282E-3
343.508148E-3
342.025566E-3
340.541840E-3
340.320969E-3
338.797188E-3
338.979721E-3
338.809776E-3
338.560295E-3
339.508438E-3
339.175987E-3
340.331268E-3
340.754700E-3
340.503502E-3
341.552925E-3
341.053963E-3
342.284203E-3
342.749977E-3
342.629814E-3
343.963623E-3
343.537903E-3
344.385910E-3
344.445419E-3
344.019127E-3
344.685173E-3
343.814278E-3
344.313812E-3
343.927574E-3
343.120193E-3
343.929863E-3
343.243217E-3
343.873787E-3
344.174767E-3
343.742752E-3
344.879150E-3
344.536400E-3
345.357513E-3
345.654488E-3
345.319176E-3
346.592903E-3
346.275330E-3
347.047234E-3
347.393990E-3
346.642685E-3
347.544479E-3
346.736526E-3
347.393990E-3
347.097588E-3
346.438980E-3
347.244644E-3
346.503067E-3
347.133064E-3
346.977997E-3
346.570015E-3
347.543335E-3
346.987152E-3
347.577095E-3
347.924995E-3
347.494698E-3
348.654556E-3
348.205948E-3
349.081993E-3
349.354362E-3
348.837662E-3
349.382973E-3
348.025703E-3
347.753334E-3
346.303940E-3
344.008827E-3
343.418884E-3
341.364670E-3
341.013336E-3
340.431404E-3
339.248657E-3
340.057755E-3
339.546204E-3
340.304947E-3
340.478325E-3
340.284920E-3
341.444206E-3
340.902901E-3
341.462517E-3
341.439629E-3
341.055107E-3
342.378616E-3
342.202377E-3
343.280983E-3
343.582535E-3
343.260956E-3
344.205666E-3
343.415451E-3
343.793106E-3
343.573952E-3
342.819214E-3
343.300438E-3
342.407799E-3
342.773437E-3
342.524529E-3
342.035866E-3
342.857552E-3
342.361450E-3
343.192291E-3
343.719292E-3
343.449211E-3
344.874573E-3
345.039368E-3
345.828438E-3
346.537971E-3
346.227837E-3
347.196579E-3
346.868706E-3
347.460365E-3
347.369957E-3
346.582031E-3
347.357941E-3
346.544838E-3
346.855545E-3
346.639252E-3
346.193504E-3
346.721649E-3
346.410942E-3
346.802902E-3
347.047234E-3
346.755409E-3
347.806549E-3
347.588539E-3
348.327255E-3
348.846817E-3
348.910904E-3
349.828720E-3
349.368668E-3
349.006462E-3
347.904396E-3
345.779228E-3
344.841385E-3
342.488480E-3
341.506577E-3
340.365601E-3
338.782883E-3
338.743973E-3
337.787247E-3
337.948036E-3
338.110542E-3
337.821579E-3
338.717651E-3
338.274765E-3
338.911057E-3
339.077568E-3
338.714218E-3
339.661217E-3
339.440918E-3
340.017128E-3
341.103172E-3
340.818787E-3
341.879654E-3
341.888809E-3
342.288208E-3
342.477036E-3
341.654778E-3
342.185783E-3
