Notes :


2023-11-05 ¿ÀÈÄ 2:53:34
Volts
Ch : LED 2,
375.690651E-3
375.780487E-3
375.497818E-3
375.676918E-3
375.467491E-3
375.543594E-3
375.529861E-3
375.486946E-3
375.809669E-3
375.637436E-3
375.740433E-3
375.867462E-3
375.740433E-3
375.960732E-3
375.785065E-3
375.772476E-3
375.807381E-3
375.599098E-3
375.761604E-3
375.666046E-3
375.723839E-3
375.840569E-3
375.674057E-3
375.945854E-3
375.706100E-3
375.722694E-3
375.791359E-3
375.648308E-3
375.957870E-3
375.703239E-3
375.754738E-3
375.923538E-3
375.775337E-3
376.020241E-3
375.816536E-3
375.910950E-3
376.018524E-3
375.821114E-3
375.968742E-3
375.803947E-3
375.890350E-3
375.931549E-3
375.754738E-3
375.838852E-3
375.398254E-3
375.075531E-3
374.783707E-3
374.245834E-3
374.166870E-3
373.643303E-3
373.405838E-3
373.340607E-3
373.095131E-3
373.361778E-3
373.210144E-3
373.279953E-3
373.533440E-3
373.399544E-3
373.686790E-3
373.666191E-3
373.838997E-3
374.173737E-3
374.074173E-3
374.386597E-3
374.143982E-3
374.182320E-3
374.459267E-3
374.163437E-3
374.417496E-3
374.287033E-3
374.257851E-3
374.442101E-3
374.279594E-3
374.505043E-3
374.327660E-3
374.401474E-3
374.589157E-3
374.428368E-3
374.621773E-3
374.513626E-3
374.657249E-3
374.922752E-3
374.685287E-3
375.013161E-3
375.010872E-3
375.181961E-3
375.350189E-3
375.204849E-3
375.482941E-3
375.247192E-3
375.279236E-3
375.506973E-3
375.460052E-3
375.722122E-3
375.684357E-3
375.724983E-3
375.945282E-3
375.882339E-3
376.193047E-3
376.156425E-3
376.106644E-3
376.260567E-3
376.080894E-3
376.190758E-3
376.135826E-3
376.409912E-3
376.494026E-3
376.464272E-3
376.494598E-3
376.417351E-3
376.708031E-3
376.835632E-3
376.750374E-3
376.784134E-3
376.500893E-3
376.247406E-3
375.993919E-3
375.524139E-3
375.448608E-3
375.045776E-3
374.925613E-3
374.921036E-3
374.669838E-3
374.741936E-3
374.582863E-3
374.629784E-3
374.977112E-3
374.983978E-3
375.370789E-3
375.394821E-3
375.461769E-3
375.697517E-3
375.706100E-3
376.004791E-3
375.962448E-3
375.907516E-3
376.103783E-3
375.868034E-3
376.020241E-3
375.846863E-3
375.836563E-3
376.022530E-3
375.868034E-3
376.134682E-3
376.023674E-3
375.998497E-3
376.113510E-3
376.009369E-3
376.308632E-3
376.270866E-3
376.170731E-3
376.202202E-3
376.087189E-3
376.333809E-3
376.209641E-3
376.170731E-3
376.279449E-3
376.126099E-3
376.370430E-3
376.158142E-3
376.145554E-3
376.316643E-3
376.175880E-3
376.419640E-3
376.392174E-3
376.332664E-3
376.568413E-3
376.348114E-3
376.686287E-3
376.599884E-3
376.520348E-3
376.667976E-3
376.514053E-3
376.654816E-3
376.453972E-3
376.392174E-3
376.566696E-3
376.434517E-3
376.718330E-3
376.639366E-3
376.630783E-3
376.712036E-3
376.516914E-3
376.488304E-3
376.293182E-3
375.838852E-3
375.706100E-3
375.169945E-3
374.991989E-3
374.624062E-3
374.229240E-3
374.166870E-3
373.794937E-3
373.873329E-3
373.966599E-3
374.055290E-3
374.375153E-3
374.259567E-3
374.471855E-3
374.513626E-3
374.541092E-3
374.838638E-3
374.768257E-3
375.125313E-3
375.169373E-3
375.065804E-3
375.267792E-3
375.189400E-3
375.430870E-3
375.363350E-3
375.257492E-3
375.393105E-3
375.290108E-3
375.424576E-3
375.481224E-3
375.367928E-3
375.551033E-3
375.488091E-3
375.615692E-3
375.632858E-3
375.621414E-3
375.852013E-3
375.746727E-3
375.940132E-3
375.943565E-3
375.976181E-3
376.218224E-3
376.109505E-3
376.258850E-3
376.251411E-3
376.136971E-3
376.371574E-3
376.222801E-3
376.416779E-3
376.543236E-3
376.419067E-3
376.534081E-3
376.417923E-3
376.520920E-3
376.531219E-3
376.482582E-3
376.693153E-3
376.600456E-3
376.757240E-3
376.673126E-3
376.468849E-3
376.642227E-3
376.598167E-3
376.658249E-3
376.551247E-3
376.500320E-3
376.740646E-3
376.560974E-3
376.635361E-3
376.566696E-3
376.199341E-3
376.037407E-3
375.452042E-3
375.255775E-3
374.846077E-3
374.451256E-3
374.333954E-3
373.990631E-3
373.992920E-3
373.855591E-3
373.812103E-3
374.184608E-3
374.180603E-3
374.428368E-3
374.423218E-3
374.393463E-3
374.742508E-3
374.617767E-3
374.905586E-3
374.910736E-3
374.880981E-3
375.185966E-3
375.044632E-3
375.116730E-3
375.107002E-3
374.941063E-3
375.157356E-3
374.802589E-3
374.843788E-3
374.814034E-3
374.696732E-3
374.910164E-3
374.714470E-3
374.852371E-3
374.903297E-3
374.868965E-3
375.127029E-3
374.939346E-3
375.047493E-3
375.187111E-3
375.086975E-3
375.401688E-3
375.132751E-3
375.154495E-3
375.305557E-3
375.113869E-3
375.373077E-3
375.160217E-3
375.291252E-3
375.458908E-3
375.384521E-3
375.622559E-3
375.441742E-3
375.568199E-3
375.571060E-3
375.473213E-3
375.710106E-3
375.563622E-3
375.570488E-3
375.675201E-3
375.531578E-3
375.756454E-3
375.656891E-3
375.711823E-3
375.857735E-3
375.633430E-3
376.023674E-3
375.938988E-3
375.975609E-3
376.010513E-3
375.689507E-3
375.543594E-3
374.955940E-3
374.616051E-3
374.435806E-3
374.002075E-3
373.966026E-3
373.585510E-3
373.546028E-3
373.571777E-3
373.318863E-3
373.580360E-3
373.443604E-3
373.711395E-3
373.986053E-3
373.829269E-3
374.147415E-3
374.084473E-3
374.209213E-3
374.432945E-3
374.475288E-3
374.701881E-3
374.666405E-3
374.745941E-3
374.847221E-3
374.673843E-3
374.816322E-3
374.650955E-3
374.674988E-3
374.747658E-3
374.522209E-3
374.696732E-3
374.529648E-3
374.589729E-3
374.775124E-3
374.624062E-3
374.802589E-3
374.781418E-3
374.836349E-3
374.961090E-3
374.874115E-3
375.197411E-3
375.146484E-3
375.250053E-3
375.399971E-3
375.281525E-3
375.537872E-3
375.492096E-3
375.449753E-3
375.641441E-3
375.550461E-3
375.849724E-3
375.693512E-3
375.774765E-3
375.839424E-3
375.739861E-3
375.953293E-3
375.749016E-3
375.758171E-3
375.883484E-3
375.687790E-3
375.862885E-3
375.785065E-3
375.770760E-3
375.930405E-3
375.788498E-3
376.118660E-3
375.968742E-3
375.925255E-3
376.029396E-3
375.679207E-3
375.617409E-3
375.092125E-3
374.787712E-3
374.535942E-3
374.090767E-3
374.043846E-3
373.836136E-3
373.698235E-3
373.740005E-3
373.591232E-3
373.826981E-3
373.850441E-3
373.866463E-3
374.214935E-3
374.135399E-3
374.482727E-3
374.489021E-3
374.466133E-3
374.776840E-3
374.687576E-3
375.117302E-3
375.193977E-3
375.130463E-3
375.227165E-3
375.147057E-3
375.395393E-3
375.344467E-3
375.216293E-3
375.475502E-3
375.274658E-3
375.462914E-3
375.445747E-3
375.394249E-3
375.563622E-3
375.441742E-3
375.629425E-3
375.672340E-3
375.651169E-3
375.817108E-3
375.781059E-3
375.936699E-3
375.906372E-3
375.814819E-3
376.143837E-3
376.029396E-3
376.226234E-3
376.334953E-3
376.266861E-3
376.576424E-3
376.412201E-3
376.726341E-3
376.677704E-3
376.487160E-3
376.700592E-3
376.597595E-3
376.815033E-3
376.831627E-3
376.677132E-3
376.944923E-3
376.808739E-3
376.907158E-3
376.937485E-3
376.907158E-3
377.060509E-3
376.939201E-3
377.147484E-3
377.100563E-3
377.057076E-3
377.177238E-3
376.823616E-3
376.649666E-3
376.181030E-3
375.592804E-3
375.355339E-3
374.937630E-3
374.807739E-3
374.547386E-3
374.272156E-3
374.495316E-3
374.342537E-3
374.469566E-3
374.493599E-3
374.529076E-3
374.885559E-3
374.857521E-3
374.995995E-3
375.042915E-3
374.977684E-3
375.247765E-3
375.086403E-3
375.334167E-3
375.419426E-3
375.301552E-3
375.544167E-3
375.382233E-3
375.504112E-3
375.485802E-3
375.399971E-3
375.626564E-3
375.565910E-3
375.731277E-3
375.669479E-3
375.543594E-3
375.753593E-3
375.681496E-3
375.890923E-3
375.959015E-3
375.853157E-3
376.117516E-3
375.976181E-3
376.053429E-3
376.078033E-3
376.070023E-3
376.405907E-3
376.379013E-3
376.440811E-3
376.560974E-3
376.503754E-3
376.769257E-3
376.618195E-3
376.709747E-3
376.630783E-3
376.512909E-3
376.777267E-3
376.520920E-3
376.734924E-3
376.795578E-3
376.665688E-3
376.946068E-3
376.708603E-3
376.752090E-3
376.876831E-3
376.708031E-3
376.934624E-3
376.736069E-3
376.780701E-3
376.952362E-3
376.910591E-3
377.248192E-3
377.011871E-3
377.037048E-3
376.911163E-3
376.456833E-3
376.360130E-3
375.731277E-3
375.393105E-3
375.066376E-3
374.658966E-3
374.586868E-3
374.213791E-3
374.288177E-3
374.397469E-3
374.348831E-3
374.781990E-3
374.750519E-3
374.902725E-3
375.086403E-3
374.996567E-3
375.192833E-3
375.140762E-3
375.245476E-3
375.492096E-3
375.411415E-3
375.662613E-3
375.660896E-3
375.645447E-3
375.813675E-3
375.587082E-3
375.789642E-3
375.597954E-3
375.654602E-3
375.708961E-3
375.686073E-3
375.857162E-3
375.648308E-3
375.720406E-3
375.779343E-3
375.521851E-3
375.763893E-3
375.703239E-3
375.779343E-3
376.075172E-3
375.849152E-3
376.165009E-3
376.035118E-3
376.017952E-3
376.090050E-3
375.952721E-3
376.189613E-3
376.134682E-3
376.201630E-3
376.421356E-3
376.210213E-3
376.388741E-3
376.215363E-3
376.194763E-3
376.288033E-3
376.097488E-3
376.320076E-3
376.047707E-3
376.092911E-3
376.244545E-3
376.068306E-3
376.152420E-3
376.016808E-3
376.043701E-3
376.199913E-3
376.120949E-3
376.366425E-3
376.268005E-3
376.309204E-3
376.421928E-3
376.227379E-3
376.486015E-3
376.318932E-3
376.000214E-3
375.781059E-3
375.153923E-3
375.016022E-3
374.376297E-3
374.031830E-3
373.957443E-3
373.588371E-3
373.772049E-3
373.626709E-3
373.648453E-3
373.899078E-3
373.905373E-3
374.217796E-3
374.212074E-3
374.262428E-3
374.423218E-3
374.145126E-3
374.471855E-3
374.592018E-3
374.566841E-3
374.781990E-3
374.669266E-3
374.942207E-3
374.881554E-3
374.880409E-3
374.991989E-3
374.876404E-3
375.006866E-3
374.864388E-3
374.722481E-3
374.888420E-3
374.798584E-3
375.073242E-3
375.007439E-3
374.955940E-3
375.183678E-3
375.006866E-3
375.284386E-3
375.236893E-3
375.193977E-3
375.370216E-3
375.318146E-3
375.600243E-3
375.632858E-3
375.520134E-3
375.758171E-3
375.634003E-3
375.853729E-3
375.794220E-3
375.730705E-3
376.017952E-3
375.888062E-3
376.052856E-3
376.033974E-3
375.899506E-3
376.031113E-3
375.824547E-3
375.841713E-3
375.888062E-3
375.717545E-3
375.868607E-3
375.720406E-3
375.873756E-3
375.809097E-3
375.673485E-3
375.894356E-3
375.751877E-3
375.907516E-3
375.852013E-3
375.811958E-3
376.082611E-3
375.837135E-3
375.862312E-3
375.677490E-3
375.258636E-3
374.987984E-3
374.473572E-3
374.240685E-3
373.884201E-3
373.583221E-3
373.609543E-3
373.397827E-3
373.417854E-3
373.332024E-3
373.143196E-3
373.604393E-3
373.669624E-3
373.869324E-3
373.889351E-3
373.782921E-3
374.062157E-3
373.986053E-3
374.308205E-3
374.307632E-3
374.309921E-3
374.605751E-3
374.407196E-3
374.613762E-3
374.567413E-3
374.456978E-3
374.650383E-3
374.463844E-3
374.534798E-3
374.534798E-3
374.353981E-3
374.566841E-3
374.378014E-3
374.503899E-3
374.426079E-3
374.375153E-3
374.678993E-3
374.498749E-3
374.695587E-3
374.798012E-3
374.755669E-3
375.088692E-3
374.978256E-3
375.059509E-3
375.188255E-3
375.191116E-3
375.401688E-3
375.124741E-3
375.248909E-3
375.417137E-3
375.354767E-3
375.690651E-3
375.436592E-3
375.623703E-3
375.728416E-3
375.635147E-3
375.787354E-3
375.557899E-3
375.573921E-3
375.648880E-3
375.513268E-3
375.845718E-3
375.695801E-3
375.802231E-3
375.958443E-3
375.846291E-3
376.280594E-3
376.112938E-3
376.136398E-3
376.254272E-3
376.023674E-3
376.322365E-3
376.191902E-3
376.010513E-3
375.817680E-3
375.305557E-3
375.098419E-3
374.509621E-3
374.177170E-3
374.063301E-3
373.734856E-3
373.891068E-3
373.699951E-3
373.793793E-3
373.976326E-3
373.897362E-3
374.200630E-3
374.169731E-3
374.359703E-3
374.612617E-3
374.440384E-3
374.658966E-3
374.667549E-3
374.815178E-3
374.981117E-3
374.869537E-3
375.078392E-3
374.906731E-3
374.887276E-3
375.160789E-3
374.895859E-3
375.056648E-3
374.979973E-3
375.005722E-3
375.096130E-3
374.953651E-3
375.118446E-3
375.001717E-3
374.971962E-3
375.139618E-3
375.068092E-3
375.334167E-3
375.220871E-3
375.489807E-3
375.628853E-3
375.585365E-3
375.782204E-3
375.607681E-3
375.730705E-3
375.800514E-3
375.828552E-3
376.080322E-3
376.008797E-3
376.017952E-3
376.217079E-3
376.029396E-3
376.226234E-3
376.127243E-3
376.114655E-3
376.290321E-3
376.111221E-3
376.276588E-3
376.167870E-3
376.129532E-3
376.315498E-3
376.121521E-3
376.380730E-3
376.306915E-3
376.368141E-3
376.514626E-3
376.380730E-3
376.571274E-3
376.377296E-3
376.329803E-3
376.520348E-3
376.453400E-3
376.603889E-3
376.439667E-3
376.365280E-3
376.065445E-3
375.556755E-3
375.238609E-3
374.784851E-3
374.396896E-3
374.206352E-3
373.762321E-3
373.818970E-3
373.610687E-3
373.536301E-3
373.762894E-3
373.600388E-3
374.073029E-3
374.073601E-3
374.231529E-3
374.424362E-3
374.259567E-3
374.505043E-3
374.483299E-3
374.496460E-3
374.707031E-3
374.652100E-3
374.957657E-3
374.925613E-3
374.857521E-3
374.893570E-3
374.776268E-3
374.994278E-3
374.948502E-3
374.986267E-3
375.105858E-3
374.835205E-3
375.032616E-3
374.891853E-3
374.886703E-3
375.111008E-3
375.016594E-3
375.187111E-3
375.213432E-3
375.137329E-3
375.411987E-3
375.196838E-3
375.477219E-3
375.370789E-3
375.354767E-3
375.533295E-3
375.451469E-3
375.611687E-3
375.566483E-3
375.485229E-3
375.722122E-3
375.633430E-3
375.828552E-3
375.745010E-3
375.769615E-3
375.944138E-3
375.902367E-3
375.928116E-3
375.877190E-3
375.762749E-3
375.973320E-3
375.805092E-3
375.969887E-3
376.008797E-3
375.936699E-3
376.150131E-3
375.931549E-3
376.017952E-3
376.044846E-3
376.039124E-3
376.231384E-3
376.231384E-3
376.287460E-3
376.266289E-3
376.060295E-3
376.255417E-3
375.878906E-3
375.556755E-3
375.213432E-3
374.625778E-3
374.538231E-3
374.051285E-3
373.876762E-3
373.653603E-3
373.453903E-3
373.567772E-3
373.422432E-3
373.626137E-3
373.685646E-3
373.675919E-3
373.986626E-3
373.984909E-3
374.170876E-3
374.277878E-3
374.235535E-3
374.451256E-3
374.345398E-3
374.543381E-3
374.505043E-3
374.403763E-3
374.584579E-3
374.435234E-3
374.570847E-3
374.628639E-3
374.512482E-3
374.787140E-3
374.522781E-3
374.577713E-3
374.665260E-3
374.573708E-3
374.828339E-3
374.540520E-3
374.621773E-3
374.736214E-3
374.749374E-3
375.000000E-3
374.898720E-3
374.979973E-3
375.082970E-3
375.001717E-3
375.187683E-3
375.085831E-3
375.107002E-3
375.258636E-3
375.160217E-3
375.500679E-3
375.294685E-3
375.412560E-3
375.511551E-3
375.462914E-3
375.684929E-3
375.502396E-3
375.523567E-3
375.564766E-3
375.428009E-3
375.778770E-3
375.544167E-3
375.708961E-3
375.706673E-3
375.678062E-3
375.875473E-3
375.766182E-3
375.762749E-3
375.865173E-3
375.806808E-3
375.982475E-3
375.914955E-3
376.013374E-3
376.131821E-3
376.066589E-3
376.266861E-3
375.946426E-3
375.746727E-3
375.486374E-3
374.879837E-3
374.761963E-3
374.311638E-3
374.055290E-3
373.883057E-3
373.606682E-3
373.744011E-3
373.552322E-3
373.607826E-3
373.841286E-3
373.719406E-3
374.037552E-3
374.039268E-3
374.264717E-3
374.375153E-3
374.280739E-3
374.567413E-3
374.466133E-3
374.646950E-3
374.794006E-3
374.674416E-3
374.954224E-3
374.901581E-3
374.911880E-3
374.965096E-3
374.705315E-3
374.905586E-3
374.781990E-3
374.761963E-3
374.982834E-3
374.910164E-3
375.096130E-3
375.037766E-3
375.100136E-3
375.261497E-3
375.044632E-3
375.216293E-3
375.243187E-3
375.236320E-3
