Notes :


2023-10-30 ¿ÀÈÄ 11:49:06
Volts
Ch : LED 2,
318.620682E-3
318.617249E-3
320.009422E-3
320.241165E-3
322.112274E-3
322.442436E-3
321.875954E-3
320.928955E-3
317.240524E-3
314.436722E-3
310.305977E-3
306.664467E-3
304.504395E-3
301.540947E-3
300.735855E-3
299.698448E-3
299.336815E-3
300.572777E-3
300.665474E-3
302.279663E-3
302.917671E-3
303.377724E-3
304.496384E-3
304.203987E-3
305.731201E-3
306.743431E-3
307.971382E-3
310.054779E-3
310.297394E-3
311.603165E-3
311.501312E-3
310.952568E-3
311.211777E-3
309.677696E-3
309.547234E-3
308.540726E-3
307.342529E-3
307.299614E-3
306.227303E-3
306.776619E-3
306.640434E-3
306.594658E-3
307.630348E-3
307.379150E-3
308.613396E-3
308.918381E-3
309.092903E-3
310.319710E-3
309.877396E-3
310.748291E-3
310.663033E-3
310.243607E-3
310.879326E-3
310.123444E-3
310.735703E-3
310.431862E-3
310.094261E-3
310.810661E-3
310.324860E-3
311.092758E-3
311.179161E-3
311.254120E-3
312.485504E-3
312.095261E-3
313.180161E-3
313.369560E-3
313.328934E-3
314.528847E-3
314.081383E-3
314.807510E-3
314.794350E-3
314.861298E-3
316.129303E-3
315.334511E-3
314.891052E-3
312.797928E-3
309.511185E-3
306.619263E-3
302.112007E-3
299.081039E-3
295.710754E-3
292.779922E-3
291.712189E-3
289.782715E-3
289.906311E-3
289.462852E-3
289.250565E-3
290.429878E-3
290.415573E-3
291.913605E-3
292.822838E-3
293.506622E-3
295.445824E-3
295.974541E-3
297.833633E-3
298.945999E-3
299.581146E-3
301.001930E-3
300.929260E-3
301.891136E-3
301.829338E-3
301.253128E-3
301.696014E-3
300.268364E-3
300.108147E-3
299.303055E-3
298.226166E-3
298.733711E-3
298.137474E-3
299.219513E-3
299.879265E-3
300.507545E-3
302.628136E-3
303.301048E-3
305.379295E-3
306.707954E-3
307.751083E-3
309.815025E-3
309.995270E-3
311.072159E-3
311.282158E-3
311.141396E-3
312.016869E-3
311.087036E-3
311.537361E-3
311.403465E-3
310.735130E-3
311.429214E-3
310.611534E-3
311.276436E-3
311.272430E-3
311.048698E-3
311.887550E-3
311.184311E-3
312.111282E-3
312.617683E-3
312.622833E-3
313.726616E-3
312.840843E-3
313.223076E-3
313.126373E-3
312.660599E-3
312.952995E-3
310.585785E-3
308.716393E-3
305.046844E-3
300.634003E-3
297.135544E-3
292.468643E-3
289.805031E-3
287.590599E-3
285.718346E-3
285.834503E-3
284.634018E-3
285.297203E-3
285.943222E-3
285.979271E-3
287.531662E-3
287.308502E-3
288.224602E-3
288.889503E-3
289.167595E-3
291.385460E-3
292.131615E-3
294.492531E-3
296.221733E-3
297.445107E-3
299.450111E-3
299.245834E-3
299.963951E-3
299.859810E-3
299.106789E-3
299.712753E-3
298.499680E-3
299.077606E-3
299.422646E-3
299.320221E-3
300.547600E-3
299.941063E-3
300.782204E-3
301.239395E-3
301.132393E-3
302.433014E-3
302.151489E-3
303.484726E-3
304.608536E-3
305.341530E-3
307.498169E-3
307.772827E-3
309.041977E-3
309.519768E-3
308.911514E-3
309.575844E-3
308.270073E-3
308.218575E-3
307.983971E-3
307.274437E-3
308.065224E-3
307.087326E-3
307.545090E-3
307.807159E-3
307.575989E-3
308.629990E-3
308.018875E-3
308.702660E-3
309.237671E-3
309.024811E-3
310.184669E-3
309.693718E-3
310.461617E-3
311.148262E-3
310.906792E-3
311.367416E-3
309.222221E-3
307.551956E-3
304.772186E-3
300.864601E-3
298.311996E-3
294.445038E-3
292.166519E-3
290.376663E-3
288.515282E-3
288.657188E-3
287.739944E-3
288.706398E-3
289.883995E-3
290.401840E-3
292.512703E-3
292.936134E-3
294.269943E-3
295.472717E-3
296.057510E-3
298.406982E-3
299.470139E-3
301.681709E-3
303.527641E-3
304.261780E-3
305.961800E-3
305.681419E-3
306.182671E-3
306.399536E-3
305.465126E-3
305.768967E-3
304.328728E-3
304.147911E-3
304.168510E-3
303.497887E-3
304.748154E-3
304.733276E-3
306.120872E-3
307.562256E-3
308.111572E-3
310.080528E-3
310.451889E-3
311.967659E-3
313.146973E-3
313.348389E-3
314.946556E-3
314.681053E-3
315.441513E-3
315.886116E-3
315.046120E-3
315.832329E-3
314.974594E-3
315.464973E-3
315.777969E-3
315.218925E-3
316.104698E-3
315.272713E-3
315.525627E-3
315.679550E-3
314.982033E-3
315.846062E-3
315.309906E-3
316.222000E-3
317.270279E-3
317.466545E-3
319.171715E-3
319.281006E-3
320.589066E-3
321.712875E-3
321.811867E-3
323.004913E-3
321.711159E-3
320.240021E-3
317.882538E-3
313.608742E-3
310.473633E-3
306.049919E-3
303.191757E-3
300.912666E-3
298.170662E-3
297.604752E-3
296.212578E-3
296.225166E-3
297.065735E-3
297.103500E-3
298.776054E-3
299.327660E-3
300.638008E-3
301.959229E-3
302.431870E-3
304.610825E-3
305.838203E-3
307.908440E-3
310.130882E-3
310.739708E-3
312.280083E-3
311.897850E-3
311.817169E-3
311.759949E-3
310.168648E-3
310.164642E-3
309.165001E-3
309.407043E-3
310.135460E-3
310.016441E-3
311.416626E-3
311.320496E-3
312.288094E-3
313.160133E-3
313.035965E-3
314.266777E-3
314.334869E-3
315.333939E-3
316.560173E-3
316.682053E-3
318.117714E-3
318.115425E-3
318.858147E-3
319.567108E-3
318.990326E-3
319.595146E-3
318.828964E-3
318.782043E-3
319.034386E-3
318.412971E-3
319.231224E-3
319.097328E-3
319.815445E-3
320.563889E-3
320.472908E-3
321.930885E-3
321.979523E-3
322.808075E-3
323.740196E-3
323.375702E-3
324.312973E-3
324.062920E-3
324.625969E-3
325.872231E-3
325.957489E-3
327.120781E-3
326.010704E-3
324.410248E-3
321.894836E-3
317.619896E-3
314.306259E-3
309.916306E-3
306.817818E-3
304.765892E-3
302.549171E-3
302.593803E-3
301.950645E-3
302.507401E-3
303.677559E-3
303.984833E-3
305.603600E-3
305.795860E-3
306.337738E-3
307.174301E-3
307.289886E-3
309.129524E-3
309.903145E-3
311.311340E-3
312.850571E-3
312.696648E-3
313.553810E-3
312.801933E-3
312.164497E-3
311.936760E-3
310.422134E-3
310.756874E-3
309.939194E-3
310.080528E-3
310.641861E-3
310.458755E-3
312.100983E-3
312.174225E-3
312.889481E-3
314.280510E-3
314.314270E-3
316.024590E-3
316.565323E-3
317.459679E-3
318.447304E-3
318.049049E-3
319.311333E-3
318.949699E-3
319.021797E-3
319.568253E-3
318.726540E-3
319.559097E-3
319.005775E-3
319.008636E-3
319.670677E-3
318.969154E-3
320.133591E-3
319.816017E-3
319.927025E-3
320.400238E-3
319.576836E-3
320.635414E-3
320.406532E-3
320.714378E-3
321.542931E-3
321.090889E-3
322.560883E-3
322.656441E-3
323.145103E-3
324.087524E-3
323.409462E-3
323.400879E-3
321.173286E-3
318.248177E-3
315.176582E-3
310.545731E-3
307.616615E-3
304.000854E-3
301.411057E-3
300.042343E-3
297.882271E-3
298.106003E-3
297.471428E-3
297.617912E-3
298.723412E-3
298.713684E-3
300.666618E-3
301.403618E-3
302.426147E-3
304.063797E-3
304.638863E-3
306.992340E-3
308.012009E-3
309.326935E-3
310.832977E-3
310.696220E-3
311.418915E-3
310.767746E-3
310.341454E-3
310.362053E-3
309.089470E-3
309.547806E-3
309.111214E-3
309.076881E-3
309.803009E-3
309.437943E-3
310.729408E-3
310.754585E-3
311.070442E-3
312.209702E-3
312.222862E-3
313.821030E-3
314.230728E-3
314.749146E-3
315.987968E-3
315.688705E-3
316.864014E-3
316.868591E-3
317.017937E-3
317.936897E-3
317.336082E-3
318.281937E-3
317.891121E-3
317.498016E-3
317.797279E-3
316.669464E-3
317.083168E-3
316.399956E-3
316.154480E-3
316.791916E-3
316.228294E-3
317.354393E-3
317.258835E-3
317.500305E-3
318.723106E-3
318.243027E-3
319.430923E-3
319.494438E-3
319.714737E-3
320.725822E-3
319.576263E-3
319.273567E-3
316.846848E-3
313.659668E-3
310.710526E-3
306.171799E-3
303.453255E-3
300.045204E-3
297.421646E-3
296.492958E-3
294.716263E-3
295.099068E-3
294.861603E-3
294.815254E-3
296.240616E-3
296.119881E-3
297.896004E-3
298.454475E-3
299.270439E-3
301.246834E-3
302.004433E-3
304.581642E-3
306.236458E-3
307.811165E-3
309.946632E-3
310.106850E-3
311.277580E-3
310.669899E-3
309.945488E-3
309.872246E-3
308.209991E-3
308.121872E-3
307.351685E-3
306.869316E-3
307.743645E-3
307.361984E-3
308.738136E-3
309.025955E-3
309.502602E-3
310.957718E-3
311.034393E-3
312.614250E-3
313.298035E-3
313.763237E-3
315.177727E-3
315.162849E-3
316.441727E-3
316.620255E-3
316.731834E-3
317.773819E-3
317.184448E-3
317.742348E-3
317.512894E-3
316.824532E-3
317.416191E-3
316.461182E-3
316.827965E-3
316.501236E-3
316.121292E-3
317.027664E-3
316.509819E-3
317.389870E-3
317.548943E-3
317.629051E-3
318.863297E-3
318.741989E-3
319.705582E-3
319.682693E-3
319.778824E-3
320.693207E-3
319.983673E-3
319.926453E-3
318.065643E-3
315.036392E-3
312.304115E-3
307.721901E-3
304.658318E-3
301.230812E-3
298.375511E-3
297.228813E-3
295.287323E-3
295.223808E-3
294.878769E-3
294.802666E-3
296.273232E-3
296.431160E-3
298.108864E-3
298.919106E-3
299.530792E-3
301.264000E-3
301.705170E-3
304.007721E-3
305.722046E-3
307.245827E-3
309.404182E-3
309.614754E-3
310.731125E-3
310.661316E-3
310.374641E-3
310.770035E-3
309.605598E-3
309.901428E-3
309.271431E-3
308.588791E-3
309.141541E-3
308.455467E-3
309.406471E-3
309.871101E-3
310.303688E-3
312.018585E-3
312.356758E-3
313.921165E-3
314.646149E-3
315.106773E-3
316.636276E-3
316.421127E-3
317.526054E-3
317.638779E-3
317.571259E-3
318.541718E-3
318.031311E-3
318.796349E-3
318.765450E-3
318.346596E-3
319.022369E-3
318.249893E-3
318.948555E-3
318.794060E-3
318.410683E-3
319.272423E-3
318.541718E-3
319.348526E-3
319.663811E-3
319.687843E-3
321.031952E-3
320.998764E-3
322.114563E-3
322.263336E-3
321.998405E-3
322.976303E-3
322.682762E-3
323.580551E-3
323.078728E-3
321.545792E-3
319.991112E-3
315.808868E-3
312.621689E-3
308.973312E-3
305.267715E-3
303.517914E-3
300.880051E-3
300.112724E-3
299.572563E-3
299.245262E-3
300.473785E-3
300.451469E-3
302.059364E-3
302.889061E-3
303.276443E-3
304.816818E-3
304.827690E-3
306.425285E-3
307.732773E-3
308.878326E-3
311.171150E-3
311.812019E-3
313.314056E-3
313.705444E-3
313.528061E-3
314.149475E-3
312.833977E-3
312.942696E-3
312.264061E-3
311.502457E-3
312.285233E-3
311.434364E-3
312.237740E-3
312.541008E-3
312.855148E-3
314.657593E-3
314.745140E-3
316.265488E-3
317.086601E-3
317.472839E-3
318.951988E-3
318.784332E-3
319.692993E-3
319.955635E-3
319.785690E-3
320.603943E-3
319.678116E-3
320.154762E-3
319.908142E-3
319.417763E-3
320.167351E-3
319.156837E-3
319.728470E-3
319.757652E-3
319.541931E-3
320.584488E-3
319.993973E-3
320.880318E-3
321.195602E-3
321.178436E-3
322.338295E-3
321.663666E-3
322.186661E-3
322.099686E-3
321.605873E-3
322.467041E-3
321.898842E-3
323.038673E-3
323.361397E-3
322.409821E-3
321.509743E-3
317.962074E-3
315.169716E-3
311.621475E-3
307.723045E-3
305.694008E-3
302.648163E-3
301.712036E-3
300.925255E-3
300.604820E-3
302.003288E-3
301.940346E-3
303.424644E-3
304.312706E-3
304.596519E-3
306.098557E-3
305.746078E-3
307.061005E-3
308.306122E-3
309.480286E-3
311.909866E-3
312.379646E-3
313.689995E-3
313.972664E-3
313.296318E-3
313.479424E-3
311.841774E-3
311.450958E-3
310.713387E-3
310.013008E-3
310.727119E-3
310.109711E-3
311.262131E-3
311.980247E-3
312.302971E-3
314.061928E-3
314.196968E-3
315.550804E-3
316.275787E-3
316.390800E-3
317.793846E-3
317.287445E-3
318.249893E-3
318.554878E-3
318.445587E-3
319.459534E-3
318.928528E-3
319.561958E-3
319.976807E-3
319.781685E-3
320.619965E-3
319.753647E-3
320.211411E-3
320.285797E-3
319.755936E-3
320.489502E-3
319.434929E-3
319.808006E-3
319.908142E-3
319.307899E-3
320.157051E-3
319.690132E-3
320.776176E-3
321.403313E-3
321.413040E-3
322.866440E-3
322.405815E-3
322.985458E-3
322.680473E-3
320.840836E-3
319.190598E-3
315.135384E-3
311.799431E-3
308.120155E-3
304.130173E-3
301.968384E-3
298.916817E-3
297.834206E-3
297.141838E-3
296.276665E-3
297.405624E-3
297.288322E-3
298.517990E-3
299.537659E-3
300.036049E-3
301.782417E-3
301.736069E-3
303.310204E-3
305.017662E-3
306.270790E-3
308.795929E-3
309.174156E-3
310.477638E-3
310.938263E-3
310.365486E-3
310.797501E-3
309.332657E-3
308.945847E-3
308.504677E-3
307.621193E-3
308.272934E-3
307.624054E-3
308.269501E-3
309.133530E-3
309.425926E-3
311.044121E-3
311.135674E-3
312.548447E-3
313.664818E-3
313.727760E-3
315.187454E-3
314.892197E-3
315.843773E-3
316.534424E-3
316.517258E-3
317.821312E-3
317.273712E-3
317.864799E-3
318.017578E-3
317.459679E-3
318.129158E-3
317.097473E-3
317.323494E-3
317.211342E-3
316.410828E-3
316.963577E-3
316.094398E-3
316.306686E-3
316.428566E-3
315.855789E-3
316.882324E-3
316.430855E-3
317.363548E-3
318.147469E-3
318.143463E-3
319.753075E-3
319.589424E-3
320.283508E-3
320.043755E-3
317.725182E-3
315.844345E-3
311.484718E-3
307.955933E-3
304.038620E-3
299.771690E-3
297.687149E-3
294.654465E-3
293.881416E-3
293.621635E-3
293.213081E-3
294.550896E-3
294.750023E-3
296.016884E-3
297.130966E-3
297.352982E-3
298.931694E-3
298.796082E-3
300.180244E-3
301.675987E-3
302.624702E-3
304.930115E-3
305.587578E-3
306.947708E-3
307.644653E-3
306.869316E-3
307.256699E-3
305.826759E-3
305.471992E-3
305.019951E-3
303.843498E-3
304.409409E-3
303.457832E-3
304.023170E-3
304.740715E-3
304.545593E-3
306.133461E-3
306.134033E-3
307.235527E-3
308.449745E-3
308.529282E-3
309.912872E-3
309.711456E-3
310.503387E-3
311.401749E-3
311.152840E-3
312.496376E-3
312.191963E-3
312.593651E-3
312.851143E-3
311.970520E-3
312.566757E-3
311.499023E-3
311.606598E-3
311.598015E-3
310.750580E-3
311.428642E-3
310.695648E-3
311.316490E-3
312.023163E-3
311.833763E-3
313.049698E-3
312.690353E-3
313.235092E-3
313.666534E-3
313.305473E-3
314.393806E-3
313.941193E-3
314.266205E-3
313.744926E-3
311.420631E-3
309.784126E-3
306.041336E-3
302.957153E-3
299.917603E-3
296.441460E-3
294.740295E-3
292.128181E-3
291.050148E-3
290.453911E-3
289.620781E-3
290.740013E-3
290.836716E-3
292.128754E-3
293.626785E-3
293.818474E-3
295.383453E-3
295.504761E-3
296.773911E-3
298.616409E-3
299.658394E-3
302.193832E-3
302.787781E-3
304.021454E-3
304.577065E-3
303.491020E-3
303.631783E-3
301.997566E-3
301.355553E-3
300.837135E-3
299.660683E-3
299.962234E-3
299.093056E-3
299.368858E-3
299.853516E-3
299.518776E-3
300.850296E-3
300.964165E-3
302.339745E-3
303.756523E-3
304.193687E-3
305.902290E-3
306.044197E-3
306.924820E-3
307.891273E-3
307.623482E-3
308.701515E-3
308.200836E-3
308.536148E-3
308.680916E-3
307.662392E-3
308.031464E-3
307.193184E-3
307.302475E-3
307.602310E-3
307.020950E-3
307.945061E-3
307.478142E-3
307.979393E-3
308.579636E-3
308.272934E-3
309.609032E-3
309.721756E-3
310.559464E-3
311.389732E-3
311.121368E-3
312.193108E-3
311.957932E-3
312.160492E-3
311.674118E-3
308.912086E-3
306.764603E-3
302.494240E-3
298.868179E-3
295.731926E-3
292.120171E-3
290.742874E-3
288.710976E-3
288.237762E-3
288.452911E-3
287.998009E-3
289.359856E-3
289.662552E-3
290.901947E-3
292.157364E-3
292.524147E-3
294.239044E-3
294.828987E-3
296.190262E-3
298.249054E-3
299.036980E-3
301.202202E-3
301.668549E-3
302.574921E-3
303.232384E-3
302.498245E-3
303.075600E-3
302.155495E-3
302.138901E-3
302.313995E-3
301.529503E-3
302.387810E-3
302.227020E-3
303.110504E-3
304.177094E-3
304.302406E-3
305.558395E-3
305.623055E-3
306.337738E-3
307.191467E-3
