Notes :


2023-11-05 ¿ÀÈÄ 2:48:45
Volts
Ch : LED 2,
348.510361E-3
348.718643E-3
348.354149E-3
348.722076E-3
348.730087E-3
348.501778E-3
348.818779E-3
348.600197E-3
348.944092E-3
348.861122E-3
348.712349E-3
349.120331E-3
348.922920E-3
349.334908E-3
349.287415E-3
349.146652E-3
349.527740E-3
349.324036E-3
349.726868E-3
349.534607E-3
349.346924E-3
349.714279E-3
349.424744E-3
349.681664E-3
349.623299E-3
349.416161E-3
349.729156E-3
349.452782E-3
349.674225E-3
349.635315E-3
349.617004E-3
349.839592E-3
349.548912E-3
349.738312E-3
349.789238E-3
349.463654E-3
349.841309E-3
349.610710E-3
349.841309E-3
349.792671E-3
349.555779E-3
349.790382E-3
349.311447E-3
349.140358E-3
348.684883E-3
348.112106E-3
348.211098E-3
347.712135E-3
347.734451E-3
347.645760E-3
347.197723E-3
347.500992E-3
347.172546E-3
347.373390E-3
347.345352E-3
347.070694E-3
347.401428E-3
347.166252E-3
347.257233E-3
347.346497E-3
347.136497E-3
347.498131E-3
347.399712E-3
347.554207E-3
347.615433E-3
347.359657E-3
347.657204E-3
347.451782E-3
347.683525E-3
347.750473E-3
347.518158E-3
348.000526E-3
347.796249E-3
347.991371E-3
348.018265E-3
347.850037E-3
348.123550E-3
347.877502E-3
347.987938E-3
348.128128E-3
347.907257E-3
348.163033E-3
347.820854E-3
348.081207E-3
348.274612E-3
348.072624E-3
348.558998E-3
348.311806E-3
348.550987E-3
348.718071E-3
348.486328E-3
348.782158E-3
348.366737E-3
348.513794E-3
348.532677E-3
348.278618E-3
348.795891E-3
348.497200E-3
348.702621E-3
348.837662E-3
348.629951E-3
349.028778E-3
348.679161E-3
348.753548E-3
348.887444E-3
348.715210E-3
349.104881E-3
348.772430E-3
348.809052E-3
348.925209E-3
348.617363E-3
348.732948E-3
347.983932E-3
347.697830E-3
347.617149E-3
347.134209E-3
347.207451E-3
346.777153E-3
346.794891E-3
346.836090E-3
346.457863E-3
346.899605E-3
346.625519E-3
346.707344E-3
346.937370E-3
346.727943E-3
347.186279E-3
346.974564E-3
347.102737E-3
347.285271E-3
347.134209E-3
347.483826E-3
347.316170E-3
347.423172E-3
347.823715E-3
347.470093E-3
347.741318E-3
347.509575E-3
347.654343E-3
347.835159E-3
347.700119E-3
348.133278E-3
347.848892E-3
347.999382E-3
348.192787E-3
347.919273E-3
348.277473E-3
348.156738E-3
348.211670E-3
348.475456E-3
348.200798E-3
348.568726E-3
348.336411E-3
348.394775E-3
348.706055E-3
348.468018E-3
348.908615E-3
348.750687E-3
348.748398E-3
349.013329E-3
348.656845E-3
348.897171E-3
348.827362E-3
348.843384E-3
349.145508E-3
348.816490E-3
349.062538E-3
348.885155E-3
349.068260E-3
349.358940E-3
348.922348E-3
349.228477E-3
349.107742E-3
349.021339E-3
349.235916E-3
349.008179E-3
349.261665E-3
349.119759E-3
349.180984E-3
349.242783E-3
348.588753E-3
348.490334E-3
347.912979E-3
347.634315E-3
347.703552E-3
347.120476E-3
347.109032E-3
346.863556E-3
346.726227E-3
347.017479E-3
346.747971E-3
347.021484E-3
346.887589E-3
346.941376E-3
347.265816E-3
346.962547E-3
347.137642E-3
346.842957E-3
346.896172E-3
347.079849E-3
346.824646E-3
347.175980E-3
347.101021E-3
347.055244E-3
347.330475E-3
347.063255E-3
347.357941E-3
347.280693E-3
347.245789E-3
347.555923E-3
347.253227E-3
347.614861E-3
347.483826E-3
347.538757E-3
347.867203E-3
347.567368E-3
347.954750E-3
347.927284E-3
348.036003E-3
348.275757E-3
348.056030E-3
348.411942E-3
348.454857E-3
348.320961E-3
348.486328E-3
348.306656E-3
348.639679E-3
348.709488E-3
348.621941E-3
348.843956E-3
348.572159E-3
348.920059E-3
348.778152E-3
348.721504E-3
349.074554E-3
348.708916E-3
349.166679E-3
349.098015E-3
348.861694E-3
349.160957E-3
348.734665E-3
349.085999E-3
349.063683E-3
348.921776E-3
349.124908E-3
348.825073E-3
349.120331E-3
349.034500E-3
348.809624E-3
348.854256E-3
348.169327E-3
348.013687E-3
347.552490E-3
347.089005E-3
347.095299E-3
346.663284E-3
346.742821E-3
346.606636E-3
346.454430E-3
346.762276E-3
346.429825E-3
346.697044E-3
346.840096E-3
346.505356E-3
346.763992E-3
346.442986E-3
346.627235E-3
346.556854E-3
346.411514E-3
346.729660E-3
346.553421E-3
346.747971E-3
346.788025E-3
346.402931E-3
346.738243E-3
346.537399E-3
346.709061E-3
346.765709E-3
346.569443E-3
346.947098E-3
346.739960E-3
346.986008E-3
346.909332E-3
346.701050E-3
347.036934E-3
346.752548E-3
346.959686E-3
347.032356E-3
346.880150E-3
347.202301E-3
346.899605E-3
347.149086E-3
347.206306E-3
346.926498E-3
347.264671E-3
347.178841E-3
347.323036E-3
347.383690E-3
347.190857E-3
347.566223E-3
347.291565E-3
347.388268E-3
347.467232E-3
347.155952E-3
347.455788E-3
347.262383E-3
347.464943E-3
347.418022E-3
347.129059E-3
347.427750E-3
347.373390E-3
347.494698E-3
347.428894E-3
347.220612E-3
347.534752E-3
347.296143E-3
347.356796E-3
347.269249E-3
346.938515E-3
346.849823E-3
346.128273E-3
345.936012E-3
345.816994E-3
345.399284E-3
345.581818E-3
345.141792E-3
345.158386E-3
345.122910E-3
344.955826E-3
345.338058E-3
345.166969E-3
345.390129E-3
345.494843E-3
345.246506E-3
345.685387E-3
345.406151E-3
345.586967E-3
345.776939E-3
345.495987E-3
345.902252E-3
345.581245E-3
345.702553E-3
345.748329E-3
345.557785E-3
346.052742E-3
345.712852E-3
345.915985E-3
345.974922E-3
345.833015E-3
346.279907E-3
346.024704E-3
346.203232E-3
346.354294E-3
346.119690E-3
346.614647E-3
346.224403E-3
346.420097E-3
346.614647E-3
346.414948E-3
346.905899E-3
346.600914E-3
346.873856E-3
347.009468E-3
346.751976E-3
347.271538E-3
347.009468E-3
347.078133E-3
347.185707E-3
346.988297E-3
347.319031E-3
347.107887E-3
347.209740E-3
347.375679E-3
347.102737E-3
347.408295E-3
347.258949E-3
347.183990E-3
347.496414E-3
347.186279E-3
347.510719E-3
347.226334E-3
347.204018E-3
347.583961E-3
347.241211E-3
347.598267E-3
347.377396E-3
347.236061E-3
347.092438E-3
346.497345E-3
346.588898E-3
346.077919E-3
345.982361E-3
346.043015E-3
345.627022E-3
345.799255E-3
345.495987E-3
345.591545E-3
345.785522E-3
345.430183E-3
345.816422E-3
345.541191E-3
345.641899E-3
345.839882E-3
345.594978E-3
346.044159E-3
345.889091E-3
345.935440E-3
346.316528E-3
345.961761E-3
346.270180E-3
346.044731E-3
346.052742E-3
346.323395E-3
346.087074E-3
346.373749E-3
346.245575E-3
346.184921E-3
346.255875E-3
346.115112E-3
346.403503E-3
346.177483E-3
346.247864E-3
346.444130E-3
346.268463E-3
346.565437E-3
346.437263E-3
346.414375E-3
346.687317E-3
346.380615E-3
346.653557E-3
346.490479E-3
346.631813E-3
346.915627E-3
346.616364E-3
346.971703E-3
346.682739E-3
346.675873E-3
346.844101E-3
346.559143E-3
346.875000E-3
346.717072E-3
346.693611E-3
346.961403E-3
346.602058E-3
346.928787E-3
346.737099E-3
346.872139E-3
347.067833E-3
346.784019E-3
347.091293E-3
346.957397E-3
346.780014E-3
347.135925E-3
346.621513E-3
346.706772E-3
346.271324E-3
345.783234E-3
345.770073E-3
345.175552E-3
345.288277E-3
344.989586E-3
344.888306E-3
344.876289E-3
344.474030E-3
344.821930E-3
344.633675E-3
344.563866E-3
344.795036E-3
344.524956E-3
344.765854E-3
344.798470E-3
344.738388E-3
345.019341E-3
344.826508E-3
345.191002E-3
345.229340E-3
345.082283E-3
345.302582E-3
345.078850E-3
345.554924E-3
345.570946E-3
345.465660E-3
345.673943E-3
345.435905E-3
345.692253E-3
345.540619E-3
345.550919E-3
345.847321E-3
345.656204E-3
346.091080E-3
346.045303E-3
345.976639E-3
346.392059E-3
346.196365E-3
346.443558E-3
346.424675E-3
346.269608E-3
346.598625E-3
346.412659E-3
346.741676E-3
346.757126E-3
346.703911E-3
347.110748E-3
346.802330E-3
347.068405E-3
346.988297E-3
346.786880E-3
347.159386E-3
346.980858E-3
347.313881E-3
347.245216E-3
347.084427E-3
347.435188E-3
347.165680E-3
347.442055E-3
347.495842E-3
347.216606E-3
347.594833E-3
347.392845E-3
347.566795E-3
347.527885E-3
347.260666E-3
347.338486E-3
346.790886E-3
346.651840E-3
346.255875E-3
345.804405E-3
345.826149E-3
345.375824E-3
345.453072E-3
345.313454E-3
345.080566E-3
345.507431E-3
345.386696E-3
345.580673E-3
345.576668E-3
345.448494E-3
345.691681E-3
345.439911E-3
345.525742E-3
345.560074E-3
345.351219E-3
345.833588E-3
345.653343E-3
345.873070E-3
345.910263E-3
345.699120E-3
346.033859E-3
345.850182E-3
346.076202E-3
346.040726E-3
345.857620E-3
346.204376E-3
346.032715E-3
346.221542E-3
346.259880E-3
346.099663E-3
346.590042E-3
346.414948E-3
346.651840E-3
346.709061E-3
346.579170E-3
346.976852E-3
346.846962E-3
346.976852E-3
346.912766E-3
346.821213E-3
347.200012E-3
347.049522E-3
347.383690E-3
347.468376E-3
347.223473E-3
347.645187E-3
347.458649E-3
347.586823E-3
347.749329E-3
347.541618E-3
347.971916E-3
347.735596E-3
347.903252E-3
347.890091E-3
347.664642E-3
348.073196E-3
347.842598E-3
348.073196E-3
348.167038E-3
347.976494E-3
348.476028E-3
348.147011E-3
348.151016E-3
348.171616E-3
347.763062E-3
347.817993E-3
347.110176E-3
346.889877E-3
346.698189E-3
346.212959E-3
346.354294E-3
345.825577E-3
345.792961E-3
345.970917E-3
345.730591E-3
346.214676E-3
345.932579E-3
346.132851E-3
346.330261E-3
346.043587E-3
346.357727E-3
346.010399E-3
346.098518E-3
346.330261E-3
346.168327E-3
346.576881E-3
346.448135E-3
346.532249E-3
346.777725E-3
346.572304E-3
346.893311E-3
346.695900E-3
346.783447E-3
347.009468E-3
346.782303E-3
347.149086E-3
346.989441E-3
347.105026E-3
347.300720E-3
347.077560E-3
347.475243E-3
347.166252E-3
347.435760E-3
347.808266E-3
347.458649E-3
347.859192E-3
347.727585E-3
347.711563E-3
347.988510E-3
347.759056E-3
348.118401E-3
347.920418E-3
348.063469E-3
348.296928E-3
348.080635E-3
348.295212E-3
348.053169E-3
348.098373E-3
348.389626E-3
348.034286E-3
348.348427E-3
348.044586E-3
348.126411E-3
348.355865E-3
348.027420E-3
348.143578E-3
348.197937E-3
348.139000E-3
348.356438E-3
347.982216E-3
348.244858E-3
348.034859E-3
348.124123E-3
348.329544E-3
347.861481E-3
347.782516E-3
347.117043E-3
346.875000E-3
346.703339E-3
346.040726E-3
346.080780E-3
345.703697E-3
345.442772E-3
345.671082E-3
345.296288E-3
345.585823E-3
345.532036E-3
345.646477E-3
345.778656E-3
345.565224E-3
345.790672E-3
345.551491E-3
345.460510E-3
345.770645E-3
345.502281E-3
345.919991E-3
345.749474E-3
345.803833E-3
346.147728E-3
345.879936E-3
346.269035E-3
346.160316E-3
346.201515E-3
346.355438E-3
346.123123E-3
346.492767E-3
346.329689E-3
346.317101E-3
346.591187E-3
346.302795E-3
346.624947E-3
346.698761E-3
346.656418E-3
347.018051E-3
346.731377E-3
347.017479E-3
347.079849E-3
346.885300E-3
347.245789E-3
346.966553E-3
347.323608E-3
347.242355E-3
347.277260E-3
347.455215E-3
347.237778E-3
347.615433E-3
347.522736E-3
347.406578E-3
347.734451E-3
347.410583E-3
347.740746E-3
347.720718E-3
347.544479E-3
347.831726E-3
347.613716E-3
347.840309E-3
347.767639E-3
347.655487E-3
348.074913E-3
347.794533E-3
348.103523E-3
348.151016E-3
347.932434E-3
348.238564E-3
347.856903E-3
347.974205E-3
347.624588E-3
347.075844E-3
347.073555E-3
346.546555E-3
346.556854E-3
346.308517E-3
345.945740E-3
346.172333E-3
345.911407E-3
346.110535E-3
346.063042E-3
345.749474E-3
346.175194E-3
345.998955E-3
346.239281E-3
346.218681E-3
345.982361E-3
346.357155E-3
346.220970E-3
346.538544E-3
346.466446E-3
346.321678E-3
346.832085E-3
346.566010E-3
346.901894E-3
346.888161E-3
346.655846E-3
346.995163E-3
346.812630E-3
347.007751E-3
347.103882E-3
346.952820E-3
347.222900E-3
347.162819E-3
347.449493E-3
347.406006E-3
347.208595E-3
347.669792E-3
347.430038E-3
347.639465E-3
347.740746E-3
347.518158E-3
347.926140E-3
347.679520E-3
347.988510E-3
348.013115E-3
347.895813E-3
348.255157E-3
348.056602E-3
348.287201E-3
348.323250E-3
348.112106E-3
348.457146E-3
348.137283E-3
348.311234E-3
348.288918E-3
348.173332E-3
348.522377E-3
348.295212E-3
348.437119E-3
348.319817E-3
348.229408E-3
348.599625E-3
348.241425E-3
348.408508E-3
348.607635E-3
348.296928E-3
348.583031E-3
348.280907E-3
348.153305E-3
347.879219E-3
347.257233E-3
347.348785E-3
346.780586E-3
346.647835E-3
346.510506E-3
346.074486E-3
346.277046E-3
345.882225E-3
345.858765E-3
345.968056E-3
345.716858E-3
346.113968E-3
345.770073E-3
345.779228E-3
345.981789E-3
345.796394E-3
346.332550E-3
345.976639E-3
346.106529E-3
346.278763E-3
346.128845E-3
346.600342E-3
346.266747E-3
346.467590E-3
346.540260E-3
346.343422E-3
346.797180E-3
346.416664E-3
346.466446E-3
346.746254E-3
346.532822E-3
347.005463E-3
346.822357E-3
346.904755E-3
347.083855E-3
346.825790E-3
347.177696E-3
346.889305E-3
347.000885E-3
347.129631E-3
346.956253E-3
347.469521E-3
347.282982E-3
347.494698E-3
347.674370E-3
347.561646E-3
347.885513E-3
347.710419E-3
347.770500E-3
347.947884E-3
347.785950E-3
348.056602E-3
347.773933E-3
347.785950E-3
348.021698E-3
347.776222E-3
348.205948E-3
348.001099E-3
348.057747E-3
348.315239E-3
348.056602E-3
348.414230E-3
348.204231E-3
348.352432E-3
348.492622E-3
348.224258E-3
348.577881E-3
348.256302E-3
348.105812E-3
348.069191E-3
347.401428E-3
347.482109E-3
346.946526E-3
346.723938E-3
346.739960E-3
346.193504E-3
346.372032E-3
346.121407E-3
346.172905E-3
346.373749E-3
346.128845E-3
346.559143E-3
346.255302E-3
346.388054E-3
346.640396E-3
346.335983E-3
346.666145E-3
346.610069E-3
346.600342E-3
346.944809E-3
346.689606E-3
346.992302E-3
346.794319E-3
346.921349E-3
347.147942E-3
346.832657E-3
347.147369E-3
347.046089E-3
346.995163E-3
347.276115E-3
347.054672E-3
347.444344E-3
347.305298E-3
347.315598E-3
347.606850E-3
347.345352E-3
347.718430E-3
347.523880E-3
347.552490E-3
347.824860E-3
347.582245E-3
347.947884E-3
347.817421E-3
347.847748E-3
348.177338E-3
347.971916E-3
348.308372E-3
348.160172E-3
348.224258E-3
348.348427E-3
348.030853E-3
348.369026E-3
348.244858E-3
348.177910E-3
348.481750E-3
348.189354E-3
348.480034E-3
348.417664E-3
348.316383E-3
348.491478E-3
348.270035E-3
348.614502E-3
348.518944E-3
348.450279E-3
348.884583E-3
348.564720E-3
348.785591E-3
348.607063E-3
348.310089E-3
348.171616E-3
347.486115E-3
347.449493E-3
347.012329E-3
346.631813E-3
346.640396E-3
346.174049E-3
346.485329E-3
346.315956E-3
346.095085E-3
346.353722E-3
346.151161E-3
346.428680E-3
346.329117E-3
346.248436E-3
346.451569E-3
346.170616E-3
346.474457E-3
346.347427E-3
346.344566E-3
346.715927E-3
346.361160E-3
346.802902E-3
346.689606E-3
346.587181E-3
346.868134E-3
346.598053E-3
346.865845E-3
346.846390E-3
346.841240E-3
347.170830E-3
346.904755E-3
347.250366E-3
347.270393E-3
347.043800E-3
347.396851E-3
347.203445E-3
347.504997E-3
347.526169E-3
347.431183E-3
347.689247E-3
347.554779E-3
347.915268E-3
347.842598E-3
347.697830E-3
347.924423E-3
347.782516E-3
348.076057E-3
348.074341E-3
347.931290E-3
348.127556E-3
347.845459E-3
348.113823E-3
348.089790E-3
347.933006E-3
348.223114E-3
347.894669E-3
348.214531E-3
348.139572E-3
347.889519E-3
348.208237E-3
347.911263E-3
348.282623E-3
348.129845E-3
347.907257E-3
348.264885E-3
348.130417E-3
348.485184E-3
348.339844E-3
347.945595E-3
348.090363E-3
347.669220E-3
347.324181E-3
346.864128E-3
346.303368E-3
346.309662E-3
345.883369E-3
345.829582E-3
345.526314E-3
345.193863E-3
345.401001E-3
