Notes :


2023-10-31 ¿ÀÀü 12:08:32
Volts
Ch : LED 2,
164.313126E-3
165.102196E-3
164.838982E-3
164.924812E-3
165.596581E-3
165.217781E-3
166.342163E-3
166.318703E-3
166.783905E-3
167.891121E-3
168.322563E-3
169.892120E-3
170.700073E-3
171.498871E-3
172.638702E-3
172.542000E-3
173.337364E-3
172.878456E-3
172.536850E-3
172.810364E-3
171.867943E-3
172.416115E-3
171.810722E-3
171.789551E-3
172.562599E-3
172.231865E-3
173.348808E-3
173.436928E-3
173.819160E-3
174.909782E-3
174.725533E-3
175.845337E-3
176.087379E-3
176.166344E-3
177.147675E-3
176.925087E-3
177.830887E-3
177.688408E-3
177.595139E-3
178.147888E-3
177.525902E-3
178.158188E-3
177.707863E-3
177.588272E-3
178.230858E-3
177.557373E-3
178.226280E-3
178.199387E-3
178.287506E-3
179.051971E-3
178.981590E-3
179.795837E-3
180.044746E-3
179.997253E-3
181.043816E-3
180.857277E-3
181.803703E-3
181.970787E-3
181.969643E-3
182.336998E-3
180.987167E-3
180.210686E-3
178.193665E-3
176.088524E-3
174.764442E-3
172.659874E-3
171.849632E-3
170.797920E-3
170.005417E-3
170.588493E-3
170.169640E-3
170.866013E-3
171.191597E-3
171.316910E-3
172.501373E-3
172.512817E-3
173.645782E-3
174.034882E-3
174.478912E-3
176.062202E-3
176.446152E-3
178.127289E-3
178.658295E-3
179.215050E-3
180.173492E-3
179.716301E-3
179.945755E-3
179.529762E-3
178.763580E-3
179.091454E-3
178.169632E-3
178.303528E-3
178.247452E-3
177.858925E-3
178.884315E-3
178.505516E-3
179.456520E-3
179.807854E-3
180.031013E-3
181.163406E-3
180.877304E-3
181.850624E-3
182.028580E-3
182.128143E-3
182.996750E-3
182.623100E-3
183.209038E-3
183.287430E-3
183.170700E-3
183.648491E-3
182.804489E-3
183.147240E-3
183.127213E-3
182.701492E-3
183.301163E-3
182.598495E-3
183.173561E-3
183.067703E-3
182.792473E-3
183.465385E-3
182.851982E-3
183.657074E-3
183.718300E-3
183.665657E-3
184.255028E-3
183.635330E-3
183.746338E-3
183.543205E-3
182.572746E-3
182.212257E-3
180.134583E-3
178.606796E-3
176.653862E-3
174.132729E-3
172.952843E-3
170.841408E-3
170.231438E-3
169.641495E-3
168.953133E-3
169.698715E-3
169.239807E-3
169.894409E-3
170.248032E-3
170.201111E-3
171.113777E-3
170.932388E-3
171.513748E-3
172.252464E-3
172.453308E-3
173.824310E-3
173.812866E-3
174.677467E-3
175.295448E-3
175.004196E-3
175.895119E-3
175.086021E-3
175.551224E-3
175.531197E-3
174.950981E-3
175.594711E-3
175.067711E-3
175.572968E-3
176.071930E-3
176.140594E-3
177.128792E-3
177.081299E-3
177.623749E-3
178.186798E-3
177.940750E-3
178.931236E-3
178.625107E-3
179.053116E-3
179.674530E-3
179.351234E-3
180.309677E-3
179.692268E-3
180.011559E-3
180.039024E-3
179.475975E-3
180.103111E-3
179.475403E-3
179.713440E-3
180.022430E-3
179.688835E-3
180.253601E-3
179.956627E-3
180.202103E-3
181.047821E-3
180.778313E-3
181.892967E-3
181.666374E-3
182.223129E-3
182.734680E-3
182.274055E-3
183.093452E-3
182.593346E-3
182.646561E-3
181.925011E-3
180.188942E-3
179.207039E-3
176.943398E-3
175.293732E-3
173.831749E-3
171.990967E-3
171.681404E-3
170.785332E-3
170.874596E-3
171.433640E-3
171.223068E-3
172.205544E-3
172.245026E-3
172.978020E-3
173.737907E-3
173.583412E-3
174.461174E-3
174.495506E-3
175.502586E-3
176.221848E-3
176.391220E-3
177.545929E-3
177.627754E-3
177.942467E-3
178.548431E-3
177.790833E-3
178.235435E-3
177.517891E-3
177.450943E-3
177.662086E-3
177.052116E-3
177.841759E-3
177.614594E-3
178.005409E-3
178.728104E-3
178.534698E-3
179.608154E-3
179.791832E-3
180.211258E-3
180.863571E-3
180.554008E-3
181.516457E-3
181.665230E-3
181.890678E-3
182.403374E-3
182.001686E-3
182.833672E-3
182.653427E-3
182.621956E-3
183.064842E-3
182.528687E-3
183.380699E-3
183.076286E-3
183.174133E-3
183.631325E-3
183.190727E-3
183.888817E-3
183.519173E-3
183.607292E-3
184.169769E-3
183.695984E-3
184.610367E-3
184.588623E-3
184.896469E-3
185.567093E-3
185.227776E-3
185.950470E-3
185.212898E-3
184.232712E-3
183.092880E-3
180.675316E-3
179.346657E-3
176.985741E-3
175.366974E-3
174.559021E-3
173.081017E-3
173.249817E-3
172.727966E-3
172.683334E-3
173.172569E-3
172.799492E-3
173.780823E-3
173.975372E-3
174.180222E-3
175.137520E-3
174.836540E-3
176.099396E-3
176.543999E-3
177.320480E-3
178.621674E-3
178.836250E-3
180.227852E-3
180.382919E-3
180.505371E-3
181.052399E-3
180.269623E-3
180.710220E-3
180.303955E-3
180.029297E-3
180.269623E-3
179.629898E-3
180.302811E-3
180.196953E-3
180.303383E-3
181.358528E-3
181.403160E-3
182.561302E-3
182.950974E-3
182.999039E-3
183.892250E-3
183.358955E-3
184.193230E-3
183.985519E-3
184.020996E-3
184.596062E-3
183.997536E-3
184.531975E-3
184.235001E-3
184.089088E-3
184.599495E-3
184.115982E-3
184.556580E-3
184.494209E-3
184.138870E-3
184.898186E-3
184.496498E-3
184.935379E-3
184.821510E-3
184.553146E-3
185.437202E-3
184.984016E-3
185.773659E-3
185.765076E-3
185.853767E-3
186.500359E-3
186.068344E-3
186.557007E-3
186.064911E-3
184.624672E-3
183.729744E-3
180.985451E-3
179.195023E-3
177.053261E-3
174.802208E-3
174.240303E-3
172.797775E-3
172.855568E-3
172.482491E-3
172.237587E-3
173.207474E-3
172.832108E-3
173.573112E-3
173.788834E-3
173.904991E-3
174.937820E-3
174.838829E-3
175.764656E-3
176.541710E-3
177.283859E-3
178.922653E-3
179.239655E-3
180.250168E-3
180.607224E-3
180.502510E-3
181.196022E-3
180.412674E-3
180.637550E-3
179.980659E-3
179.341507E-3
179.669380E-3
178.878021E-3
179.580116E-3
179.777527E-3
179.751778E-3
180.707932E-3
180.666161E-3
181.363106E-3
181.965637E-3
182.287216E-3
183.364105E-3
183.021355E-3
183.629608E-3
183.843613E-3
183.703423E-3
184.325981E-3
183.655930E-3
184.122849E-3
183.999825E-3
183.574677E-3
184.179497E-3
183.308029E-3
183.717728E-3
183.797264E-3
183.512878E-3
184.184647E-3
183.673668E-3
184.141159E-3
184.357452E-3
184.186935E-3
185.156250E-3
184.650421E-3
185.162544E-3
185.357094E-3
184.864426E-3
185.545921E-3
184.954834E-3
185.434341E-3
185.167122E-3
184.064484E-3
183.451653E-3
181.303024E-3
179.565811E-3
177.695274E-3
175.458527E-3
174.429703E-3
172.589493E-3
171.926308E-3
171.692848E-3
170.823097E-3
171.553230E-3
171.101189E-3
171.658516E-3
172.128868E-3
171.946335E-3
173.056984E-3
172.876167E-3
173.783112E-3
174.628258E-3
175.096893E-3
176.696777E-3
177.087021E-3
178.027153E-3
179.016495E-3
178.831100E-3
179.677963E-3
178.924942E-3
178.923798E-3
178.884315E-3
177.824593E-3
178.228569E-3
177.297592E-3
177.747917E-3
177.958488E-3
177.734756E-3
178.646278E-3
178.463173E-3
179.158401E-3
179.863930E-3
179.806709E-3
180.747986E-3
180.583191E-3
181.152534E-3
181.606865E-3
181.218338E-3
182.124710E-3
181.513596E-3
181.757355E-3
182.003403E-3
181.311607E-3
181.855774E-3
181.313896E-3
181.593132E-3
181.635475E-3
181.128502E-3
181.739616E-3
181.430054E-3
181.589699E-3
181.977081E-3
181.655502E-3
182.306099E-3
182.061768E-3
182.434273E-3
182.987022E-3
182.583046E-3
183.350372E-3
182.862282E-3
183.310318E-3
183.748055E-3
183.142662E-3
183.267403E-3
181.832314E-3
180.721092E-3
179.358101E-3
177.050972E-3
175.753784E-3
173.820877E-3
172.862434E-3
172.311974E-3
171.228790E-3
171.710587E-3
171.362114E-3
171.631622E-3
172.452164E-3
172.031593E-3
173.034668E-3
172.850418E-3
173.396873E-3
174.160194E-3
174.237442E-3
175.845337E-3
176.279640E-3
177.274132E-3
178.180504E-3
178.061485E-3
179.034233E-3
178.684616E-3
178.777313E-3
179.009056E-3
178.195381E-3
178.746414E-3
178.206253E-3
178.193665E-3
178.660583E-3
178.201675E-3
179.326630E-3
179.267120E-3
179.536629E-3
180.385208E-3
180.182076E-3
181.426048E-3
181.343651E-3
181.759644E-3
182.312965E-3
181.926727E-3
182.944107E-3
182.797623E-3
182.882881E-3
183.273697E-3
182.784462E-3
183.562088E-3
183.384132E-3
183.344650E-3
183.725739E-3
183.013916E-3
183.824730E-3
183.366394E-3
183.287430E-3
183.853912E-3
183.280563E-3
184.266472E-3
183.939743E-3
184.194946E-3
184.620094E-3
184.265327E-3
184.879875E-3
184.976006E-3
184.902191E-3
185.628319E-3
185.234642E-3
185.388565E-3
184.106255E-3
182.417107E-3
181.216049E-3
178.624535E-3
177.470398E-3
175.492859E-3
174.067497E-3
173.556519E-3
172.285080E-3
172.584915E-3
172.376060E-3
172.477341E-3
173.402596E-3
173.430061E-3
174.449158E-3
174.605942E-3
174.830818E-3
175.890541E-3
175.880814E-3
177.176285E-3
177.603149E-3
178.043175E-3
179.252815E-3
179.000473E-3
180.013275E-3
179.811859E-3
179.649925E-3
180.091095E-3
179.194450E-3
179.567528E-3
179.277420E-3
179.110909E-3
179.789543E-3
179.439354E-3
180.171776E-3
180.476761E-3
180.652428E-3
181.638908E-3
181.374550E-3
182.187080E-3
182.123566E-3
182.053185E-3
182.833099E-3
182.437134E-3
183.266830E-3
183.040810E-3
182.929802E-3
183.658791E-3
183.238792E-3
183.823586E-3
183.595276E-3
183.396149E-3
183.918571E-3
183.409309E-3
183.910561E-3
183.815002E-3
183.634758E-3
184.342575E-3
184.004402E-3
184.760284E-3
184.842110E-3
184.751129E-3
185.790825E-3
185.460663E-3
186.323547E-3
186.270332E-3
186.162758E-3
186.930656E-3
186.403084E-3
186.337280E-3
185.003471E-3
183.150101E-3
181.970787E-3
179.519463E-3
177.898407E-3
176.130295E-3
174.565315E-3
174.294662E-3
173.245239E-3
173.405457E-3
173.483276E-3
173.350525E-3
174.342155E-3
174.179077E-3
175.124359E-3
175.192451E-3
175.245094E-3
176.145744E-3
176.021576E-3
177.283287E-3
177.824020E-3
178.577614E-3
179.806709E-3
179.661942E-3
180.325127E-3
180.566597E-3
180.228996E-3
180.779457E-3
179.812431E-3
179.987526E-3
179.808426E-3
179.089165E-3
179.780960E-3
178.981018E-3
179.653931E-3
179.881668E-3
180.044174E-3
181.222916E-3
180.907059E-3
181.755066E-3
182.063484E-3
181.975365E-3
182.932663E-3
182.436562E-3
182.988167E-3
183.176422E-3
183.043671E-3
183.812714E-3
183.242226E-3
183.678818E-3
183.774948E-3
183.222198E-3
183.857346E-3
183.083725E-3
183.502007E-3
183.665657E-3
183.222771E-3
184.010124E-3
183.322906E-3
183.994675E-3
184.268761E-3
184.190941E-3
185.097885E-3
184.870148E-3
185.306168E-3
185.791397E-3
185.480690E-3
186.282349E-3
185.691261E-3
185.520744E-3
184.793472E-3
183.063126E-3
182.009697E-3
179.285431E-3
177.678108E-3
176.019287E-3
174.120712E-3
173.641777E-3
172.389793E-3
172.281647E-3
172.521400E-3
172.208405E-3
173.133087E-3
172.962570E-3
173.613167E-3
174.348450E-3
174.075508E-3
175.032806E-3
174.834251E-3
175.774956E-3
176.819801E-3
176.985168E-3
178.523827E-3
178.352737E-3
179.210472E-3
179.540062E-3
179.103470E-3
179.548073E-3
178.826523E-3
178.916931E-3
178.931236E-3
178.329277E-3
178.863716E-3
178.429985E-3
178.894043E-3
179.421616E-3
179.209900E-3
180.198097E-3
179.989815E-3
180.807495E-3
181.521034E-3
181.415176E-3
182.364464E-3
182.151604E-3
182.557297E-3
182.884598E-3
182.499504E-3
183.138657E-3
182.700920E-3
183.027077E-3
183.186150E-3
182.690048E-3
183.229637E-3
182.707214E-3
182.905769E-3
183.083725E-3
182.587051E-3
183.082581E-3
182.765007E-3
183.087158E-3
183.567238E-3
183.191872E-3
184.018135E-3
183.762360E-3
184.394073E-3
184.683037E-3
184.340286E-3
185.049820E-3
184.833527E-3
185.275269E-3
185.730171E-3
184.712791E-3
184.213257E-3
182.521820E-3
180.800056E-3
179.117203E-3
176.608658E-3
175.623894E-3
173.873520E-3
173.002052E-3
172.898483E-3
172.163200E-3
172.830963E-3
172.551727E-3
173.080444E-3
173.731613E-3
173.575401E-3
174.502373E-3
174.365616E-3
174.933243E-3
175.590706E-3
175.762939E-3
177.006340E-3
177.512741E-3
178.233147E-3
179.108620E-3
178.836250E-3
179.556084E-3
179.091454E-3
178.878593E-3
179.122353E-3
178.078651E-3
178.630829E-3
178.014565E-3
177.994537E-3
178.427696E-3
177.987099E-3
179.054260E-3
179.126358E-3
179.660225E-3
180.389214E-3
180.155754E-3
181.227493E-3
181.225777E-3
181.308174E-3
181.715012E-3
181.067276E-3
181.835175E-3
181.577682E-3
181.612587E-3
182.037163E-3
181.474113E-3
182.349014E-3
181.859779E-3
181.936455E-3
182.207108E-3
181.672096E-3
182.427406E-3
182.063484E-3
182.063484E-3
182.504082E-3
181.922150E-3
182.790756E-3
182.873154E-3
182.798767E-3
183.322906E-3
182.904053E-3
183.682251E-3
183.610725E-3
183.542633E-3
184.170914E-3
183.282852E-3
183.428764E-3
181.878090E-3
180.394936E-3
178.990746E-3
176.536560E-3
175.457382E-3
173.669243E-3
172.567749E-3
172.231865E-3
171.328354E-3
171.839905E-3
171.819305E-3
171.984673E-3
173.060989E-3
173.063850E-3
174.251175E-3
174.120140E-3
174.371338E-3
175.324059E-3
175.334930E-3
176.662445E-3
177.020645E-3
177.667236E-3
178.593636E-3
178.207970E-3
178.917503E-3
178.610802E-3
178.147888E-3
178.577042E-3
177.830887E-3
178.345871E-3
178.169632E-3
177.933884E-3
178.911209E-3
178.531265E-3
179.610443E-3
179.834747E-3
179.990387E-3
180.939102E-3
180.903053E-3
181.899261E-3
182.068634E-3
182.082939E-3
182.908058E-3
182.439423E-3
182.973289E-3
182.829094E-3
182.606506E-3
183.366394E-3
182.748413E-3
183.277702E-3
183.071136E-3
182.766151E-3
183.358955E-3
182.749557E-3
183.412170E-3
183.166695E-3
183.167839E-3
183.747482E-3
183.449936E-3
183.883667E-3
183.979225E-3
183.797836E-3
184.529114E-3
184.203529E-3
184.688187E-3
184.789467E-3
184.619522E-3
185.286713E-3
184.564018E-3
184.398651E-3
182.953262E-3
181.202316E-3
180.035591E-3
177.679253E-3
176.492500E-3
174.933815E-3
173.884964E-3
173.748207E-3
173.024940E-3
173.277855E-3
173.485565E-3
173.461533E-3
174.500656E-3
174.378777E-3
175.094604E-3
175.554657E-3
175.419617E-3
176.596069E-3
176.481628E-3
177.687263E-3
178.141594E-3
178.641129E-3
179.949188E-3
179.680252E-3
180.428696E-3
180.211258E-3
179.999542E-3
180.251884E-3
179.344940E-3
179.524612E-3
179.411888E-3
179.153824E-3
179.911423E-3
179.547501E-3
180.332565E-3
180.877304E-3
181.047249E-3
182.206535E-3
181.914139E-3
182.706642E-3
182.980156E-3
182.904625E-3
183.841896E-3
183.368683E-3
184.058762E-3
183.990097E-3
183.780098E-3
184.375191E-3
183.629036E-3
183.908272E-3
183.983803E-3
183.661652E-3
184.310532E-3
183.652496E-3
184.073067E-3
184.296227E-3
184.045029E-3
185.041237E-3
184.546852E-3
185.184288E-3
185.502434E-3
185.260963E-3
186.241722E-3
185.633469E-3
186.347008E-3
186.507797E-3
186.325836E-3
186.836243E-3
185.777664E-3
184.994888E-3
183.820152E-3
181.524467E-3
180.211258E-3
177.684975E-3
176.255608E-3
175.310326E-3
173.906136E-3
174.269485E-3
173.246384E-3
173.793411E-3
174.180794E-3
174.033165E-3
174.933243E-3
174.641418E-3
175.429916E-3
175.787544E-3
175.718307E-3
176.732254E-3
176.832390E-3
177.818871E-3
178.902626E-3
179.041100E-3
180.271339E-3
180.020714E-3
180.343437E-3
180.541420E-3
179.774094E-3
180.257034E-3
179.233360E-3
179.308891E-3
179.443359E-3
178.776741E-3
179.473686E-3
178.987885E-3
179.584694E-3
179.901695E-3
179.918861E-3
180.889893E-3
180.707359E-3
181.442070E-3
182.054901E-3
181.908989E-3
182.889748E-3
182.600212E-3
182.917786E-3
183.448792E-3
182.920647E-3
183.403015E-3
182.671738E-3
182.929802E-3
183.171272E-3
182.603645E-3
183.183289E-3
182.703781E-3
182.993317E-3
183.301735E-3
182.944679E-3
183.673668E-3
