Notes :


2023-11-04 ¿ÀÀü 12:20:57
Volts
Ch : LED 2,
204.684448E-3
204.944229E-3
204.688454E-3
204.967690E-3
205.018616E-3
204.863548E-3
205.192566E-3
205.099869E-3
205.318451E-3
205.420303E-3
205.074120E-3
205.376244E-3
205.139923E-3
205.428886E-3
205.474663E-3
205.284119E-3
205.605125E-3
205.312729E-3
205.679512E-3
205.773354E-3
205.712128E-3
206.016541E-3
205.825424E-3
206.205368E-3
206.141853E-3
206.162453E-3
206.343269E-3
205.952454E-3
206.241417E-3
206.277466E-3
206.123543E-3
206.473160E-3
206.251717E-3
206.320953E-3
206.307793E-3
205.855179E-3
205.908394E-3
205.174255E-3
205.028343E-3
204.540253E-3
204.020691E-3
203.961754E-3
203.308296E-3
203.394127E-3
203.281403E-3
203.082848E-3
203.315735E-3
202.956963E-3
203.116035E-3
203.169823E-3
203.119469E-3
203.447914E-3
203.168106E-3
203.387833E-3
203.594398E-3
203.651047E-3
204.084206E-3
203.973198E-3
204.219246E-3
204.588890E-3
204.404640E-3
204.842949E-3
204.530525E-3
204.755974E-3
204.834938E-3
204.730225E-3
204.909325E-3
204.588318E-3
204.706764E-3
204.899597E-3
204.694748E-3
204.967690E-3
204.709053E-3
204.927635E-3
205.070114E-3
204.981422E-3
205.306435E-3
205.153084E-3
205.252075E-3
205.462646E-3
205.230904E-3
205.528450E-3
205.153656E-3
205.385399E-3
205.590248E-3
205.513573E-3
205.868340E-3
205.397415E-3
205.726433E-3
205.878639E-3
205.704117E-3
206.100082E-3
205.809975E-3
206.040573E-3
206.137276E-3
206.244850E-3
206.579018E-3
206.254578E-3
206.438828E-3
206.652260E-3
206.568146E-3
206.770706E-3
206.428528E-3
206.528091E-3
206.727219E-3
206.504059E-3
206.795311E-3
206.312943E-3
206.314087E-3
206.130981E-3
205.713844E-3
205.677223E-3
204.750252E-3
204.473305E-3
204.255295E-3
203.915405E-3
204.019547E-3
203.526306E-3
203.607559E-3
203.830719E-3
203.870773E-3
204.108238E-3
203.823280E-3
203.841591E-3
204.156303E-3
204.191780E-3
204.635811E-3
204.445839E-3
204.679871E-3
205.082130E-3
204.976845E-3
205.282402E-3
204.954529E-3
205.111313E-3
205.399132E-3
205.299568E-3
205.542183E-3
205.166245E-3
205.274391E-3
205.447769E-3
205.353928E-3
205.545044E-3
205.313873E-3
205.296135E-3
205.545616E-3
205.430031E-3
205.696678E-3
205.555344E-3
205.601692E-3
205.961037E-3
205.689240E-3
205.971909E-3
205.690384E-3
205.766487E-3
206.196785E-3
205.796814E-3
206.050873E-3
205.830574E-3
205.926704E-3
206.213951E-3
205.987930E-3
206.207657E-3
205.942154E-3
206.077194E-3
206.277466E-3
206.096649E-3
206.364441E-3
206.247139E-3
206.277466E-3
206.566429E-3
206.335831E-3
206.461143E-3
206.383324E-3
206.404495E-3
206.600761E-3
206.357574E-3
206.492043E-3
206.324387E-3
206.302071E-3
206.472588E-3
205.916405E-3
205.823708E-3
205.107307E-3
204.824066E-3
204.510498E-3
203.879929E-3
203.788376E-3
203.392410E-3
203.283691E-3
203.577805E-3
203.297997E-3
203.384399E-3
203.518867E-3
203.281975E-3
203.652191E-3
203.635025E-3
203.812408E-3
203.873634E-3
204.098511E-3
204.414940E-3
204.328537E-3
204.656982E-3
204.596901E-3
204.813766E-3
204.983711E-3
204.683304E-3
204.922485E-3
204.741669E-3
204.634094E-3
205.004311E-3
204.698181E-3
204.854965E-3
204.953957E-3
204.872704E-3
205.097008E-3
204.773712E-3
205.057526E-3
204.801178E-3
204.905319E-3
205.057526E-3
204.887009E-3
205.055809E-3
205.095863E-3
205.115891E-3
205.296135E-3
205.198288E-3
205.420876E-3
205.527878E-3
205.297852E-3
205.593109E-3
205.372238E-3
205.731583E-3
205.752182E-3
205.571365E-3
205.985069E-3
205.615997E-3
205.987358E-3
205.946732E-3
206.014252E-3
206.162453E-3
205.898666E-3
206.181908E-3
206.155014E-3
206.023979E-3
206.292343E-3
206.140709E-3
206.379318E-3
206.438255E-3
206.219673E-3
206.410789E-3
206.173897E-3
206.333542E-3
205.986214E-3
205.420303E-3
205.324745E-3
204.492760E-3
204.360580E-3
203.826714E-3
203.428459E-3
203.487968E-3
203.224754E-3
203.326035E-3
203.349495E-3
203.322029E-3
203.661919E-3
203.527451E-3
203.801537E-3
203.892517E-3
203.632164E-3
204.114532E-3
203.975487E-3
204.410934E-3
204.602051E-3
204.569435E-3
205.050659E-3
204.723358E-3
205.119324E-3
205.077553E-3
204.901886E-3
205.238914E-3
204.905891E-3
205.150795E-3
205.178833E-3
205.090141E-3
205.392265E-3
204.991722E-3
205.264664E-3
205.252075E-3
205.032349E-3
205.436897E-3
205.100441E-3
205.472946E-3
205.606842E-3
205.435181E-3
205.851746E-3
205.529594E-3
205.822563E-3
205.783081E-3
205.702972E-3
206.012535E-3
205.683517E-3
205.841446E-3
205.880356E-3
205.890083E-3
206.167603E-3
205.942726E-3
206.262016E-3
206.412506E-3
206.203651E-3
206.518364E-3
206.324959E-3
206.312943E-3
206.557274E-3
206.336975E-3
206.635094E-3
206.379890E-3
206.529808E-3
206.596756E-3
206.571579E-3
206.815910E-3
206.589890E-3
206.747246E-3
206.726646E-3
206.673431E-3
206.752968E-3
206.192207E-3
206.076050E-3
205.871201E-3
205.245781E-3
205.067253E-3
204.386902E-3
204.025269E-3
203.853035E-3
203.386116E-3
203.488541E-3
203.138924E-3
203.252220E-3
203.310013E-3
203.221321E-3
203.514862E-3
203.078842E-3
203.446770E-3
203.568077E-3
203.469658E-3
203.959465E-3
203.697968E-3
204.037857E-3
204.323387E-3
204.358292E-3
204.663277E-3
204.532814E-3
204.465294E-3
204.697037E-3
204.580307E-3
204.865837E-3
204.437828E-3
204.668999E-3
204.815483E-3
204.627228E-3
204.903030E-3
204.412651E-3
204.644966E-3
204.717636E-3
204.713058E-3
205.101013E-3
204.789162E-3
204.912758E-3
205.256653E-3
205.064964E-3
205.405426E-3
205.084991E-3
205.233192E-3
205.525589E-3
205.385971E-3
205.773354E-3
205.282974E-3
205.460930E-3
205.742455E-3
205.673218E-3
205.986786E-3
205.637169E-3
205.772209E-3
205.981064E-3
205.760765E-3
206.100082E-3
205.772209E-3
205.875206E-3
206.258583E-3
205.998230E-3
206.313515E-3
206.098366E-3
206.140709E-3
206.486320E-3
206.100655E-3
206.347847E-3
206.030846E-3
206.282043E-3
206.524658E-3
206.316376E-3
206.496620E-3
206.030846E-3
205.834579E-3
205.571938E-3
204.922485E-3
204.703331E-3
204.024696E-3
203.574944E-3
203.684807E-3
203.218460E-3
203.410149E-3
203.128624E-3
203.086281E-3
203.404427E-3
203.051376E-3
203.284264E-3
203.073692E-3
203.224182E-3
203.438187E-3
203.327751E-3
203.604126E-3
203.607559E-3
203.896523E-3
204.235268E-3
204.116821E-3
204.388046E-3
204.428673E-3
204.427528E-3
204.693031E-3
204.329109E-3
204.570580E-3
204.388618E-3
204.302216E-3
204.770851E-3
204.372025E-3
204.551125E-3
204.487038E-3
204.495049E-3
204.925919E-3
204.660988E-3
204.805756E-3
204.769707E-3
204.873276E-3
205.097580E-3
204.945374E-3
205.150795E-3
205.157661E-3
205.124474E-3
205.466080E-3
205.304718E-3
205.570793E-3
205.575943E-3
205.441475E-3
205.741882E-3
205.526161E-3
205.755615E-3
205.695534E-3
205.694962E-3
205.907822E-3
205.693817E-3
205.998230E-3
205.821419E-3
205.914688E-3
206.168175E-3
205.963326E-3
206.268311E-3
206.097794E-3
206.030846E-3
206.377602E-3
206.084061E-3
206.241417E-3
206.276321E-3
206.151009E-3
206.448555E-3
206.219673E-3
206.362724E-3
206.141853E-3
205.812836E-3
205.674934E-3
205.090714E-3
204.877281E-3
204.341698E-3
203.891945E-3
203.893089E-3
203.477097E-3
203.489685E-3
203.537750E-3
203.336906E-3
203.678513E-3
203.627586E-3
203.774643E-3
203.952026E-3
203.880501E-3
204.210091E-3
204.064751E-3
204.590034E-3
204.763985E-3
204.682159E-3
205.034065E-3
204.884148E-3
205.256081E-3
205.270386E-3
205.210304E-3
205.468369E-3
205.075264E-3
205.392838E-3
205.413437E-3
205.214310E-3
205.507851E-3
205.309868E-3
205.367661E-3
205.503273E-3
205.363083E-3
205.685806E-3
205.506134E-3
205.892944E-3
205.863762E-3
205.736160E-3
206.188202E-3
205.884933E-3
206.170464E-3
206.256866E-3
206.226540E-3
206.517220E-3
206.272316E-3
206.622505E-3
206.727219E-3
206.516647E-3
206.935501E-3
206.573296E-3
206.839371E-3
206.968117E-3
206.702614E-3
207.065392E-3
206.878853E-3
207.211304E-3
207.284546E-3
207.095718E-3
207.522011E-3
207.014465E-3
207.470512E-3
207.509422E-3
207.311440E-3
207.595253E-3
207.347488E-3
207.488823E-3
207.658768E-3
207.560349E-3
207.671928E-3
207.222748E-3
207.191277E-3
207.018471E-3
206.316948E-3
206.185913E-3
205.510139E-3
205.321312E-3
205.112457E-3
204.804039E-3
205.002594E-3
204.648972E-3
204.863548E-3
204.958534E-3
204.776001E-3
205.149651E-3
205.042076E-3
205.284119E-3
205.366516E-3
205.371666E-3
205.689812E-3
205.498123E-3
205.797386E-3
206.010246E-3
205.811119E-3
206.116104E-3
205.839157E-3
205.891228E-3
205.899811E-3
205.675507E-3
205.845451E-3
205.457497E-3
205.822563E-3
205.776215E-3
205.752754E-3
206.137848E-3
205.875778E-3
206.003952E-3
206.126976E-3
206.150436E-3
206.399918E-3
206.033707E-3
206.172180E-3
206.434822E-3
206.109810E-3
206.529236E-3
206.288338E-3
206.575012E-3
206.723213E-3
206.372452E-3
206.815910E-3
206.488037E-3
206.805611E-3
206.922340E-3
206.738663E-3
207.048798E-3
206.602478E-3
206.776428E-3
206.931496E-3
206.909180E-3
207.291412E-3
206.851959E-3
206.924057E-3
207.239342E-3
207.073402E-3
207.372093E-3
206.916618E-3
207.076836E-3
207.301712E-3
207.173538E-3
207.366371E-3
206.985855E-3
207.067108E-3
206.949234E-3
206.454849E-3
206.373024E-3
205.455208E-3
205.167961E-3
204.925919E-3
204.432678E-3
204.494476E-3
204.058456E-3
203.981781E-3
204.273605E-3
204.154015E-3
204.407501E-3
204.307938E-3
204.292488E-3
204.589462E-3
204.395485E-3
204.737091E-3
204.712486E-3
204.769135E-3
205.175972E-3
205.098724E-3
205.391121E-3
205.213737E-3
205.381393E-3
205.561638E-3
205.323601E-3
205.405998E-3
205.149078E-3
205.282402E-3
205.634880E-3
205.423164E-3
205.625725E-3
205.418587E-3
205.375671E-3
205.751038E-3
205.445480E-3
205.705833E-3
205.562782E-3
205.578804E-3
205.916977E-3
205.612564E-3
205.868912E-3
205.675507E-3
205.786514E-3
206.115532E-3
205.948448E-3
206.114388E-3
206.016541E-3
206.176186E-3
206.388474E-3
206.148148E-3
206.410217E-3
206.445694E-3
206.529808E-3
207.008171E-3
206.734657E-3
206.956673E-3
206.926918E-3
206.844521E-3
207.171822E-3
206.906891E-3
207.101440E-3
207.024193E-3
206.945801E-3
207.245064E-3
207.060242E-3
207.321167E-3
207.182693E-3
207.163239E-3
207.183266E-3
206.734657E-3
206.561279E-3
206.076622E-3
205.658340E-3
205.405998E-3
204.758263E-3
204.531097E-3
204.277611E-3
204.025841E-3
204.233551E-3
203.931427E-3
204.166603E-3
203.996658E-3
204.121399E-3
204.378319E-3
204.149437E-3
204.414940E-3
204.210091E-3
204.325676E-3
204.849243E-3
204.708481E-3
204.924202E-3
205.015182E-3
204.910469E-3
205.324745E-3
205.103874E-3
205.312729E-3
205.198860E-3
205.083275E-3
205.384254E-3
205.083275E-3
205.321884E-3
205.132484E-3
205.079842E-3
205.341911E-3
205.066681E-3
205.428314E-3
205.383110E-3
205.362511E-3
205.650902E-3
205.358505E-3
205.757332E-3
205.630302E-3
205.599403E-3
205.831146E-3
205.666351E-3
205.787086E-3
205.859184E-3
205.684662E-3
206.065750E-3
205.816269E-3
206.089783E-3
206.164742E-3
206.061745E-3
206.367874E-3
206.077194E-3
206.441689E-3
206.270027E-3
206.289482E-3
206.517792E-3
206.229401E-3
206.443405E-3
206.563568E-3
206.401062E-3
206.651115E-3
206.415939E-3
206.523514E-3
206.723785E-3
206.474304E-3
206.783295E-3
206.451988E-3
206.495476E-3
206.026268E-3
205.594826E-3
205.457497E-3
204.731369E-3
204.406357E-3
204.061890E-3
203.562355E-3
203.620720E-3
203.178978E-3
203.332329E-3
203.247643E-3
202.978134E-3
203.336334E-3
203.033066E-3
203.431320E-3
203.440475E-3
203.242493E-3
203.714561E-3
203.425026E-3
204.076195E-3
204.034996E-3
204.076195E-3
204.433250E-3
204.293633E-3
204.541397E-3
204.604912E-3
204.486465E-3
204.732513E-3
204.435539E-3
204.652405E-3
204.715919E-3
204.333687E-3
204.659843E-3
204.235840E-3
204.446411E-3
204.515076E-3
204.339981E-3
204.602623E-3
204.365158E-3
204.777145E-3
204.749680E-3
204.655266E-3
205.084419E-3
204.813194E-3
205.026627E-3
205.059242E-3
205.003738E-3
205.311584E-3
205.029488E-3
205.245781E-3
205.440331E-3
205.227470E-3
205.638313E-3
205.451775E-3
205.672073E-3
205.646324E-3
205.561638E-3
205.808830E-3
205.423164E-3
205.825424E-3
205.862045E-3
205.681801E-3
205.941582E-3
205.610847E-3
205.869484E-3
206.056595E-3
205.804253E-3
206.027412E-3
205.825996E-3
205.899811E-3
206.129265E-3
205.957603E-3
206.019402E-3
205.413437E-3
205.309868E-3
205.067825E-3
204.423523E-3
204.243851E-3
203.379250E-3
203.164673E-3
202.960968E-3
202.745247E-3
202.797318E-3
202.346992E-3
202.556419E-3
202.558136E-3
202.503204E-3
202.872849E-3
202.588463E-3
202.760124E-3
203.053665E-3
203.105736E-3
203.481674E-3
203.188133E-3
203.576660E-3
203.870201E-3
203.797531E-3
204.400063E-3
203.934860E-3
204.332542E-3
204.541397E-3
204.390907E-3
204.562569E-3
204.180908E-3
204.270172E-3
204.520798E-3
204.379463E-3
204.581451E-3
204.468155E-3
204.516220E-3
204.852104E-3
204.837799E-3
205.070686E-3
204.722786E-3
204.879570E-3
205.197716E-3
204.913902E-3
205.331039E-3
205.083847E-3
205.284691E-3
205.513000E-3
205.422592E-3
205.630302E-3
205.439758E-3
205.617714E-3
205.937004E-3
205.797386E-3
206.074905E-3
205.851173E-3
205.914116E-3
206.240273E-3
205.941582E-3
206.302643E-3
206.175613E-3
206.266594E-3
206.648827E-3
206.300354E-3
206.558990E-3
206.304359E-3
206.468582E-3
206.756973E-3
206.655121E-3
206.936646E-3
206.741524E-3
206.908035E-3
207.039642E-3
206.731796E-3
206.742096E-3
206.340981E-3
206.152725E-3
206.023979E-3
205.296707E-3
205.130196E-3
204.583740E-3
204.429817E-3
204.566002E-3
204.258728E-3
204.562569E-3
204.497337E-3
204.388046E-3
204.830933E-3
204.615211E-3
204.933357E-3
204.766846E-3
205.068398E-3
205.442619E-3
205.400276E-3
205.745888E-3
205.995941E-3
206.104088E-3
206.291199E-3
206.116104E-3
206.311798E-3
206.319809E-3
206.339264E-3
206.544113E-3
206.255722E-3
206.500053E-3
206.389618E-3
206.294060E-3
206.620216E-3
206.319237E-3
206.587029E-3
206.446838E-3
206.460571E-3
206.876564E-3
206.579018E-3
206.762695E-3
206.747246E-3
206.773567E-3
206.998444E-3
206.863403E-3
207.124329E-3
207.149506E-3
207.060242E-3
207.378960E-3
207.094574E-3
207.394981E-3
207.402992E-3
207.313728E-3
207.556915E-3
207.323456E-3
207.530594E-3
207.403564E-3
207.441330E-3
207.705116E-3
207.485390E-3
207.745171E-3
207.648468E-3
207.674217E-3
207.801247E-3
207.567787E-3
207.761765E-3
207.725143E-3
207.672501E-3
207.925415E-3
207.661057E-3
207.954025E-3
207.843590E-3
207.403564E-3
207.561493E-3
207.069969E-3
206.995010E-3
206.380463E-3
205.816269E-3
205.568504E-3
205.026054E-3
205.013466E-3
204.823494E-3
204.598045E-3
204.785156E-3
204.612350E-3
204.869843E-3
205.015755E-3
204.834366E-3
205.137634E-3
204.926491E-3
205.293846E-3
205.368233E-3
205.303574E-3
205.830002E-3
205.718994E-3
206.080627E-3
206.129837E-3
206.002235E-3
206.222534E-3
205.910683E-3
206.095505E-3
206.034279E-3
205.864906E-3
206.078339E-3
205.802536E-3
205.981064E-3
206.041145E-3
205.844307E-3
206.176758E-3
205.863190E-3
206.049156E-3
206.270027E-3
206.045151E-3
206.421089E-3
