Notes :


2023-10-30 ¿ÀÈÄ 11:18:56
Volts
Ch : LED 2,
149.576569E-3
150.539589E-3
150.302124E-3
150.349045E-3
150.934982E-3
150.222015E-3
151.072311E-3
150.611115E-3
150.720978E-3
151.229095E-3
150.568771E-3
151.416206E-3
151.156998E-3
151.207352E-3
151.948357E-3
151.196480E-3
151.926041E-3
151.441956E-3
150.696373E-3
150.564766E-3
148.894501E-3
148.719978E-3
147.422218E-3
146.609116E-3
146.627426E-3
145.438957E-3
146.084976E-3
145.508194E-3
145.424080E-3
146.358490E-3
145.775986E-3
147.019386E-3
147.078896E-3
147.407913E-3
148.379517E-3
147.924042E-3
149.232674E-3
149.401474E-3
149.659538E-3
150.823975E-3
150.536728E-3
151.511192E-3
151.366425E-3
151.087761E-3
151.671410E-3
150.798225E-3
151.366425E-3
150.812531E-3
150.460052E-3
151.032257E-3
150.195694E-3
151.099205E-3
150.700951E-3
150.517845E-3
151.238251E-3
150.727272E-3
151.618767E-3
151.528358E-3
151.592445E-3
152.503967E-3
152.084541E-3
153.103065E-3
152.936554E-3
152.819824E-3
153.622055E-3
153.060722E-3
153.823471E-3
153.618622E-3
153.392029E-3
154.195404E-3
153.485298E-3
154.246330E-3
153.923035E-3
153.815460E-3
154.591370E-3
154.044342E-3
154.870033E-3
154.761314E-3
154.714394E-3
155.596733E-3
155.033112E-3
155.470276E-3
154.778481E-3
153.637505E-3
153.212929E-3
151.538658E-3
151.180458E-3
150.269508E-3
149.565697E-3
149.975395E-3
149.107933E-3
149.772263E-3
149.582291E-3
149.415207E-3
150.397682E-3
149.978828E-3
151.128387E-3
151.304626E-3
151.293182E-3
152.392960E-3
152.070808E-3
153.196907E-3
153.171158E-3
153.166580E-3
154.102707E-3
153.564835E-3
154.117584E-3
153.891563E-3
153.458405E-3
154.062080E-3
153.190041E-3
153.474426E-3
153.242111E-3
152.777481E-3
153.453255E-3
152.826691E-3
153.563118E-3
153.694153E-3
153.562546E-3
154.572487E-3
154.069519E-3
154.968452E-3
155.040550E-3
154.903221E-3
155.856514E-3
155.414200E-3
156.135178E-3
156.196404E-3
155.948067E-3
156.848145E-3
156.112289E-3
156.592941E-3
156.661606E-3
156.209564E-3
156.956863E-3
156.177521E-3
156.563187E-3
156.614113E-3
156.467628E-3
157.339668E-3
156.712532E-3
157.394028E-3
157.610321E-3
157.250977E-3
158.093834E-3
156.994057E-3
157.140541E-3
156.328583E-3
155.066872E-3
154.907227E-3
153.113365E-3
152.783775E-3
152.201271E-3
151.356125E-3
151.740074E-3
151.027679E-3
151.579857E-3
151.918602E-3
151.901436E-3
153.132248E-3
152.769470E-3
153.476715E-3
153.882408E-3
153.874969E-3
154.969597E-3
154.466629E-3
155.156136E-3
155.563545E-3
155.223083E-3
155.974960E-3
155.099487E-3
155.316353E-3
155.274582E-3
154.469490E-3
155.060577E-3
154.148483E-3
154.367065E-3
154.371071E-3
153.897858E-3
154.674911E-3
154.009438E-3
154.488373E-3
154.793930E-3
154.447174E-3
155.365562E-3
154.946709E-3
155.580711E-3
156.142044E-3
155.790138E-3
156.732559E-3
156.111717E-3
156.560898E-3
156.903648E-3
156.184959E-3
156.978035E-3
156.118584E-3
156.527710E-3
156.626701E-3
156.096268E-3
156.948853E-3
156.121445E-3
156.654739E-3
156.849289E-3
156.360054E-3
157.272148E-3
156.645012E-3
157.010651E-3
157.410049E-3
156.963730E-3
157.693863E-3
156.710815E-3
156.274796E-3
155.707741E-3
154.154205E-3
153.850365E-3
152.200127E-3
151.837921E-3
151.621056E-3
150.758743E-3
151.347542E-3
150.540733E-3
151.098061E-3
151.653671E-3
151.409912E-3
152.390099E-3
151.970100E-3
152.586937E-3
153.080750E-3
152.721977E-3
153.840065E-3
153.458405E-3
154.014587E-3
154.508972E-3
153.943634E-3
154.578781E-3
153.854942E-3
153.987122E-3
154.213142E-3
153.406906E-3
153.853226E-3
153.091049E-3
153.247261E-3
153.496170E-3
152.889633E-3
153.625488E-3
153.162575E-3
153.756523E-3
154.202843E-3
153.726196E-3
154.668045E-3
154.452324E-3
154.888344E-3
155.490303E-3
155.108643E-3
155.972099E-3
155.603027E-3
155.875397E-3
156.314850E-3
155.702019E-3
156.303978E-3
155.775833E-3
155.928612E-3
156.427574E-3
155.660248E-3
156.366348E-3
155.866814E-3
156.156921E-3
156.539154E-3
156.084824E-3
156.842422E-3
156.381798E-3
156.792641E-3
157.227516E-3
156.660461E-3
157.154846E-3
156.151199E-3
155.664825E-3
154.999924E-3
153.310776E-3
152.952003E-3
151.637650E-3
151.150703E-3
151.122093E-3
150.145340E-3
150.732994E-3
150.317001E-3
150.505829E-3
151.084900E-3
150.625420E-3
151.610184E-3
151.310349E-3
151.750374E-3
152.348328E-3
151.969528E-3
153.153992E-3
152.957153E-3
153.443527E-3
154.149628E-3
153.603745E-3
154.436874E-3
153.939629E-3
153.920746E-3
154.103279E-3
153.364563E-3
153.894424E-3
153.386879E-3
153.197479E-3
153.454971E-3
152.754021E-3
153.608894E-3
153.338242E-3
153.424644E-3
154.057503E-3
153.456688E-3
154.589081E-3
154.444313E-3
154.673767E-3
155.370712E-3
154.862595E-3
155.897713E-3
155.710602E-3
155.802727E-3
156.263351E-3
155.637360E-3
156.394958E-3
155.865097E-3
155.794144E-3
156.127739E-3
155.349541E-3
156.158638E-3
155.715179E-3
155.669403E-3
156.274223E-3
155.544090E-3
156.383514E-3
156.161499E-3
156.164360E-3
156.780624E-3
156.056213E-3
156.665611E-3
155.492592E-3
154.685211E-3
154.146194E-3
152.385521E-3
152.303123E-3
151.248550E-3
150.706100E-3
150.810242E-3
149.869537E-3
150.528145E-3
150.181389E-3
150.096703E-3
150.960732E-3
150.346184E-3
151.384735E-3
151.272011E-3
151.372719E-3
152.415848E-3
152.082825E-3
153.281021E-3
153.289032E-3
153.393173E-3
154.272652E-3
153.754234E-3
154.510117E-3
154.170799E-3
153.761673E-3
154.213715E-3
153.263283E-3
153.785706E-3
153.378296E-3
152.977180E-3
153.589439E-3
152.907372E-3
153.730774E-3
153.537941E-3
153.591728E-3
154.586220E-3
154.075813E-3
155.210495E-3
155.172157E-3
155.238533E-3
156.212425E-3
155.764389E-3
156.717110E-3
156.519699E-3
156.382942E-3
157.000351E-3
156.189537E-3
156.739426E-3
156.485367E-3
156.166077E-3
156.734276E-3
156.031036E-3
156.549454E-3
156.361771E-3
156.165504E-3
157.012939E-3
156.484795E-3
157.111359E-3
156.956863E-3
156.813240E-3
157.641220E-3
157.030106E-3
157.551956E-3
156.736565E-3
155.560684E-3
155.241966E-3
153.495598E-3
153.119087E-3
152.086258E-3
151.460838E-3
151.773262E-3
151.009941E-3
151.454544E-3
151.342392E-3
151.257706E-3
152.216148E-3
151.952362E-3
152.771187E-3
153.044128E-3
153.035545E-3
154.139328E-3
153.865814E-3
154.976463E-3
155.154419E-3
155.344391E-3
156.354904E-3
155.821609E-3
156.442451E-3
156.160927E-3
155.792427E-3
156.299973E-3
155.437088E-3
155.866814E-3
155.644226E-3
155.280304E-3
155.928612E-3
155.256271E-3
155.821037E-3
155.909729E-3
155.772972E-3
156.639290E-3
156.084824E-3
156.888199E-3
156.987762E-3
156.862450E-3
157.822609E-3
157.321930E-3
158.082390E-3
158.171082E-3
157.887268E-3
158.643150E-3
157.807159E-3
158.277512E-3
158.093262E-3
157.819176E-3
158.457756E-3
157.712173E-3
158.243752E-3
158.189964E-3
157.848358E-3
158.741570E-3
158.063507E-3
158.623123E-3
158.874321E-3
158.516121E-3
159.346962E-3
158.583069E-3
159.072304E-3
158.917236E-3
157.994843E-3
157.944489E-3
156.185532E-3
155.685997E-3
154.793930E-3
153.882408E-3
154.048347E-3
152.867317E-3
153.187180E-3
153.136253E-3
152.768326E-3
153.794289E-3
153.305626E-3
154.045486E-3
154.644012E-3
154.558182E-3
155.645943E-3
155.102921E-3
156.079674E-3
156.465340E-3
156.382370E-3
157.327080E-3
156.685638E-3
157.130814E-3
157.269287E-3
156.751442E-3
157.500458E-3
156.593513E-3
156.761169E-3
156.826401E-3
156.150627E-3
156.955719E-3
156.230164E-3
156.622124E-3
157.058716E-3
156.607246E-3
157.513046E-3
156.972885E-3
157.648087E-3
157.973671E-3
157.502174E-3
158.595657E-3
157.840347E-3
158.342171E-3
158.536720E-3
158.113289E-3
158.744431E-3
158.002281E-3
158.208847E-3
158.309555E-3
157.573128E-3
158.183670E-3
157.438660E-3
157.700157E-3
157.961655E-3
157.396889E-3
158.227730E-3
157.649231E-3
158.132744E-3
158.448029E-3
157.765961E-3
158.549881E-3
157.850647E-3
158.288956E-3
158.722115E-3
157.840347E-3
158.055496E-3
156.563759E-3
156.040192E-3
155.311775E-3
153.951073E-3
154.107285E-3
152.982330E-3
152.957153E-3
153.058434E-3
152.364922E-3
153.092766E-3
152.560616E-3
152.945137E-3
153.666115E-3
153.257561E-3
154.268646E-3
153.856659E-3
154.371643E-3
154.999924E-3
154.732704E-3
155.735779E-3
155.482292E-3
156.020164E-3
156.413841E-3
155.767250E-3
156.344604E-3
155.556107E-3
155.678558E-3
155.913734E-3
155.162430E-3
155.775833E-3
155.126381E-3
155.449104E-3
155.822182E-3
155.334663E-3
156.115150E-3
155.762672E-3
156.222153E-3
156.830406E-3
156.368637E-3
157.276726E-3
156.935692E-3
157.507896E-3
158.038330E-3
157.546234E-3
158.322716E-3
157.679558E-3
157.808304E-3
158.069229E-3
157.360840E-3
157.923889E-3
157.371712E-3
157.481575E-3
157.751656E-3
157.089043E-3
157.761955E-3
157.334518E-3
157.604027E-3
158.127594E-3
157.603455E-3
158.381653E-3
158.064079E-3
158.218575E-3
158.714676E-3
157.959938E-3
158.276939E-3
157.171440E-3
156.311417E-3
155.635643E-3
154.020882E-3
153.940201E-3
152.804375E-3
152.429008E-3
152.355194E-3
151.515198E-3
152.316284E-3
151.852798E-3
152.019310E-3
152.458763E-3
152.008438E-3
153.042412E-3
152.807808E-3
153.130531E-3
153.774834E-3
153.426933E-3
154.847717E-3
154.829407E-3
155.102921E-3
155.866814E-3
155.351257E-3
156.163216E-3
155.597878E-3
155.445671E-3
155.706024E-3
154.797363E-3
155.492592E-3
154.879189E-3
154.738426E-3
155.149841E-3
154.452324E-3
155.482864E-3
155.213356E-3
155.346107E-3
156.047630E-3
155.584717E-3
156.705093E-3
156.482506E-3
156.596375E-3
157.439804E-3
156.849861E-3
157.776260E-3
157.591438E-3
157.520485E-3
158.060646E-3
157.257843E-3
157.894135E-3
157.458115E-3
157.146835E-3
157.535362E-3
156.675911E-3
157.509041E-3
157.141685E-3
157.176590E-3
157.764816E-3
157.177162E-3
158.130455E-3
157.781982E-3
157.704163E-3
158.432579E-3
157.799149E-3
158.556175E-3
158.143616E-3
157.292175E-3
157.101059E-3
155.404472E-3
155.034256E-3
153.730202E-3
152.838135E-3
152.786636E-3
151.581001E-3
151.969528E-3
151.308632E-3
151.037979E-3
151.736641E-3
151.076317E-3
151.996422E-3
151.853943E-3
151.822472E-3
152.758598E-3
152.306557E-3
153.286171E-3
153.380585E-3
153.550529E-3
154.658318E-3
154.307556E-3
155.291748E-3
155.072594E-3
154.721260E-3
155.196762E-3
154.328156E-3
154.928970E-3
154.497528E-3
154.168510E-3
154.682922E-3
153.936768E-3
154.701233E-3
154.427147E-3
154.220581E-3
155.158424E-3
154.705811E-3
155.552101E-3
155.607033E-3
155.574989E-3
156.652451E-3
156.408691E-3
157.186317E-3
157.280159E-3
157.044983E-3
157.932472E-3
157.415771E-3
157.973099E-3
157.556534E-3
157.166290E-3
157.618904E-3
156.730270E-3
157.273865E-3
156.995201E-3
156.661034E-3
157.332802E-3
156.722832E-3
157.399178E-3
157.297325E-3
157.077026E-3
157.897568E-3
157.410049E-3
158.015442E-3
158.042336E-3
157.962799E-3
158.644867E-3
157.650375E-3
157.592010E-3
156.590652E-3
155.192184E-3
154.809380E-3
153.212929E-3
153.081894E-3
152.540588E-3
151.833344E-3
152.355766E-3
151.559830E-3
152.137756E-3
152.165222E-3
152.192116E-3
153.220940E-3
152.827263E-3
153.729630E-3
153.951073E-3
154.045486E-3
155.139542E-3
154.817390E-3
155.821037E-3
156.238747E-3
156.161499E-3
157.048416E-3
156.300545E-3
156.864166E-3
156.746864E-3
156.359482E-3
156.914520E-3
155.980682E-3
156.421852E-3
156.425285E-3
155.914307E-3
156.802940E-3
156.156349E-3
156.871033E-3
157.042694E-3
156.939697E-3
157.979965E-3
157.501030E-3
158.146477E-3
158.450317E-3
158.181381E-3
159.160995E-3
158.587074E-3
159.158134E-3
159.386444E-3
159.166145E-3
159.960937E-3
159.152985E-3
159.553528E-3
159.502602E-3
158.904648E-3
159.681702E-3
158.789635E-3
159.163857E-3
159.236526E-3
158.813667E-3
159.645653E-3
159.014511E-3
159.577560E-3
159.736061E-3
159.421921E-3
160.289955E-3
159.639931E-3
160.023880E-3
160.313988E-3
159.661674E-3
159.915161E-3
158.415985E-3
157.862663E-3
157.232094E-3
155.826187E-3
155.925751E-3
154.621124E-3
154.744720E-3
154.658318E-3
153.971100E-3
154.813957E-3
154.139328E-3
154.914665E-3
155.324936E-3
155.027962E-3
156.218147E-3
155.619621E-3
156.248474E-3
156.882477E-3
156.534576E-3
157.621193E-3
157.222939E-3
157.759094E-3
158.046913E-3
157.446098E-3
158.203697E-3
157.338524E-3
157.543945E-3
157.712746E-3
156.944847E-3
157.570267E-3
156.797218E-3
157.114220E-3
157.245255E-3
156.717110E-3
157.611465E-3
157.100487E-3
157.661819E-3
158.197975E-3
157.828331E-3
158.799934E-3
158.404541E-3
158.919525E-3
159.302330E-3
158.848572E-3
159.631920E-3
159.069443E-3
159.245682E-3
159.655952E-3
158.919525E-3
159.510612E-3
158.719254E-3
158.935547E-3
159.138680E-3
158.398819E-3
159.104347E-3
158.520126E-3
158.842850E-3
159.278870E-3
158.644295E-3
159.376717E-3
158.815956E-3
159.147835E-3
159.473991E-3
158.754158E-3
159.342957E-3
158.938408E-3
159.110069E-3
159.169579E-3
157.856369E-3
157.716751E-3
156.234169E-3
155.458832E-3
155.007362E-3
153.638649E-3
153.706741E-3
152.805519E-3
152.839851E-3
153.234100E-3
152.631569E-3
153.540230E-3
153.175735E-3
153.726196E-3
154.328728E-3
153.900146E-3
154.732132E-3
154.438591E-3
154.992485E-3
155.701447E-3
155.504608E-3
156.452179E-3
156.199265E-3
156.587791E-3
157.056427E-3
156.417274E-3
156.967735E-3
156.297684E-3
156.140327E-3
156.366348E-3
155.495453E-3
156.144905E-3
155.648804E-3
155.801582E-3
156.332016E-3
155.778122E-3
156.827545E-3
156.444168E-3
156.895638E-3
157.512474E-3
157.083893E-3
158.115578E-3
157.876968E-3
158.137894E-3
158.575630E-3
158.052635E-3
158.970451E-3
158.612251E-3
158.509827E-3
158.861160E-3
157.927895E-3
158.723831E-3
158.125877E-3
157.970810E-3
158.346176E-3
157.614326E-3
158.582497E-3
158.090401E-3
158.209991E-3
158.633995E-3
157.979965E-3
158.893776E-3
158.486366E-3
158.665466E-3
159.064293E-3
158.279228E-3
159.049416E-3
158.147049E-3
157.249832E-3
156.798363E-3
155.006218E-3
154.820824E-3
153.618622E-3
152.904510E-3
152.830124E-3
151.702881E-3
152.388382E-3
151.863098E-3
151.918602E-3
152.649879E-3
152.053070E-3
153.143692E-3
153.014946E-3
153.088760E-3
153.783417E-3
153.215790E-3
154.357910E-3
154.431725E-3
154.761887E-3
155.736351E-3
155.241394E-3
156.170082E-3
155.786705E-3
155.581856E-3
155.964661E-3
154.939270E-3
155.450821E-3
154.852867E-3
154.603386E-3
155.065155E-3
154.273224E-3
155.042267E-3
154.732132E-3
154.767609E-3
155.612755E-3
155.037689E-3
156.092834E-3
155.819893E-3
155.784416E-3
156.649590E-3
156.140327E-3
157.133675E-3
156.975746E-3
156.999207E-3
157.649803E-3
156.943703E-3
157.579422E-3
157.075310E-3
156.722832E-3
157.195473E-3
156.348610E-3
156.980324E-3
156.628418E-3
156.258774E-3
156.933975E-3
156.270218E-3
157.027245E-3
156.765175E-3
156.635857E-3
157.380295E-3
156.810951E-3
157.687569E-3
157.426643E-3
157.307625E-3
157.827759E-3
156.858444E-3
156.798363E-3
155.583000E-3
154.275513E-3
153.949928E-3
152.397537E-3
152.284241E-3
151.500320E-3
150.833702E-3
151.288605E-3
150.518417E-3
151.247978E-3
151.149559E-3
151.008224E-3
151.868820E-3
