Notes :


2023-10-30 ¿ÀÈÄ 11:21:22
Volts
Ch : LED 2,
85.220718E-3
85.715675E-3
85.770607E-3
85.354614E-3
86.174011E-3
85.496521E-3
85.914803E-3
85.971451E-3
85.639572E-3
86.594582E-3
85.753441E-3
86.295891E-3
86.474991E-3
86.301041E-3
87.107849E-3
86.307907E-3
86.819458E-3
86.846924E-3
86.397171E-3
87.081528E-3
86.002922E-3
85.999489E-3
85.474777E-3
84.467697E-3
84.483147E-3
82.955933E-3
82.837486E-3
82.464981E-3
81.646156E-3
82.114792E-3
81.397820E-3
81.819534E-3
82.168579E-3
81.984901E-3
83.112717E-3
82.642365E-3
83.365631E-3
83.892632E-3
83.659744E-3
84.766960E-3
84.318924E-3
84.933472E-3
85.330582E-3
85.122299E-3
86.036682E-3
85.435867E-3
85.826111E-3
85.897636E-3
85.268784E-3
85.882759E-3
85.106277E-3
85.463905E-3
85.557747E-3
85.067368E-3
85.874748E-3
85.269356E-3
85.699654E-3
86.151123E-3
85.854721E-3
86.825180E-3
86.274147E-3
86.958504E-3
87.489510E-3
87.161064E-3
88.123512E-3
87.530708E-3
88.103485E-3
88.326073E-3
87.830544E-3
88.579559E-3
87.988472E-3
88.358116E-3
88.559532E-3
87.998199E-3
88.723183E-3
88.087463E-3
88.478279E-3
88.830185E-3
88.343811E-3
89.158630E-3
88.542366E-3
88.898277E-3
89.170074E-3
88.462830E-3
89.240456E-3
88.461685E-3
88.695717E-3
88.796425E-3
87.807655E-3
87.843132E-3
86.370277E-3
85.961151E-3
85.379219E-3
84.056282E-3
84.117508E-3
83.218002E-3
83.322144E-3
83.647156E-3
83.145332E-3
84.041977E-3
83.865738E-3
84.456253E-3
85.064507E-3
84.679413E-3
85.751152E-3
85.289383E-3
85.801506E-3
86.366272E-3
86.112213E-3
87.024307E-3
86.553383E-3
86.970520E-3
87.274361E-3
86.575127E-3
87.138176E-3
86.473274E-3
86.598587E-3
86.697578E-3
86.029816E-3
86.529350E-3
85.930824E-3
86.138535E-3
86.519051E-3
86.045837E-3
86.759949E-3
86.302185E-3
86.615753E-3
87.100983E-3
86.668396E-3
87.524986E-3
87.179947E-3
87.624550E-3
88.081169E-3
87.562752E-3
88.256264E-3
87.686348E-3
87.814522E-3
88.153839E-3
87.592506E-3
88.275146E-3
87.726402E-3
87.758446E-3
88.130951E-3
87.475777E-3
88.220215E-3
87.718391E-3
87.999344E-3
88.427925E-3
87.810516E-3
88.595581E-3
88.124084E-3
88.199615E-3
88.496017E-3
87.539291E-3
87.855721E-3
86.924744E-3
86.178017E-3
85.728836E-3
84.178734E-3
84.206200E-3
83.180237E-3
82.764244E-3
82.941628E-3
82.185173E-3
83.145332E-3
82.909584E-3
83.180809E-3
83.783913E-3
83.343315E-3
84.372139E-3
84.127808E-3
84.345245E-3
84.926605E-3
84.430504E-3
85.606956E-3
85.483932E-3
85.692787E-3
86.172867E-3
85.487938E-3
86.247253E-3
85.723686E-3
85.550880E-3
85.926247E-3
84.963799E-3
85.604668E-3
85.007286E-3
84.922600E-3
85.307693E-3
84.605026E-3
85.445595E-3
84.990692E-3
85.125732E-3
85.605240E-3
85.032463E-3
86.025810E-3
85.866165E-3
85.894203E-3
86.556244E-3
85.890198E-3
86.800575E-3
86.489296E-3
86.400604E-3
86.810303E-3
85.960007E-3
86.698151E-3
86.327934E-3
86.181450E-3
86.590004E-3
85.772896E-3
86.612320E-3
86.210632E-3
86.116219E-3
86.684418E-3
86.050987E-3
86.754799E-3
86.501884E-3
86.341667E-3
86.880684E-3
86.083031E-3
86.637497E-3
85.815811E-3
85.024452E-3
84.921455E-3
83.175659E-3
82.978249E-3
81.687355E-3
80.817032E-3
80.813599E-3
79.673767E-3
80.215073E-3
79.773903E-3
79.676056E-3
80.343246E-3
79.676628E-3
80.625916E-3
80.529213E-3
80.460548E-3
81.410980E-3
80.866241E-3
81.757164E-3
81.734848E-3
81.719398E-3
82.673264E-3
82.204056E-3
83.156776E-3
82.824326E-3
82.629204E-3
83.124161E-3
82.225800E-3
82.849503E-3
82.249832E-3
81.940842E-3
82.435226E-3
81.549454E-3
82.216644E-3
81.986046E-3
81.813812E-3
82.485008E-3
81.930542E-3
82.884979E-3
82.777977E-3
82.668114E-3
83.568764E-3
83.155060E-3
83.890343E-3
83.734703E-3
83.497810E-3
84.216499E-3
83.509254E-3
84.072304E-3
83.901787E-3
83.536720E-3
84.082031E-3
83.296967E-3
83.794212E-3
83.576202E-3
83.263779E-3
83.957291E-3
83.354759E-3
84.064865E-3
83.927536E-3
83.686638E-3
84.357834E-3
83.608246E-3
84.329796E-3
83.926392E-3
83.334732E-3
83.555031E-3
82.095909E-3
81.762886E-3
80.680275E-3
79.383659E-3
79.245758E-3
78.059006E-3
78.199768E-3
77.703094E-3
77.288818E-3
77.996635E-3
77.437592E-3
78.025246E-3
78.145981E-3
78.155708E-3
79.112434E-3
78.764534E-3
79.720116E-3
79.926109E-3
79.860878E-3
80.884552E-3
80.478859E-3
81.388092E-3
81.555176E-3
81.303406E-3
81.993484E-3
81.319427E-3
81.701088E-3
81.342316E-3
80.759239E-3
81.277657E-3
80.453682E-3
80.961800E-3
80.867386E-3
80.415916E-3
81.386375E-3
80.680275E-3
81.344032E-3
81.427002E-3
81.274796E-3
82.109642E-3
81.404114E-3
82.067299E-3
82.090759E-3
81.909370E-3
82.740784E-3
82.078171E-3
82.712746E-3
82.654381E-3
82.205200E-3
82.937050E-3
81.967735E-3
82.386017E-3
82.376862E-3
81.982040E-3
82.870102E-3
82.035828E-3
82.651520E-3
82.668686E-3
82.357407E-3
83.213425E-3
82.427788E-3
82.871819E-3
82.902718E-3
82.526779E-3
83.250618E-3
82.316780E-3
82.391739E-3
81.962013E-3
80.750084E-3
80.805588E-3
79.064941E-3
78.714752E-3
78.186035E-3
77.222443E-3
77.859306E-3
76.902008E-3
77.298546E-3
77.474213E-3
77.232170E-3
78.298187E-3
77.825546E-3
78.479576E-3
78.873825E-3
78.782845E-3
79.951859E-3
79.496384E-3
80.101776E-3
80.643082E-3
80.514336E-3
81.484222E-3
80.870819E-3
81.298828E-3
81.399536E-3
80.885124E-3
81.366348E-3
80.439949E-3
80.690002E-3
80.742645E-3
80.094337E-3
80.825043E-3
80.270576E-3
80.757523E-3
81.012154E-3
80.603600E-3
81.413841E-3
80.852509E-3
81.416130E-3
81.864738E-3
81.460190E-3
82.372856E-3
81.851578E-3
82.374001E-3
82.657814E-3
82.065582E-3
82.965088E-3
82.097054E-3
82.334518E-3
82.499313E-3
81.920815E-3
82.614326E-3
81.941414E-3
82.347679E-3
82.597160E-3
82.091331E-3
82.956505E-3
82.339668E-3
82.793999E-3
83.147621E-3
82.728195E-3
83.552170E-3
82.768822E-3
83.121872E-3
83.374786E-3
82.570267E-3
82.891273E-3
81.687355E-3
81.225586E-3
80.691147E-3
79.274940E-3
79.109001E-3
77.774048E-3
77.545738E-3
77.566338E-3
76.653099E-3
77.236748E-3
76.670837E-3
77.247047E-3
77.750015E-3
77.371216E-3
78.343964E-3
77.931404E-3
78.461266E-3
79.014587E-3
78.709602E-3
79.744720E-3
79.418564E-3
79.950714E-3
80.731773E-3
80.098343E-3
80.802727E-3
80.240822E-3
80.534935E-3
80.648232E-3
79.820824E-3
80.291176E-3
79.631996E-3
79.843712E-3
80.290604E-3
79.657745E-3
80.283165E-3
79.851151E-3
80.263710E-3
80.813026E-3
80.323219E-3
81.225586E-3
80.831909E-3
81.184959E-3
81.798363E-3
81.272507E-3
82.142258E-3
81.702805E-3
81.943130E-3
82.206345E-3
81.665039E-3
82.279587E-3
81.723976E-3
81.713676E-3
82.018661E-3
81.392670E-3
82.022667E-3
81.456184E-3
81.530571E-3
81.983757E-3
81.409264E-3
82.110214E-3
81.639862E-3
81.851006E-3
82.330513E-3
81.633568E-3
82.398033E-3
81.847000E-3
82.043266E-3
82.206917E-3
81.154060E-3
81.352043E-3
80.170441E-3
79.387665E-3
78.771400E-3
77.272797E-3
77.414703E-3
76.530647E-3
76.238251E-3
76.599884E-3
75.852013E-3
76.801300E-3
76.431656E-3
76.654816E-3
77.200127E-3
76.625633E-3
77.676201E-3
77.380943E-3
77.671051E-3
78.320503E-3
77.893639E-3
79.181099E-3
79.146767E-3
79.420280E-3
80.047417E-3
79.352188E-3
80.065155E-3
79.573059E-3
79.372787E-3
79.571342E-3
78.676414E-3
79.425430E-3
78.916740E-3
78.864098E-3
79.245186E-3
78.448677E-3
79.489517E-3
79.145622E-3
79.289818E-3
79.796791E-3
79.404831E-3
80.330086E-3
80.072021E-3
80.199623E-3
80.853081E-3
80.148697E-3
80.992699E-3
80.755806E-3
80.676270E-3
81.091690E-3
80.252266E-3
81.135178E-3
80.621338E-3
80.477142E-3
81.001854E-3
80.167580E-3
80.928040E-3
80.474281E-3
80.438805E-3
80.898285E-3
80.163002E-3
81.067657E-3
80.761528E-3
80.764961E-3
81.364632E-3
80.608177E-3
81.370926E-3
80.968094E-3
80.735779E-3
81.101418E-3
79.913521E-3
80.085182E-3
78.951073E-3
78.064156E-3
77.846146E-3
76.418495E-3
76.456261E-3
75.613976E-3
75.192261E-3
75.613403E-3
74.803162E-3
75.716972E-3
75.461769E-3
75.645447E-3
76.461411E-3
75.932121E-3
76.924896E-3
76.809883E-3
76.756096E-3
77.741432E-3
77.369499E-3
78.453827E-3
78.498459E-3
78.581429E-3
79.316139E-3
78.677559E-3
79.358482E-3
78.855515E-3
78.462982E-3
78.958511E-3
78.011513E-3
78.761673E-3
78.279305E-3
78.055000E-3
78.738213E-3
78.103638E-3
78.999710E-3
78.733063E-3
78.605461E-3
79.360771E-3
78.796005E-3
79.677773E-3
79.613113E-3
79.498672E-3
80.267715E-3
79.728699E-3
80.489159E-3
80.285454E-3
79.944992E-3
80.553246E-3
79.819107E-3
80.464554E-3
80.150414E-3
79.835701E-3
80.343246E-3
79.570198E-3
80.274010E-3
79.939842E-3
79.557037E-3
80.284882E-3
79.676628E-3
80.260277E-3
80.259132E-3
80.038834E-3
80.768394E-3
80.122375E-3
80.684280E-3
80.420494E-3
80.142403E-3
80.690002E-3
79.737282E-3
79.908943E-3
79.050636E-3
77.998924E-3
77.760315E-3
76.215935E-3
76.089478E-3
75.461197E-3
74.657822E-3
75.132179E-3
74.423218E-3
75.082397E-3
75.127602E-3
74.844933E-3
75.711250E-3
75.274086E-3
76.045990E-3
76.112938E-3
75.983620E-3
76.940346E-3
76.637077E-3
77.735138E-3
77.976608E-3
77.881050E-3
78.794289E-3
78.178596E-3
78.620911E-3
78.520203E-3
78.117371E-3
78.543663E-3
77.603531E-3
78.002357E-3
77.790642E-3
77.434158E-3
78.269577E-3
77.612114E-3
78.267860E-3
78.305626E-3
78.126526E-3
79.082680E-3
78.484726E-3
79.101562E-3
79.181099E-3
78.976822E-3
79.878616E-3
79.222298E-3
79.841995E-3
79.855728E-3
79.630280E-3
80.386734E-3
79.609108E-3
80.046272E-3
80.044556E-3
79.741859E-3
80.483437E-3
79.732704E-3
80.371857E-3
80.287743E-3
79.825401E-3
80.641365E-3
79.736137E-3
80.200768E-3
80.272865E-3
80.129242E-3
80.987549E-3
80.338097E-3
80.833626E-3
80.901718E-3
80.582428E-3
81.384087E-3
80.529213E-3
80.845642E-3
80.489731E-3
79.548454E-3
79.353333E-3
77.652740E-3
77.169800E-3
76.570129E-3
75.628853E-3
76.112938E-3
75.054932E-3
75.502396E-3
75.660896E-3
75.360489E-3
76.502609E-3
76.021385E-3
76.753235E-3
77.110863E-3
76.975822E-3
77.970886E-3
77.430153E-3
78.133392E-3
78.576279E-3
78.481865E-3
79.506111E-3
78.858376E-3
79.194832E-3
79.502106E-3
78.902435E-3
79.551888E-3
78.723907E-3
78.953362E-3
79.025459E-3
78.473282E-3
79.125023E-3
78.330803E-3
78.889275E-3
79.150200E-3
78.743362E-3
79.811096E-3
79.202271E-3
79.835701E-3
80.257416E-3
79.908943E-3
80.764389E-3
80.181885E-3
80.587578E-3
81.087112E-3
80.595016E-3
81.425858E-3
80.833054E-3
81.305122E-3
81.596947E-3
81.088829E-3
81.935120E-3
81.187820E-3
81.711960E-3
82.044983E-3
81.503677E-3
82.217216E-3
81.570053E-3
81.931114E-3
82.254982E-3
81.735420E-3
82.533073E-3
81.898499E-3
82.246971E-3
82.543945E-3
82.013512E-3
82.851791E-3
82.224655E-3
82.389450E-3
82.350540E-3
81.015015E-3
80.919456E-3
79.337311E-3
78.873825E-3
78.416634E-3
77.354622E-3
77.668762E-3
76.832199E-3
77.206421E-3
77.477074E-3
77.032471E-3
77.982330E-3
77.645302E-3
78.256416E-3
78.890419E-3
78.513908E-3
79.398537E-3
79.062653E-3
79.811096E-3
80.475998E-3
80.276871E-3
81.211281E-3
80.782700E-3
81.097984E-3
81.466484E-3
80.609322E-3
81.226158E-3
80.533791E-3
80.639648E-3
80.825043E-3
80.238533E-3
80.891418E-3
80.306053E-3
80.674553E-3
81.186104E-3
80.623055E-3
81.391525E-3
81.013298E-3
81.387520E-3
81.790924E-3
81.303406E-3
82.119942E-3
81.855583E-3
82.197762E-3
82.757950E-3
82.274437E-3
83.060074E-3
82.495308E-3
82.714462E-3
82.994270E-3
82.349968E-3
82.992554E-3
82.374001E-3
82.561111E-3
82.816315E-3
82.154846E-3
82.938194E-3
82.404327E-3
82.624054E-3
82.963943E-3
82.372856E-3
83.168221E-3
82.672691E-3
82.876968E-3
83.246613E-3
82.659531E-3
83.333015E-3
82.614899E-3
82.320213E-3
82.130814E-3
80.691719E-3
80.540085E-3
79.157066E-3
78.512764E-3
78.350258E-3
77.201843E-3
77.662468E-3
77.086830E-3
77.163506E-3
77.649879E-3
77.212143E-3
78.197479E-3
78.028679E-3
78.373146E-3
78.908730E-3
78.466988E-3
79.436302E-3
79.280090E-3
79.648018E-3
80.346680E-3
79.918098E-3
80.826187E-3
80.501175E-3
80.363846E-3
80.732918E-3
79.856873E-3
80.538940E-3
79.986763E-3
79.789352E-3
80.071449E-3
79.230881E-3
79.942703E-3
79.579926E-3
79.681778E-3
80.076027E-3
79.435158E-3
80.461693E-3
80.227089E-3
80.432510E-3
81.118584E-3
80.554390E-3
81.528282E-3
81.404686E-3
81.328011E-3
81.860733E-3
81.173515E-3
81.984329E-3
81.548309E-3
81.614685E-3
81.911087E-3
81.173515E-3
81.994629E-3
81.429863E-3
81.416702E-3
81.904221E-3
81.133461E-3
82.008362E-3
81.665039E-3
81.686211E-3
82.165146E-3
81.511688E-3
82.269859E-3
81.864738E-3
81.851006E-3
82.328224E-3
81.495094E-3
82.077026E-3
81.333733E-3
80.646515E-3
80.394745E-3
78.855515E-3
78.858948E-3
77.836990E-3
77.133751E-3
77.343178E-3
76.341820E-3
77.181244E-3
76.857948E-3
76.863098E-3
77.619553E-3
77.281952E-3
78.214073E-3
78.014946E-3
78.164291E-3
78.888702E-3
78.355408E-3
79.389381E-3
79.319000E-3
79.499245E-3
80.364418E-3
79.882622E-3
80.838203E-3
80.410194E-3
80.230522E-3
80.618477E-3
79.729271E-3
80.276299E-3
79.697227E-3
79.380226E-3
79.962158E-3
79.186821E-3
80.017662E-3
79.714966E-3
79.610825E-3
80.395889E-3
79.829979E-3
80.734634E-3
80.577278E-3
80.549812E-3
81.321716E-3
80.688286E-3
81.454468E-3
81.230164E-3
80.927467E-3
81.662178E-3
81.009293E-3
81.725693E-3
81.324577E-3
81.055069E-3
81.682777E-3
81.000137E-3
81.719971E-3
81.346893E-3
81.143188E-3
81.783485E-3
81.163788E-3
81.942558E-3
81.689644E-3
81.477928E-3
82.249832E-3
81.630135E-3
82.353973E-3
82.102203E-3
81.770897E-3
82.365417E-3
81.539154E-3
81.826401E-3
80.990410E-3
79.876328E-3
79.551315E-3
77.977753E-3
77.887344E-3
76.921463E-3
76.281166E-3
76.791000E-3
76.057434E-3
76.759529E-3
76.686287E-3
76.521492E-3
77.425003E-3
77.091980E-3
77.954865E-3
78.072166E-3
78.034401E-3
79.003716E-3
78.702164E-3
79.684067E-3
79.868317E-3
79.709244E-3
80.603027E-3
79.993057E-3
80.596161E-3
80.306625E-3
79.946136E-3
80.425644E-3
79.588509E-3
79.995918E-3
79.720116E-3
79.285812E-3
79.922104E-3
79.270935E-3
79.895782E-3
79.939270E-3
79.718971E-3
80.531502E-3
79.963303E-3
80.634499E-3
80.681992E-3
80.441093E-3
81.232452E-3
80.613899E-3
81.203842E-3
81.215858E-3
