Notes :


2023-10-30 ¿ÀÈÄ 11:50:58
Volts
Ch : LED 2,
234.488297E-3
235.800362E-3
235.606956E-3
236.361694E-3
237.301826E-3
237.009430E-3
238.320351E-3
238.391876E-3
238.956642E-3
239.976883E-3
239.037895E-3
238.604736E-3
235.784340E-3
232.680702E-3
229.595375E-3
225.326729E-3
223.258209E-3
220.392036E-3
218.485451E-3
218.348122E-3
217.307281E-3
218.470001E-3
218.972969E-3
219.885635E-3
221.450615E-3
221.520996E-3
223.210716E-3
223.306274E-3
223.995209E-3
225.410843E-3
225.562477E-3
227.728844E-3
228.456116E-3
229.480934E-3
230.689430E-3
230.181313E-3
231.213570E-3
230.620766E-3
230.283737E-3
230.228806E-3
228.868103E-3
229.200554E-3
228.333664E-3
228.098488E-3
228.249550E-3
227.470779E-3
228.619194E-3
228.836060E-3
229.395103E-3
230.797005E-3
230.855370E-3
232.609177E-3
233.036041E-3
233.709526E-3
234.471130E-3
233.990479E-3
235.202408E-3
234.896851E-3
235.123444E-3
235.968590E-3
235.335159E-3
236.290741E-3
235.768890E-3
235.663605E-3
235.770607E-3
234.868813E-3
235.795784E-3
235.320282E-3
235.473061E-3
236.113930E-3
235.597801E-3
236.747360E-3
236.769676E-3
237.177086E-3
238.248253E-3
238.219643E-3
239.879608E-3
240.260696E-3
240.335655E-3
240.382004E-3
237.783623E-3
235.966301E-3
232.133102E-3
228.311348E-3
225.268364E-3
221.709251E-3
220.656395E-3
218.761826E-3
217.860603E-3
218.171883E-3
217.302704E-3
218.848801E-3
218.928337E-3
219.680786E-3
220.800591E-3
220.734215E-3
222.552681E-3
222.986412E-3
223.836708E-3
225.825691E-3
226.452255E-3
228.889275E-3
230.036545E-3
231.033325E-3
231.865883E-3
231.165504E-3
231.756020E-3
230.930328E-3
230.389023E-3
230.494308E-3
229.211998E-3
229.570770E-3
229.047775E-3
228.951645E-3
229.462624E-3
228.945351E-3
230.455971E-3
230.455971E-3
230.790710E-3
231.947708E-3
231.757164E-3
233.405685E-3
233.736992E-3
234.359550E-3
235.494804E-3
235.059929E-3
236.457253E-3
236.002922E-3
236.029243E-3
236.608887E-3
235.659027E-3
236.362839E-3
235.764313E-3
235.665894E-3
235.755730E-3
235.004997E-3
236.156845E-3
235.886192E-3
235.619545E-3
236.414337E-3
235.716248E-3
236.570549E-3
236.377716E-3
236.457253E-3
237.236595E-3
236.623764E-3
238.201332E-3
238.323784E-3
238.322639E-3
238.130379E-3
235.408974E-3
233.512115E-3
229.507828E-3
225.649452E-3
222.463417E-3
218.741226E-3
217.669487E-3
215.871620E-3
215.316582E-3
215.943146E-3
215.596390E-3
217.266083E-3
217.747307E-3
218.730354E-3
220.083618E-3
220.040703E-3
221.753883E-3
222.204781E-3
222.890282E-3
224.802589E-3
225.345612E-3
227.823830E-3
228.730202E-3
229.683495E-3
230.827904E-3
230.287170E-3
231.178093E-3
230.249405E-3
229.546165E-3
229.534721E-3
227.952003E-3
228.503036E-3
227.713966E-3
227.345467E-3
227.836418E-3
227.246475E-3
228.698158E-3
229.011726E-3
229.615974E-3
231.238747E-3
231.439018E-3
233.346748E-3
233.821106E-3
234.363556E-3
235.491371E-3
235.065079E-3
236.297035E-3
236.148834E-3
236.009789E-3
236.828041E-3
235.881042E-3
236.936760E-3
236.473274E-3
236.235809E-3
236.683846E-3
235.720825E-3
236.652946E-3
236.355400E-3
236.415482E-3
237.419128E-3
236.973953E-3
238.482285E-3
238.432503E-3
238.707161E-3
239.636421E-3
239.023590E-3
240.139961E-3
239.844704E-3
240.137672E-3
241.005135E-3
239.785767E-3
239.331436E-3
236.911583E-3
233.564186E-3
230.405617E-3
225.721550E-3
222.992706E-3
219.906807E-3
217.584229E-3
216.936493E-3
215.348053E-3
216.279602E-3
216.424370E-3
217.215729E-3
219.013023E-3
219.446182E-3
221.733856E-3
222.558975E-3
223.788643E-3
225.567627E-3
225.979614E-3
228.762817E-3
230.064583E-3
231.334877E-3
233.326721E-3
233.473778E-3
234.753227E-3
234.298897E-3
233.803940E-3
233.862877E-3
232.317924E-3
232.471275E-3
231.565475E-3
230.827904E-3
231.190109E-3
230.386734E-3
231.461334E-3
231.639290E-3
232.078171E-3
233.517265E-3
233.670616E-3
235.490799E-3
236.118507E-3
236.863518E-3
238.360405E-3
238.389587E-3
239.697075E-3
239.612961E-3
239.638710E-3
240.264130E-3
239.474487E-3
240.238953E-3
240.010071E-3
239.928818E-3
240.452385E-3
239.646721E-3
240.566826E-3
240.335083E-3
240.518188E-3
241.444588E-3
240.915871E-3
241.924095E-3
241.787910E-3
241.517258E-3
242.504311E-3
241.761589E-3
242.790985E-3
242.755508E-3
242.902565E-3
243.995476E-3
243.858719E-3
245.551300E-3
245.809364E-3
245.419693E-3
245.034027E-3
241.716957E-3
239.179802E-3
234.900856E-3
230.683708E-3
227.782631E-3
223.908806E-3
222.836494E-3
221.369362E-3
221.046066E-3
222.366142E-3
222.993851E-3
225.375366E-3
226.758957E-3
228.322792E-3
230.584717E-3
231.021881E-3
232.917595E-3
233.808517E-3
234.788704E-3
236.953354E-3
237.443161E-3
239.152336E-3
239.599800E-3
239.641571E-3
240.380859E-3
239.224434E-3
239.711952E-3
238.862801E-3
238.148689E-3
238.458252E-3
237.245178E-3
238.161850E-3
237.780190E-3
238.137817E-3
239.291382E-3
239.187813E-3
241.007423E-3
241.282654E-3
241.988182E-3
243.640137E-3
243.510246E-3
244.912148E-3
245.131874E-3
245.554733E-3
246.632767E-3
246.223068E-3
247.474480E-3
247.628403E-3
247.830391E-3
249.064636E-3
248.567390E-3
249.406242E-3
249.304962E-3
249.227715E-3
249.893188E-3
249.072075E-3
249.913216E-3
249.239159E-3
249.041176E-3
249.738121E-3
248.834038E-3
249.702072E-3
249.327278E-3
249.238014E-3
250.162125E-3
249.589920E-3
250.668526E-3
250.756645E-3
250.901413E-3
251.836395E-3
250.349808E-3
249.418259E-3
246.259689E-3
242.782402E-3
239.590645E-3
234.965515E-3
232.530785E-3
229.813957E-3
227.916527E-3
227.717400E-3
226.850510E-3
228.346825E-3
228.769112E-3
229.771042E-3
232.031822E-3
232.626343E-3
234.790421E-3
236.027527E-3
236.967087E-3
239.435005E-3
240.479851E-3
243.211555E-3
244.409752E-3
245.341873E-3
246.732903E-3
246.043396E-3
246.720314E-3
245.799637E-3
244.922447E-3
244.706726E-3
243.143463E-3
243.201828E-3
242.300034E-3
241.839409E-3
242.741776E-3
242.373276E-3
243.733406E-3
244.457817E-3
245.068932E-3
246.780396E-3
246.810722E-3
248.252678E-3
248.528481E-3
248.670387E-3
249.803925E-3
249.040604E-3
249.979019E-3
249.885750E-3
249.548149E-3
250.557518E-3
249.945831E-3
250.918579E-3
250.570107E-3
250.483131E-3
251.368332E-3
250.684547E-3
251.862717E-3
251.787186E-3
251.655006E-3
252.504158E-3
251.908493E-3
252.853203E-3
252.755356E-3
252.779961E-3
253.808212E-3
253.294373E-3
254.252815E-3
254.271698E-3
254.280853E-3
255.426979E-3
254.777527E-3
254.835892E-3
253.056908E-3
250.266838E-3
247.893333E-3
243.459320E-3
240.507889E-3
236.895561E-3
233.759308E-3
232.573700E-3
230.534363E-3
230.837059E-3
230.345535E-3
230.422783E-3
231.899071E-3
231.911087E-3
233.873749E-3
234.598732E-3
235.285378E-3
237.116432E-3
237.498665E-3
239.877319E-3
241.253471E-3
242.689705E-3
244.972229E-3
245.186806E-3
246.405602E-3
246.389580E-3
245.727539E-3
245.821953E-3
244.309616E-3
244.345665E-3
243.493652E-3
242.619324E-3
243.275070E-3
242.374992E-3
243.103409E-3
242.985535E-3
243.025017E-3
244.281006E-3
244.015503E-3
245.706367E-3
246.063423E-3
246.555519E-3
248.126793E-3
247.992897E-3
249.474335E-3
249.456024E-3
249.773026E-3
250.736046E-3
250.158691E-3
251.190376E-3
251.075935E-3
250.764084E-3
251.534271E-3
250.528336E-3
251.289368E-3
250.861931E-3
250.640488E-3
251.498222E-3
250.930595E-3
251.766586E-3
251.759148E-3
251.776886E-3
252.980804E-3
252.761078E-3
254.018211E-3
254.141808E-3
254.170418E-3
255.170059E-3
254.694557E-3
255.535698E-3
255.055046E-3
253.660011E-3
252.584267E-3
248.848343E-3
246.138382E-3
241.905212E-3
237.833405E-3
235.015869E-3
231.581497E-3
230.386162E-3
228.643227E-3
227.859306E-3
228.774834E-3
228.415489E-3
229.942131E-3
230.802727E-3
231.561470E-3
233.465767E-3
233.835411E-3
235.581207E-3
236.594582E-3
237.769890E-3
240.330505E-3
241.094971E-3
243.366051E-3
244.382286E-3
244.684982E-3
245.591927E-3
244.351387E-3
244.504738E-3
243.273926E-3
242.290306E-3
242.406464E-3
241.282082E-3
241.781616E-3
241.552162E-3
241.629982E-3
242.893410E-3
242.725754E-3
243.909645E-3
244.414330E-3
245.157623E-3
246.638489E-3
246.848488E-3
248.272133E-3
248.661232E-3
248.811150E-3
250.166702E-3
249.783897E-3
250.685692E-3
250.823021E-3
250.756645E-3
251.719093E-3
250.959778E-3
251.736259E-3
251.334572E-3
250.508308E-3
250.987816E-3
249.905205E-3
250.134659E-3
249.587631E-3
249.272346E-3
250.066566E-3
249.679184E-3
250.843620E-3
250.982094E-3
251.321411E-3
252.572250E-3
252.309608E-3
253.290367E-3
253.463745E-3
253.281784E-3
254.061699E-3
252.639198E-3
251.429558E-3
248.476410E-3
244.778252E-3
241.814232E-3
237.456894E-3
234.602737E-3
231.872749E-3
229.531288E-3
229.342461E-3
228.272438E-3
229.077530E-3
229.336739E-3
229.626846E-3
231.416130E-3
231.738853E-3
233.505249E-3
234.286880E-3
234.924889E-3
236.896133E-3
237.459755E-3
239.875031E-3
241.111565E-3
242.348099E-3
244.218636E-3
244.109917E-3
244.672394E-3
244.077301E-3
242.832756E-3
242.856789E-3
241.719246E-3
241.716957E-3
241.254044E-3
240.552521E-3
241.367340E-3
240.819740E-3
241.898346E-3
242.274284E-3
242.448807E-3
244.018936E-3
244.140244E-3
245.557022E-3
245.896912E-3
246.227074E-3
247.693634E-3
247.805786E-3
249.339867E-3
249.781036E-3
250.284004E-3
251.523399E-3
251.268196E-3
251.813507E-3
251.375771E-3
250.619316E-3
250.850487E-3
249.615097E-3
249.878883E-3
249.571037E-3
249.075508E-3
249.964142E-3
249.500656E-3
250.285149E-3
250.455093E-3
250.332069E-3
251.658440E-3
251.564598E-3
252.780533E-3
252.919579E-3
252.881813E-3
253.944397E-3
253.375626E-3
254.250526E-3
253.629684E-3
251.865005E-3
250.409889E-3
246.754074E-3
244.009209E-3
240.079880E-3
236.467552E-3
234.491158E-3
231.689072E-3
230.997849E-3
230.398750E-3
230.028534E-3
231.331444E-3
231.667900E-3
233.304977E-3
234.285164E-3
234.846497E-3
236.642647E-3
236.825180E-3
238.776970E-3
240.226364E-3
241.772461E-3
244.358826E-3
245.039177E-3
246.869659E-3
247.072220E-3
246.760368E-3
247.167206E-3
246.034813E-3
245.987892E-3
245.011139E-3
244.218636E-3
244.648933E-3
243.910217E-3
244.794846E-3
245.207405E-3
245.672035E-3
247.346306E-3
247.546577E-3
248.884964E-3
249.393654E-3
249.670601E-3
250.912857E-3
250.644493E-3
251.630974E-3
251.844406E-3
251.312256E-3
252.199745E-3
251.448441E-3
251.981735E-3
251.778603E-3
251.466179E-3
252.159691E-3
251.602936E-3
252.322197E-3
252.374840E-3
252.118492E-3
253.255463E-3
252.897263E-3
253.676033E-3
253.565598E-3
253.353882E-3
254.287148E-3
253.701210E-3
254.573822E-3
254.669380E-3
254.736900E-3
255.901909E-3
255.496216E-3
256.254387E-3
256.537628E-3
256.397438E-3
256.955338E-3
255.097389E-3
253.458023E-3
250.597572E-3
246.449661E-3
243.653297E-3
239.642143E-3
237.320137E-3
235.089684E-3
233.454895E-3
233.801651E-3
233.198547E-3
234.576416E-3
235.309410E-3
235.786057E-3
237.644005E-3
237.849998E-3
239.444733E-3
240.320778E-3
241.274643E-3
243.716240E-3
244.694710E-3
246.924019E-3
248.110771E-3
248.471260E-3
249.445724E-3
248.566246E-3
248.713303E-3
248.026085E-3
246.733475E-3
246.762657E-3
245.607376E-3
245.509529E-3
245.179367E-3
244.800568E-3
245.952415E-3
245.924950E-3
247.313118E-3
248.390007E-3
248.703003E-3
250.397301E-3
250.535202E-3
252.129936E-3
252.622032E-3
253.123283E-3
254.409027E-3
253.973579E-3
254.833031E-3
254.707146E-3
254.415321E-3
255.384064E-3
254.823875E-3
255.489922E-3
255.505371E-3
255.095100E-3
255.801773E-3
255.175781E-3
255.900192E-3
255.913925E-3
255.774879E-3
256.723022E-3
256.211472E-3
257.137871E-3
257.411385E-3
257.096672E-3
258.324051E-3
257.777596E-3
258.864212E-3
258.911133E-3
258.726311E-3
259.671021E-3
258.955765E-3
259.276772E-3
257.995033E-3
255.460167E-3
253.395081E-3
249.243164E-3
246.007347E-3
242.289162E-3
238.894844E-3
237.195969E-3
234.819603E-3
234.285164E-3
233.767891E-3
233.352470E-3
234.640503E-3
234.617043E-3
235.921097E-3
236.733627E-3
237.218857E-3
239.028168E-3
239.294815E-3
241.489792E-3
243.050194E-3
244.482422E-3
247.069931E-3
247.626114E-3
249.189949E-3
249.454308E-3
249.125862E-3
249.646568E-3
248.413467E-3
248.455238E-3
247.788048E-3
247.091103E-3
247.470474E-3
246.438789E-3
246.932030E-3
247.322273E-3
247.156334E-3
248.575401E-3
248.624039E-3
249.847412E-3
250.577545E-3
250.837898E-3
252.276993E-3
252.062988E-3
253.277779E-3
253.779030E-3
253.621101E-3
254.924583E-3
254.209900E-3
254.958344E-3
254.854202E-3
254.689407E-3
255.698776E-3
254.978371E-3
255.731392E-3
255.662727E-3
255.088234E-3
255.823517E-3
254.967499E-3
255.345154E-3
255.231857E-3
254.914284E-3
255.709648E-3
255.029297E-3
255.818939E-3
256.153679E-3
255.918503E-3
257.164764E-3
256.763649E-3
257.803345E-3
258.215904E-3
258.064270E-3
259.196663E-3
258.040237E-3
257.240295E-3
254.563522E-3
251.077652E-3
248.029518E-3
243.136024E-3
240.353394E-3
237.603378E-3
235.115433E-3
235.077667E-3
233.801079E-3
234.353828E-3
234.954071E-3
235.315704E-3
237.035179E-3
237.379646E-3
238.861084E-3
239.933395E-3
240.406609E-3
242.467690E-3
242.992401E-3
245.016289E-3
246.847343E-3
247.835541E-3
249.932098E-3
249.726105E-3
250.444794E-3
249.965858E-3
248.995972E-3
249.242592E-3
247.719383E-3
247.681046E-3
247.314835E-3
246.746063E-3
247.651291E-3
247.147751E-3
247.956848E-3
248.326492E-3
248.614883E-3
250.008774E-3
249.810219E-3
251.046181E-3
251.991463E-3
252.348518E-3
254.102325E-3
253.990746E-3
255.180359E-3
255.777168E-3
255.880737E-3
256.898689E-3
256.086731E-3
256.721306E-3
256.971931E-3
256.429482E-3
257.533264E-3
256.846619E-3
257.505798E-3
257.617378E-3
257.418823E-3
258.370972E-3
257.583618E-3
258.390999E-3
258.560371E-3
258.294868E-3
259.407806E-3
258.708000E-3
259.557152E-3
260.046387E-3
260.156250E-3
261.524391E-3
261.251450E-3
261.999321E-3
262.416458E-3
262.151527E-3
263.116837E-3
261.421394E-3
260.117912E-3
257.439423E-3
253.500938E-3
250.929451E-3
246.635628E-3
244.181442E-3
241.948700E-3
240.047264E-3
240.023804E-3
238.939476E-3
239.967155E-3
241.037750E-3
241.413116E-3
243.443871E-3
243.633270E-3
245.182800E-3
246.530342E-3
247.212982E-3
249.496078E-3
250.468254E-3
252.707291E-3
254.508018E-3
255.344582E-3
257.082939E-3
256.276703E-3
256.871223E-3
256.640053E-3
255.574608E-3
256.027794E-3
254.479980E-3
254.737473E-3
254.711151E-3
254.165268E-3
255.321121E-3
254.732323E-3
255.670738E-3
256.299591E-3
256.557083E-3
258.019066E-3
257.858849E-3
259.079933E-3
260.058975E-3
259.962845E-3
261.494637E-3
261.182213E-3
262.065125E-3
262.546349E-3
262.339783E-3
263.283348E-3
262.336349E-3
262.825012E-3
263.238716E-3
262.843323E-3
263.878441E-3
263.222694E-3
263.751984E-3
264.033508E-3
263.859558E-3
264.820862E-3
264.172554E-3
264.912415E-3
265.355301E-3
265.231705E-3
266.398430E-3
265.762138E-3
266.525459E-3
267.136574E-3
266.690254E-3
267.818069E-3
267.201233E-3
267.984581E-3
268.685532E-3
268.247223E-3
268.391418E-3
265.589333E-3
263.416100E-3
260.152817E-3
255.845833E-3
