Notes :


2023-10-30 ¿ÀÈÄ 11:36:21
Volts
Ch : LED 2,
95.369911E-3
94.861794E-3
93.439865E-3
93.499374E-3
92.067146E-3
91.969872E-3
92.052841E-3
91.251183E-3
92.001915E-3
91.257477E-3
91.691208E-3
92.233086E-3
91.827965E-3
92.766953E-3
92.250824E-3
92.954063E-3
93.470192E-3
93.224144E-3
94.301605E-3
93.875885E-3
94.647789E-3
95.117569E-3
94.715881E-3
95.576477E-3
94.893265E-3
95.222855E-3
95.634842E-3
94.851494E-3
95.619965E-3
94.889259E-3
95.230865E-3
95.364761E-3
94.832039E-3
95.657730E-3
95.174217E-3
95.630836E-3
95.972443E-3
95.431709E-3
96.351814E-3
95.848846E-3
96.228218E-3
96.775818E-3
96.202469E-3
97.137451E-3
96.614456E-3
96.974945E-3
97.340584E-3
96.878242E-3
97.519112E-3
96.968651E-3
97.336578E-3
97.751999E-3
97.045326E-3
97.938538E-3
97.267914E-3
97.579765E-3
98.127365E-3
97.471619E-3
98.223495E-3
97.663879E-3
98.028946E-3
98.456383E-3
97.970009E-3
98.676682E-3
98.066139E-3
98.582268E-3
98.900414E-3
98.297882E-3
99.077225E-3
98.253250E-3
97.920227E-3
97.686195E-3
96.286011E-3
96.166420E-3
94.826889E-3
94.541931E-3
94.516182E-3
93.419266E-3
94.092178E-3
93.610954E-3
93.810081E-3
94.550514E-3
94.223213E-3
95.172501E-3
95.046616E-3
95.514107E-3
96.114922E-3
95.489502E-3
96.643066E-3
96.421623E-3
96.706009E-3
97.420692E-3
96.720314E-3
97.679901E-3
97.375488E-3
97.325706E-3
97.734833E-3
96.809006E-3
97.525978E-3
97.063065E-3
96.998405E-3
97.239304E-3
96.351814E-3
97.367477E-3
96.885681E-3
96.894836E-3
97.487068E-3
96.780968E-3
97.694206E-3
97.410393E-3
97.469330E-3
98.086166E-3
97.352028E-3
98.515320E-3
98.044395E-3
98.010635E-3
98.489571E-3
97.622681E-3
98.589134E-3
98.214912E-3
97.947693E-3
98.371124E-3
97.701645E-3
98.557091E-3
98.192024E-3
98.038673E-3
98.632050E-3
97.823524E-3
98.789978E-3
98.486137E-3
98.474693E-3
99.072075E-3
98.280144E-3
99.195099E-3
98.890114E-3
98.872948E-3
99.322128E-3
98.531342E-3
99.151611E-3
98.208618E-3
97.487640E-3
97.321129E-3
95.773315E-3
95.709801E-3
94.577980E-3
93.806076E-3
94.005775E-3
93.081093E-3
93.850136E-3
93.515396E-3
93.457603E-3
94.381142E-3
93.785477E-3
94.792557E-3
94.767380E-3
94.545937E-3
95.461464E-3
94.985390E-3
96.093750E-3
96.041107E-3
96.096611E-3
97.135735E-3
96.547508E-3
97.361755E-3
97.089958E-3
96.756935E-3
97.448730E-3
96.607018E-3
97.282219E-3
96.942329E-3
96.603012E-3
97.353172E-3
96.563530E-3
97.303391E-3
97.127724E-3
96.867371E-3
97.785759E-3
97.143745E-3
98.016930E-3
97.880745E-3
97.884178E-3
98.748207E-3
98.076439E-3
98.809433E-3
98.698425E-3
98.481560E-3
99.254608E-3
98.517609E-3
99.030304E-3
98.793983E-3
98.377419E-3
99.142456E-3
98.312187E-3
98.888969E-3
98.557091E-3
98.355675E-3
99.026871E-3
98.475266E-3
99.208832E-3
98.998833E-3
98.666954E-3
99.564171E-3
98.986816E-3
99.541855E-3
99.479485E-3
99.068069E-3
99.744987E-3
98.896408E-3
99.279785E-3
98.403168E-3
97.303391E-3
97.276497E-3
95.649147E-3
95.429420E-3
94.650078E-3
93.791771E-3
94.207764E-3
93.402672E-3
93.917656E-3
93.970871E-3
93.578911E-3
94.563675E-3
94.032097E-3
94.714165E-3
94.856071E-3
94.647789E-3
95.706367E-3
95.111275E-3
96.031380E-3
96.259117E-3
96.118927E-3
97.246742E-3
96.455383E-3
97.178650E-3
97.253609E-3
96.689987E-3
97.446442E-3
96.458817E-3
96.869087E-3
96.731758E-3
96.279144E-3
97.066498E-3
96.066856E-3
96.546936E-3
96.661377E-3
96.240807E-3
97.275352E-3
96.528625E-3
97.132874E-3
97.233009E-3
97.019005E-3
97.975159E-3
97.259903E-3
98.016930E-3
98.299599E-3
97.927666E-3
98.896980E-3
98.016357E-3
98.413467E-3
98.621178E-3
98.123360E-3
98.838043E-3
98.000336E-3
98.497009E-3
98.579979E-3
98.028374E-3
99.012566E-3
98.098183E-3
98.456383E-3
98.755074E-3
98.338509E-3
99.288940E-3
98.600006E-3
99.014282E-3
99.246597E-3
98.785400E-3
99.624825E-3
98.593712E-3
98.515892E-3
98.194885E-3
96.812439E-3
96.779251E-3
95.191383E-3
94.785690E-3
94.524193E-3
93.421555E-3
93.830681E-3
92.968369E-3
93.398094E-3
93.864441E-3
93.289375E-3
94.336510E-3
93.790627E-3
94.367409E-3
94.873810E-3
94.461250E-3
95.453453E-3
95.099831E-3
95.749283E-3
96.343231E-3
96.197319E-3
97.152328E-3
96.593285E-3
97.035599E-3
97.341728E-3
96.734047E-3
97.428131E-3
96.609879E-3
96.839905E-3
97.039604E-3
96.368980E-3
97.013855E-3
96.378136E-3
96.726608E-3
97.072220E-3
96.499443E-3
97.329712E-3
96.874809E-3
97.226143E-3
97.766876E-3
97.139740E-3
98.058701E-3
97.599792E-3
98.004913E-3
98.393440E-3
97.881317E-3
98.585701E-3
98.055267E-3
98.388290E-3
98.738480E-3
98.011780E-3
98.684692E-3
98.015785E-3
98.371124E-3
98.757935E-3
98.139954E-3
98.947906E-3
98.598862E-3
98.860931E-3
99.524117E-3
98.900414E-3
99.778748E-3
99.266624E-3
99.509811E-3
99.997330E-3
99.313545E-3
100.008774E-3
99.322128E-3
99.153900E-3
98.955345E-3
97.447014E-3
97.374916E-3
96.101189E-3
95.536995E-3
95.299530E-3
94.235229E-3
94.689560E-3
94.015503E-3
94.217491E-3
94.735336E-3
94.168282E-3
95.140457E-3
94.919586E-3
95.206261E-3
95.831108E-3
95.333862E-3
96.333504E-3
96.045113E-3
96.512032E-3
97.332001E-3
96.921158E-3
98.133087E-3
97.869301E-3
98.062134E-3
98.505592E-3
97.706223E-3
98.483849E-3
98.043823E-3
97.974014E-3
98.144531E-3
97.255325E-3
98.185730E-3
97.781181E-3
97.677612E-3
98.046112E-3
97.418404E-3
98.416328E-3
98.143959E-3
98.174286E-3
98.863220E-3
98.248100E-3
99.365616E-3
99.033737E-3
98.850632E-3
99.686050E-3
98.870087E-3
99.768448E-3
99.384499E-3
99.181938E-3
99.702644E-3
98.839760E-3
99.817657E-3
99.462318E-3
99.283218E-3
99.894905E-3
99.064064E-3
99.950409E-3
99.681473E-3
99.558449E-3
100.115204E-3
99.247169E-3
100.219917E-3
99.676895E-3
99.468613E-3
99.946976E-3
99.042892E-3
99.712372E-3
99.270630E-3
98.630905E-3
98.661232E-3
97.197533E-3
97.144318E-3
96.066856E-3
95.178223E-3
95.256042E-3
93.981171E-3
94.532204E-3
94.050407E-3
94.099617E-3
95.030594E-3
94.443512E-3
95.577049E-3
95.525551E-3
95.463181E-3
96.343803E-3
95.817947E-3
96.886826E-3
96.756935E-3
96.831894E-3
97.853851E-3
97.293663E-3
98.196030E-3
97.940254E-3
97.918510E-3
98.540497E-3
97.677040E-3
98.445511E-3
97.912216E-3
97.509384E-3
98.196030E-3
97.384071E-3
98.137665E-3
97.806931E-3
97.496223E-3
98.288155E-3
97.717094E-3
98.389435E-3
98.173714E-3
98.114777E-3
98.883820E-3
98.264122E-3
99.012566E-3
98.787689E-3
98.570251E-3
99.234009E-3
98.593712E-3
99.169922E-3
98.791122E-3
98.452950E-3
99.142456E-3
98.321342E-3
98.937607E-3
98.840332E-3
98.432922E-3
99.228859E-3
98.548508E-3
99.097252E-3
99.008560E-3
98.707581E-3
99.416542E-3
98.870659E-3
99.571037E-3
99.426270E-3
98.977089E-3
99.768448E-3
98.927307E-3
99.367905E-3
98.858070E-3
97.824669E-3
97.801208E-3
96.231651E-3
96.045685E-3
95.134735E-3
93.925667E-3
94.251251E-3
93.283081E-3
93.582916E-3
93.513107E-3
93.349457E-3
94.205475E-3
93.591499E-3
94.476128E-3
94.660950E-3
94.383430E-3
95.356178E-3
94.658661E-3
95.492935E-3
95.831108E-3
95.610237E-3
96.722603E-3
96.064568E-3
96.792984E-3
96.962357E-3
96.442795E-3
97.277069E-3
96.412468E-3
96.813583E-3
96.853065E-3
96.311760E-3
97.092247E-3
96.271706E-3
96.673965E-3
96.838188E-3
96.451950E-3
97.378349E-3
96.745491E-3
97.362900E-3
97.540855E-3
97.262764E-3
98.257256E-3
97.443581E-3
98.035240E-3
98.288155E-3
98.003769E-3
98.911285E-3
98.101616E-3
98.532486E-3
98.746490E-3
98.137665E-3
99.063492E-3
98.220062E-3
98.653221E-3
98.937607E-3
98.452377E-3
99.340439E-3
98.503876E-3
99.003410E-3
99.109840E-3
98.600578E-3
99.432564E-3
98.781967E-3
99.070930E-3
99.248314E-3
98.726463E-3
99.613953E-3
98.589706E-3
98.796272E-3
98.482132E-3
97.091675E-3
97.085381E-3
95.413399E-3
94.947052E-3
94.517899E-3
93.334007E-3
93.793488E-3
92.761230E-3
93.076515E-3
93.436432E-3
92.975807E-3
93.915939E-3
93.364334E-3
93.903351E-3
94.480705E-3
94.022942E-3
94.943619E-3
94.511604E-3
95.134735E-3
95.887184E-3
95.490646E-3
96.644783E-3
96.175003E-3
96.699142E-3
97.099686E-3
96.497726E-3
97.188377E-3
96.477699E-3
96.695709E-3
96.973228E-3
96.267128E-3
97.025299E-3
96.359825E-3
96.605301E-3
96.989250E-3
96.340370E-3
97.237587E-3
96.652794E-3
97.035027E-3
97.509384E-3
97.104836E-3
97.946548E-3
97.615814E-3
97.872162E-3
98.327065E-3
97.713661E-3
98.628044E-3
98.038673E-3
98.346519E-3
98.737335E-3
98.111343E-3
98.768234E-3
98.210335E-3
98.357391E-3
98.817444E-3
98.238945E-3
98.939323E-3
98.486710E-3
98.783112E-3
99.263763E-3
98.586845E-3
99.266052E-3
98.864937E-3
99.088669E-3
99.552727E-3
98.872375E-3
99.607086E-3
98.866081E-3
98.711586E-3
98.547363E-3
97.070503E-3
96.900558E-3
95.538139E-3
94.840622E-3
94.589996E-3
93.395233E-3
93.828392E-3
93.062782E-3
93.195534E-3
93.675613E-3
93.084526E-3
94.106483E-3
93.797493E-3
94.043541E-3
94.782829E-3
94.032097E-3
95.059204E-3
94.894981E-3
95.139885E-3
95.997047E-3
95.447731E-3
96.629906E-3
96.434784E-3
96.572685E-3
96.950340E-3
96.159554E-3
97.042465E-3
96.485710E-3
96.318054E-3
96.722603E-3
95.803642E-3
96.691132E-3
96.358681E-3
96.320915E-3
96.739769E-3
95.997620E-3
97.069359E-3
96.815300E-3
96.830177E-3
97.512817E-3
96.884537E-3
97.996902E-3
97.703362E-3
97.671318E-3
98.319054E-3
97.786331E-3
98.773384E-3
98.507309E-3
98.423195E-3
99.022293E-3
98.201180E-3
98.973083E-3
98.610306E-3
98.512459E-3
99.001122E-3
98.243523E-3
99.177933E-3
98.884964E-3
98.698997E-3
99.568176E-3
98.799706E-3
99.664307E-3
99.412537E-3
99.287224E-3
99.944687E-3
99.179077E-3
99.979019E-3
99.419403E-3
98.917580E-3
99.086952E-3
97.660446E-3
97.818947E-3
96.474266E-3
95.438576E-3
95.480347E-3
94.122505E-3
94.515038E-3
93.980598E-3
93.388367E-3
94.171715E-3
93.672752E-3
94.545937E-3
94.395447E-3
94.343376E-3
95.346451E-3
94.900131E-3
95.785904E-3
95.712090E-3
95.811081E-3
96.978378E-3
96.493721E-3
97.563744E-3
97.572327E-3
97.425842E-3
98.202324E-3
97.565460E-3
98.083878E-3
97.711372E-3
97.281075E-3
97.921371E-3
97.139740E-3
97.714806E-3
97.581482E-3
97.191811E-3
97.878456E-3
97.263336E-3
98.018646E-3
97.838402E-3
97.703934E-3
98.611450E-3
98.046684E-3
98.838043E-3
98.682404E-3
98.513603E-3
99.247742E-3
98.581696E-3
99.341011E-3
99.237442E-3
98.713875E-3
99.429703E-3
98.748779E-3
99.335289E-3
99.088669E-3
98.698997E-3
99.460030E-3
98.833466E-3
99.532127E-3
99.430847E-3
99.133873E-3
99.988747E-3
99.465752E-3
100.149536E-3
100.070000E-3
99.731827E-3
100.544357E-3
99.842262E-3
100.301170E-3
100.098610E-3
99.518394E-3
99.842262E-3
98.242378E-3
98.144531E-3
97.293663E-3
96.143532E-3
96.231651E-3
94.794273E-3
94.878960E-3
94.691849E-3
94.250107E-3
95.296097E-3
94.587708E-3
95.407104E-3
95.667458E-3
95.696068E-3
96.715164E-3
96.019936E-3
96.754646E-3
96.924591E-3
96.807861E-3
98.035240E-3
97.472763E-3
98.216057E-3
98.364830E-3
97.999763E-3
99.000549E-3
97.991180E-3
98.499870E-3
98.470688E-3
97.845840E-3
98.527336E-3
97.703934E-3
97.993469E-3
98.112488E-3
97.666740E-3
98.543358E-3
97.568893E-3
98.067856E-3
98.482704E-3
97.955704E-3
98.826599E-3
98.134804E-3
98.712730E-3
99.018288E-3
98.495293E-3
99.481773E-3
98.705864E-3
99.124146E-3
99.294662E-3
98.721313E-3
99.464607E-3
98.749352E-3
99.172783E-3
99.383926E-3
98.823738E-3
99.783897E-3
98.956490E-3
99.258041E-3
99.659729E-3
99.070930E-3
99.904633E-3
99.148178E-3
99.668884E-3
100.016212E-3
99.555588E-3
100.288010E-3
99.551010E-3
99.977303E-3
100.242233E-3
99.207687E-3
99.606514E-3
98.063278E-3
97.695351E-3
97.066498E-3
95.643425E-3
95.726395E-3
94.440079E-3
94.559097E-3
94.795418E-3
94.036102E-3
94.953918E-3
94.398880E-3
95.008850E-3
95.492363E-3
95.039177E-3
95.964432E-3
95.435715E-3
96.066856E-3
96.629906E-3
96.272278E-3
97.488213E-3
96.981239E-3
97.511101E-3
98.161125E-3
97.558022E-3
98.331070E-3
97.667313E-3
97.829247E-3
98.182869E-3
97.417831E-3
98.137093E-3
97.490501E-3
97.613525E-3
98.038101E-3
97.332573E-3
98.141670E-3
97.683334E-3
98.114777E-3
98.624611E-3
98.147392E-3
98.995972E-3
98.620605E-3
99.006844E-3
99.514961E-3
99.018860E-3
99.658585E-3
99.236870E-3
99.537849E-3
99.986458E-3
99.314117E-3
99.953270E-3
99.492645E-3
99.726105E-3
100.124931E-3
99.525261E-3
100.270271E-3
99.715233E-3
99.902344E-3
100.404739E-3
99.755287E-3
100.478554E-3
99.987030E-3
100.182152E-3
100.741196E-3
100.086021E-3
100.894547E-3
100.393867E-3
100.548935E-3
100.760651E-3
99.798203E-3
99.917221E-3
98.617172E-3
97.964859E-3
97.423553E-3
95.764732E-3
95.945549E-3
94.933319E-3
94.561386E-3
94.928169E-3
94.076157E-3
94.983101E-3
94.661522E-3
94.802856E-3
95.468903E-3
94.834900E-3
95.772743E-3
95.533562E-3
95.696640E-3
96.348381E-3
95.925522E-3
97.203827E-3
97.179222E-3
97.335434E-3
98.151398E-3
97.413826E-3
98.379707E-3
97.975159E-3
97.821808E-3
98.319054E-3
97.373199E-3
98.194885E-3
97.727394E-3
97.609520E-3
98.014069E-3
97.129440E-3
98.083878E-3
97.727966E-3
97.750854E-3
98.424911E-3
97.705650E-3
98.724174E-3
98.513603E-3
98.550797E-3
99.259758E-3
98.526764E-3
99.555588E-3
99.256325E-3
99.054337E-3
99.659157E-3
98.831749E-3
99.708366E-3
99.362183E-3
99.056053E-3
99.625969E-3
98.875237E-3
99.712944E-3
99.272919E-3
99.002266E-3
99.738693E-3
99.055481E-3
100.017929E-3
99.611092E-3
99.469185E-3
100.237656E-3
99.592781E-3
100.474548E-3
100.151253E-3
99.868011E-3
100.420761E-3
99.465752E-3
99.802208E-3
98.788834E-3
97.715950E-3
97.496796E-3
95.851707E-3
95.938110E-3
94.993401E-3
94.291306E-3
94.723320E-3
93.972015E-3
94.725037E-3
94.502449E-3
94.391441E-3
95.220566E-3
94.727325E-3
95.496368E-3
95.326996E-3
95.318413E-3
96.251678E-3
95.706940E-3
96.643639E-3
96.685982E-3
96.691132E-3
97.706223E-3
97.074509E-3
97.720528E-3
97.509384E-3
97.187233E-3
97.841263E-3
97.064209E-3
97.653580E-3
97.354317E-3
96.932030E-3
97.698784E-3
96.997261E-3
97.565460E-3
97.476768E-3
97.048187E-3
97.964287E-3
97.444153E-3
98.219490E-3
98.196602E-3
98.039246E-3
98.959923E-3
98.429489E-3
99.220276E-3
99.225998E-3
