Notes :


2023-11-05 ¿ÀÈÄ 2:21:33
Volts
Ch : LED 2,
292.972183E-3
292.668343E-3
292.749596E-3
292.963600E-3
292.849159E-3
293.305206E-3
293.051147E-3
293.033409E-3
293.348122E-3
293.261719E-3
293.757248E-3
293.524933E-3
293.590736E-3
293.602753E-3
293.400192E-3
293.773842E-3
293.341827E-3
293.453979E-3
293.698883E-3
293.668556E-3
294.088554E-3
293.967247E-3
293.904877E-3
294.161224E-3
294.009018E-3
294.208145E-3
294.035912E-3
294.195557E-3
294.453621E-3
294.383240E-3
294.672203E-3
294.410706E-3
294.490242E-3
294.806099E-3
294.669914E-3
295.090485E-3
294.777489E-3
294.846725E-3
294.795227E-3
294.713974E-3
295.042992E-3
294.953728E-3
295.199776E-3
295.216942E-3
295.117378E-3
295.444107E-3
295.277596E-3
295.243835E-3
295.425797E-3
295.090485E-3
295.272446E-3
295.000648E-3
295.090485E-3
295.436668E-3
295.164299E-3
295.430374E-3
294.855309E-3
295.004654E-3
294.843292E-3
294.139481E-3
294.098854E-3
293.739510E-3
293.426514E-3
293.536949E-3
293.215942E-3
293.247414E-3
293.035698E-3
293.114090E-3
293.389320E-3
293.161011E-3
293.510056E-3
293.465424E-3
293.423080E-3
293.860245E-3
293.634224E-3
294.109726E-3
293.856239E-3
294.056511E-3
294.345474E-3
294.114304E-3
294.422150E-3
294.343185E-3
294.367218E-3
294.723129E-3
294.435883E-3
294.505692E-3
294.471359E-3
294.537163E-3
294.770050E-3
294.486809E-3
294.746590E-3
294.660759E-3
294.685364E-3
295.192909E-3
295.042419E-3
295.400620E-3
295.365143E-3
295.304489E-3
295.479584E-3
295.304489E-3
295.508766E-3
295.430374E-3
295.579720E-3
295.875549E-3
295.765686E-3
295.963669E-3
296.015739E-3
295.805168E-3
296.157646E-3
295.995712E-3
296.209717E-3
296.031761E-3
296.044922E-3
296.209145E-3
295.820618E-3
296.084404E-3
295.754242E-3
295.966530E-3
296.198273E-3
296.087265E-3
296.229172E-3
296.123314E-3
295.681000E-3
295.667839E-3
295.061302E-3
294.759178E-3
294.443893E-3
294.232750E-3
294.148064E-3
293.797874E-3
293.859673E-3
293.571281E-3
293.364143E-3
293.548965E-3
293.240547E-3
293.642235E-3
293.666840E-3
293.563843E-3
293.845367E-3
293.305779E-3
293.512917E-3
293.665695E-3
293.424797E-3
293.702888E-3
293.409348E-3
293.551826E-3
293.633652E-3
293.400192E-3
293.733215E-3
293.507767E-3
293.679428E-3
293.633652E-3
293.761826E-3
293.968964E-3
293.740654E-3
294.170952E-3
293.916321E-3
294.055367E-3
294.173813E-3
293.869400E-3
294.177818E-3
294.392395E-3
294.022751E-3
294.313431E-3
294.194412E-3
294.394684E-3
294.505692E-3
294.375229E-3
294.688225E-3
294.490814E-3
294.738007E-3
294.560623E-3
294.750595E-3
294.873047E-3
294.672203E-3
294.830704E-3
294.586372E-3
294.479370E-3
294.715691E-3
294.598389E-3
294.645309E-3
294.580078E-3
294.480515E-3
294.713974E-3
294.297981E-3
294.566917E-3
294.711685E-3
294.417000E-3
294.606972E-3
293.944359E-3
294.039345E-3
293.554687E-3
292.949295E-3
292.794800E-3
292.170525E-3
291.986847E-3
291.792297E-3
291.783714E-3
291.817474E-3
291.706467E-3
291.720772E-3
291.786575E-3
291.586876E-3
291.816902E-3
291.541672E-3
291.690445E-3
291.757393E-3
291.406631E-3
291.796875E-3
291.683006E-3
291.729355E-3
291.661263E-3
291.648102E-3
291.832924E-3
291.519356E-3
291.816902E-3
291.657829E-3
291.687584E-3
291.935349E-3
291.890144E-3
292.077827E-3
292.328453E-3
292.188835E-3
292.481804E-3
292.290688E-3
292.230034E-3
292.282677E-3
292.021751E-3
292.520714E-3
292.256355E-3
292.382812E-3
292.451477E-3
292.583084E-3
292.920113E-3
292.765045E-3
293.045998E-3
292.878342E-3
292.885208E-3
293.350410E-3
293.121529E-3
293.039131E-3
293.247414E-3
293.108368E-3
293.358421E-3
293.048286E-3
293.088341E-3
293.317223E-3
293.017387E-3
293.499184E-3
293.088341E-3
293.399620E-3
293.448257E-3
293.185043E-3
293.609619E-3
293.210220E-3
293.157005E-3
293.066025E-3
292.829132E-3
292.605400E-3
292.020035E-3
291.812325E-3
291.645241E-3
291.338539E-3
291.399765E-3
290.796661E-3
290.815544E-3
291.097641E-3
290.752029E-3
290.940857E-3
290.717125E-3
290.950584E-3
291.103363E-3
290.920258E-3
291.166878E-3
291.222954E-3
291.358566E-3
291.540527E-3
291.282463E-3
291.390610E-3
291.385460E-3
291.313362E-3
291.601753E-3
291.339111E-3
291.755104E-3
291.547966E-3
291.652679E-3
291.787148E-3
291.644669E-3
291.933060E-3
291.879845E-3
292.076683E-3
292.147636E-3
291.913605E-3
291.987991E-3
291.808891E-3
291.868973E-3
292.157936E-3
291.973114E-3
292.331314E-3
292.331886E-3
292.333031E-3
292.933846E-3
292.616272E-3
292.929840E-3
292.734146E-3
292.636871E-3
292.995071E-3
292.690659E-3
292.928123E-3
292.895508E-3
292.982483E-3
293.255424E-3
293.008232E-3
293.148994E-3
293.017960E-3
292.989349E-3
293.120384E-3
293.043709E-3
293.119240E-3
292.855453E-3
293.126106E-3
293.511772E-3
293.216515E-3
293.321800E-3
292.995071E-3
292.778206E-3
292.617416E-3
291.891861E-3
291.704750E-3
291.469002E-3
291.292763E-3
291.498756E-3
291.101074E-3
291.010094E-3
291.048431E-3
291.016960E-3
291.415215E-3
291.203499E-3
291.308212E-3
291.253281E-3
291.473007E-3
291.625786E-3
291.448975E-3
291.935349E-3
291.760826E-3
291.826057E-3
292.067528E-3
291.771698E-3
291.847801E-3
292.101860E-3
291.848946E-3
292.119598E-3
291.898155E-3
292.169952E-3
292.278099E-3
292.135620E-3
292.527580E-3
292.278671E-3
292.592239E-3
292.500114E-3
292.711830E-3
292.901802E-3
292.628860E-3
292.928123E-3
292.827415E-3
293.020821E-3
293.281174E-3
293.207932E-3
293.362999E-3
293.340683E-3
293.322945E-3
293.714905E-3
293.549538E-3
293.935204E-3
294.041061E-3
293.742371E-3
294.018745E-3
293.704605E-3
294.173813E-3
294.030762E-3
293.872261E-3
294.033051E-3
293.868828E-3
294.112015E-3
294.059944E-3
294.060516E-3
294.249916E-3
293.930054E-3
294.033623E-3
294.124031E-3
293.662834E-3
293.629646E-3
292.982483E-3
292.924690E-3
292.567062E-3
292.469788E-3
292.428589E-3
291.907310E-3
292.182541E-3
292.077827E-3
291.844940E-3
292.139626E-3
291.849518E-3
291.909027E-3
291.989708E-3
291.818047E-3
292.097282E-3
291.841507E-3
292.322159E-3
292.586517E-3
292.275810E-3
292.566490E-3
292.353630E-3
292.426300E-3
292.122459E-3
292.132187E-3
292.407417E-3
292.246056E-3
292.521858E-3
292.334175E-3
292.418861E-3
292.517853E-3
292.181969E-3
292.361069E-3
292.425728E-3
292.123604E-3
292.560196E-3
292.491531E-3
292.611122E-3
292.645454E-3
292.455482E-3
292.913246E-3
292.773056E-3
292.993355E-3
293.061447E-3
293.111801E-3
293.336678E-3
293.213081E-3
293.455696E-3
293.293762E-3
293.136978E-3
293.260574E-3
293.235397E-3
293.353271E-3
293.231392E-3
292.970467E-3
293.183327E-3
292.885208E-3
293.002510E-3
293.177605E-3
292.917252E-3
293.229103E-3
293.143845E-3
293.312073E-3
293.144417E-3
292.789650E-3
292.657471E-3
292.032051E-3
291.775703E-3
291.494179E-3
291.031265E-3
291.172600E-3
290.904236E-3
290.785217E-3
290.898514E-3
290.637589E-3
290.930557E-3
290.754890E-3
290.986633E-3
290.932274E-3
290.859032E-3
291.069031E-3
290.672493E-3
290.789795E-3
290.764618E-3
290.851021E-3
291.156578E-3
290.822411E-3
290.900803E-3
291.040993E-3
290.647316E-3
291.015244E-3
290.581512E-3
290.784645E-3
291.194344E-3
290.940857E-3
291.489029E-3
291.074753E-3
291.175461E-3
291.360855E-3
291.174316E-3
291.571999E-3
291.288185E-3
291.362572E-3
291.674423E-3
291.477585E-3
291.791153E-3
291.661263E-3
291.666985E-3
291.985703E-3
291.776848E-3
292.272949E-3
292.041779E-3
292.279816E-3
292.507553E-3
292.254639E-3
292.442894E-3
292.298126E-3
292.649460E-3
292.658043E-3
292.680931E-3
292.900085E-3
292.619705E-3
292.658043E-3
293.040276E-3
292.780495E-3
292.914391E-3
292.668343E-3
292.688370E-3
293.002510E-3
292.595100E-3
292.818832E-3
292.284393E-3
292.078400E-3
291.808891E-3
291.319084E-3
291.220665E-3
290.881920E-3
290.752602E-3
290.770912E-3
290.472794E-3
290.547180E-3
290.562057E-3
290.756035E-3
291.083908E-3
290.778351E-3
290.876198E-3
290.552330E-3
290.559196E-3
290.864754E-3
290.593529E-3
291.030121E-3
290.677643E-3
290.844154E-3
291.161156E-3
290.852737E-3
290.917397E-3
290.852165E-3
291.025543E-3
291.122818E-3
290.989494E-3
291.141701E-3
291.027832E-3
290.974617E-3
291.440392E-3
291.137695E-3
291.456985E-3
291.246986E-3
291.404915E-3
291.790009E-3
291.485596E-3
291.853523E-3
291.633797E-3
291.692162E-3
292.132187E-3
291.817474E-3
292.046356E-3
292.224884E-3
292.155075E-3
292.484665E-3
292.327309E-3
292.353630E-3
292.343330E-3
292.491531E-3
292.693520E-3
292.480659E-3
292.647743E-3
292.371941E-3
292.609978E-3
292.596817E-3
292.311287E-3
292.578506E-3
292.301559E-3
292.214584E-3
292.380524E-3
292.413712E-3
292.619705E-3
292.597389E-3
292.165947E-3
292.109871E-3
291.462135E-3
291.219521E-3
290.931702E-3
290.657616E-3
290.848732E-3
290.351486E-3
290.421867E-3
290.210152E-3
290.176392E-3
290.313721E-3
290.103722E-3
290.448189E-3
290.376091E-3
290.370941E-3
290.420723E-3
290.178108E-3
290.368652E-3
290.336609E-3
290.402412E-3
290.695381E-3
290.382385E-3
290.491676E-3
290.441895E-3
290.457916E-3
290.601540E-3
290.362930E-3
290.794373E-3
290.769196E-3
290.601540E-3
290.977478E-3
290.721130E-3
291.173744E-3
290.929413E-3
290.959167E-3
291.165733E-3
290.848160E-3
291.121101E-3
291.180038E-3
291.347122E-3
291.522789E-3
291.485596E-3
291.795731E-3
291.795158E-3
291.442108E-3
291.867828E-3
291.711044E-3
292.101288E-3
292.183113E-3
291.834641E-3
292.273521E-3
292.000008E-3
292.211151E-3
291.912460E-3
291.886711E-3
292.210007E-3
291.921043E-3
292.372513E-3
292.104721E-3
292.009163E-3
292.291832E-3
292.006874E-3
292.175102E-3
292.361069E-3
292.326736E-3
292.607117E-3
292.464638E-3
292.401123E-3
292.197418E-3
291.737938E-3
291.610909E-3
290.991783E-3
291.238403E-3
290.889359E-3
290.565491E-3
290.680504E-3
290.282822E-3
290.592957E-3
290.481377E-3
290.559769E-3
290.723991E-3
290.456200E-3
290.762329E-3
290.623856E-3
290.417862E-3
290.758896E-3
290.575790E-3
290.783501E-3
290.831566E-3
290.684509E-3
290.980911E-3
290.692520E-3
290.927124E-3
290.883636E-3
291.040993E-3
291.300201E-3
291.125679E-3
291.533089E-3
291.407204E-3
291.501045E-3
291.768265E-3
291.501045E-3
291.690445E-3
291.733360E-3
291.642380E-3
291.990280E-3
291.756821E-3
292.007446E-3
292.256355E-3
292.000580E-3
292.440605E-3
292.241478E-3
292.593384E-3
292.651749E-3
292.821693E-3
293.095207E-3
292.848587E-3
292.952728E-3
293.004799E-3
293.024826E-3
293.204498E-3
293.201065E-3
293.383026E-3
293.416214E-3
293.336678E-3
293.556976E-3
293.255424E-3
293.374443E-3
293.475151E-3
293.305206E-3
293.510056E-3
293.192482E-3
293.529510E-3
293.653679E-3
293.704033E-3
293.956947E-3
293.470001E-3
293.344116E-3
293.089485E-3
292.481804E-3
292.544174E-3
292.299271E-3
292.206573E-3
292.073250E-3
291.903877E-3
292.045212E-3
291.773987E-3
291.925049E-3
292.007446E-3
292.013741E-3
292.325020E-3
291.917038E-3
292.017174E-3
292.053223E-3
291.925621E-3
292.371368E-3
292.160797E-3
292.264366E-3
292.263222E-3
292.092133E-3
292.398834E-3
292.206001E-3
292.270660E-3
292.210579E-3
292.117310E-3
292.539597E-3
292.100716E-3
292.346191E-3
292.355919E-3
292.268372E-3
292.685509E-3
292.206573E-3
292.598534E-3
292.743301E-3
292.509270E-3
292.956734E-3
292.794228E-3
292.755318E-3
293.030548E-3
292.787933E-3
293.124962E-3
292.993355E-3
293.194199E-3
293.326378E-3
293.181610E-3
293.509483E-3
293.092346E-3
293.210220E-3
293.250847E-3
293.176460E-3
293.519211E-3
293.180466E-3
293.388748E-3
293.260574E-3
293.217659E-3
293.415642E-3
293.139267E-3
293.237686E-3
293.586731E-3
293.366432E-3
293.758392E-3
293.421364E-3
293.303490E-3
293.580437E-3
293.080330E-3
293.114662E-3
292.505264E-3
292.200279E-3
291.979980E-3
291.628647E-3
291.906166E-3
291.654396E-3
291.624641E-3
291.509056E-3
291.237831E-3
291.437531E-3
291.184616E-3
291.325378E-3
291.711044E-3
291.269875E-3
291.564560E-3
291.205215E-3
291.224098E-3
291.553116E-3
291.386032E-3
291.775131E-3
291.572571E-3
291.551971E-3
291.589165E-3
291.288757E-3
291.485596E-3
291.294479E-3
291.469002E-3
291.645813E-3
291.471291E-3
291.680717E-3
291.594315E-3
291.510773E-3
291.956520E-3
291.628075E-3
291.866684E-3
291.828918E-3
291.654396E-3
292.073822E-3
291.786575E-3
291.977692E-3
291.852379E-3
292.230606E-3
292.218018E-3
292.006302E-3
292.289543E-3
292.113876E-3
292.378235E-3
292.379951E-3
292.185402E-3
292.409134E-3
292.251205E-3
292.188835E-3
292.704391E-3
292.436028E-3
292.635727E-3
292.628288E-3
292.409134E-3
292.819405E-3
292.305565E-3
292.579651E-3
292.426300E-3
292.563629E-3
292.698097E-3
292.478371E-3
292.646027E-3
292.434311E-3
292.432022E-3
292.235184E-3
291.648102E-3
291.527367E-3
291.190338E-3
290.727997E-3
290.857887E-3
290.353203E-3
290.458488E-3
290.158081E-3
289.919472E-3
290.378380E-3
290.047646E-3
290.256500E-3
290.198708E-3
290.451050E-3
290.704536E-3
290.288544E-3
290.411568E-3
290.346336E-3
290.549469E-3
290.659904E-3
290.413857E-3
290.452194E-3
290.247917E-3
290.404129E-3
290.706253E-3
290.397835E-3
290.590668E-3
290.574074E-3
290.667915E-3
291.130257E-3
290.715408E-3
291.134834E-3
291.019249E-3
291.048431E-3
291.226387E-3
291.135406E-3
291.335678E-3
291.411781E-3
291.406059E-3
291.653824E-3
291.382027E-3
291.625214E-3
291.668701E-3
291.723633E-3
292.046356E-3
291.772842E-3
292.096138E-3
291.952515E-3
292.108154E-3
292.359924E-3
292.000580E-3
292.411423E-3
292.268944E-3
292.188263E-3
292.396545E-3
291.996002E-3
292.280960E-3
292.366219E-3
292.094994E-3
292.295837E-3
292.157936E-3
292.319870E-3
292.422867E-3
292.184258E-3
292.608833E-3
292.387962E-3
292.520142E-3
292.476082E-3
292.256355E-3
292.184258E-3
291.375160E-3
291.487312E-3
290.986061E-3
290.678787E-3
290.622139E-3
290.131187E-3
290.164375E-3
290.146637E-3
289.632797E-3
290.038490E-3
289.755249E-3
290.040779E-3
290.114594E-3
289.839935E-3
290.235329E-3
289.790154E-3
289.951515E-3
289.985847E-3
290.145493E-3
290.354919E-3
290.115738E-3
290.385246E-3
290.144348E-3
290.174103E-3
290.229034E-3
290.057373E-3
290.330887E-3
290.357208E-3
290.100861E-3
290.496254E-3
290.321159E-3
290.437889E-3
290.535736E-3
290.394402E-3
290.801811E-3
290.599251E-3
290.893364E-3
290.800667E-3
290.958595E-3
291.145706E-3
290.994644E-3
291.261864E-3
291.058731E-3
291.157722E-3
291.450691E-3
291.390038E-3
291.710472E-3
291.879845E-3
291.508484E-3
291.808319E-3
291.609764E-3
291.671562E-3
291.822052E-3
291.648674E-3
291.921616E-3
291.629219E-3
291.904449E-3
291.927910E-3
291.989708E-3
292.198563E-3
291.846657E-3
291.945076E-3
291.917038E-3
292.005730E-3
292.279816E-3
292.259216E-3
292.319870E-3
292.343903E-3
292.252350E-3
292.448616E-3
291.966820E-3
291.942215E-3
291.630936E-3
291.093636E-3
291.270447E-3
290.762901E-3
290.810966E-3
290.615845E-3
290.467644E-3
290.632439E-3
290.393257E-3
290.610123E-3
290.695953E-3
290.745163E-3
290.999222E-3
290.704536E-3
290.827560E-3
290.942001E-3
290.552330E-3
291.057014E-3
291.027260E-3
