Notes :


2023-11-05 ¿ÀÈÄ 2:24:17
Volts
Ch : LED 2,
286.950874E-3
286.831284E-3
286.803246E-3
286.631584E-3
286.902237E-3
286.797523E-3
286.786079E-3
286.813545E-3
286.703110E-3
287.082481E-3
287.005234E-3
287.017822E-3
286.774063E-3
286.237335E-3
286.039925E-3
285.392189E-3
285.366440E-3
285.054588E-3
284.858322E-3
285.023117E-3
284.782219E-3
284.947586E-3
285.088921E-3
285.071182E-3
285.141563E-3
285.179329E-3
284.933281E-3
285.251427E-3
285.164452E-3
285.681725E-3
285.466003E-3
285.514069E-3
285.412788E-3
285.239410E-3
285.544968E-3
285.215950E-3
285.245705E-3
285.406494E-3
285.431099E-3
285.777855E-3
285.480309E-3
285.594177E-3
285.740662E-3
285.764694E-3
285.950089E-3
285.722923E-3
285.774994E-3
285.892868E-3
285.826492E-3
286.116028E-3
285.888863E-3
286.078262E-3
286.073112E-3
286.077118E-3
286.350060E-3
286.051941E-3
286.416435E-3
286.612129E-3
286.430168E-3
286.771774E-3
286.478233E-3
286.502266E-3
286.507988E-3
286.526871E-3
286.783218E-3
286.689377E-3
286.852455E-3
286.790085E-3
286.644173E-3
286.750031E-3
286.363220E-3
286.532593E-3
286.310005E-3
286.081123E-3
286.550903E-3
286.120033E-3
286.160088E-3
286.438751E-3
286.424446E-3
286.585808E-3
286.167526E-3
286.238480E-3
286.075974E-3
285.684586E-3
285.556984E-3
285.011673E-3
284.741592E-3
284.635162E-3
284.500694E-3
284.617996E-3
284.283257E-3
284.601974E-3
284.592247E-3
284.441757E-3
284.845161E-3
284.640884E-3
284.813690E-3
284.980202E-3
284.782791E-3
285.092926E-3
285.024261E-3
285.002518E-3
284.992218E-3
285.077477E-3
285.158730E-3
284.911537E-3
284.974480E-3
284.897804E-3
284.724998E-3
285.163307E-3
284.860611E-3
284.963608E-3
285.370445E-3
285.173035E-3
285.528374E-3
285.369301E-3
285.360146E-3
285.318947E-3
285.248566E-3
285.542679E-3
285.376167E-3
285.519791E-3
285.630798E-3
285.638809E-3
285.929489E-3
285.702896E-3
285.618210E-3
285.939789E-3
285.750961E-3
286.093140E-3
286.000443E-3
286.093712E-3
286.303711E-3
286.178398E-3
286.559486E-3
286.363792E-3
286.463928E-3
286.573792E-3
286.259079E-3
286.463356E-3
286.177826E-3
286.240768E-3
286.097717E-3
285.979843E-3
286.362648E-3
286.154366E-3
286.225319E-3
286.484528E-3
286.157799E-3
286.276245E-3
286.128616E-3
285.783577E-3
285.793877E-3
285.364723E-3
285.509491E-3
285.044861E-3
284.993935E-3
284.910393E-3
284.651756E-3
284.847450E-3
284.453773E-3
284.474373E-3
284.650612E-3
284.618568E-3
284.913254E-3
284.726143E-3
284.663200E-3
284.751320E-3
284.658623E-3
284.954453E-3
284.918404E-3
285.149574E-3
285.356712E-3
285.112381E-3
285.321236E-3
285.073471E-3
284.925270E-3
285.056877E-3
284.681511E-3
284.941292E-3
284.827423E-3
284.947586E-3
284.958458E-3
284.914398E-3
285.272026E-3
285.012817E-3
285.317230E-3
285.322952E-3
285.153008E-3
285.268021E-3
285.156441E-3
285.104370E-3
285.366440E-3
285.100365E-3
285.389328E-3
285.428238E-3
285.575867E-3
285.777283E-3
285.609627E-3
285.839653E-3
285.635376E-3
285.756683E-3
285.829353E-3
285.643387E-3
285.937500E-3
285.738373E-3
285.907173E-3
285.963249E-3
285.807037E-3
285.934067E-3
285.855675E-3
285.869408E-3
285.971832E-3
285.635376E-3
285.835075E-3
285.675430E-3
285.621643E-3
285.760117E-3
285.435677E-3
285.514641E-3
285.147858E-3
284.790802E-3
284.719276E-3
284.286690E-3
284.258652E-3
284.005165E-3
284.104729E-3
283.995438E-3
283.799744E-3
283.983994E-3
284.028053E-3
284.062958E-3
284.342194E-3
284.035492E-3
284.238625E-3
284.157944E-3
283.975410E-3
284.484673E-3
284.263802E-3
284.476662E-3
284.364510E-3
284.448624E-3
284.454346E-3
284.252357E-3
284.369087E-3
284.264946E-3
284.412575E-3
284.523582E-3
284.337044E-3
284.611702E-3
284.510422E-3
284.454918E-3
284.732437E-3
284.562492E-3
284.881210E-3
284.827995E-3
284.719276E-3
285.186768E-3
284.969902E-3
285.128403E-3
284.971619E-3
285.250854E-3
285.371590E-3
285.274315E-3
285.552979E-3
285.489464E-3
285.426521E-3
285.638237E-3
285.506630E-3
285.624504E-3
285.635948E-3
285.594749E-3
285.890579E-3
285.692024E-3
285.766983E-3
285.776711E-3
285.602188E-3
285.938644E-3
285.673141E-3
285.713768E-3
285.454559E-3
285.491180E-3
285.695457E-3
285.406494E-3
285.487747E-3
285.186195E-3
285.097504E-3
284.967041E-3
284.407425E-3
284.219742E-3
284.066391E-3
283.729362E-3
283.926201E-3
283.679008E-3
283.800316E-3
283.689308E-3
283.489609E-3
283.882713E-3
283.711624E-3
284.016609E-3
283.886719E-3
283.863258E-3
283.981133E-3
283.963394E-3
284.247780E-3
284.078407E-3
284.156227E-3
284.159088E-3
284.049797E-3
284.227180E-3
284.146500E-3
283.826637E-3
284.302139E-3
284.083557E-3
284.398842E-3
284.508705E-3
284.240913E-3
284.620285E-3
284.352493E-3
284.496117E-3
284.404564E-3
284.664917E-3
284.741592E-3
284.678078E-3
284.948730E-3
284.694672E-3
284.690094E-3
284.906960E-3
284.720993E-3
284.853745E-3
285.040283E-3
284.866333E-3
285.022545E-3
284.985352E-3
285.201645E-3
285.245132E-3
285.116386E-3
285.418510E-3
285.220528E-3
285.568428E-3
285.514641E-3
285.400772E-3
285.570145E-3
285.322380E-3
285.613632E-3
285.282326E-3
285.177040E-3
285.463142E-3
285.142708E-3
285.214233E-3
285.253143E-3
285.161591E-3
284.837151E-3
284.354210E-3
284.133339E-3
283.982849E-3
283.569145E-3
283.509064E-3
283.090782E-3
283.277321E-3
283.077049E-3
282.980919E-3
283.333969E-3
283.158302E-3
283.411789E-3
283.422089E-3
283.272743E-3
283.410645E-3
283.017540E-3
283.194923E-3
283.408356E-3
283.246422E-3
283.464432E-3
283.320236E-3
283.400917E-3
283.312225E-3
283.126831E-3
283.290482E-3
283.091927E-3
283.450127E-3
283.304214E-3
283.047295E-3
283.403778E-3
283.247566E-3
283.580017E-3
283.612633E-3
283.599472E-3
283.864403E-3
283.660698E-3
284.002876E-3
283.914757E-3
283.627510E-3
283.894157E-3
283.814049E-3
283.985138E-3
283.983421E-3
283.846664E-3
284.202003E-3
284.064674E-3
284.323311E-3
284.376526E-3
284.326172E-3
284.575653E-3
284.361076E-3
284.609413E-3
284.563637E-3
284.520721E-3
284.723854E-3
284.391975E-3
284.588242E-3
284.748459E-3
284.667778E-3
284.871483E-3
284.702110E-3
284.622002E-3
284.623718E-3
284.339905E-3
284.435463E-3
284.059525E-3
284.192276E-3
283.624077E-3
283.149147E-3
283.018112E-3
282.602692E-3
282.746315E-3
282.417870E-3
282.337189E-3
282.423019E-3
282.206154E-3
282.358360E-3
282.420731E-3
282.374954E-3
282.616997E-3
282.524300E-3
282.510567E-3
282.653046E-3
282.427597E-3
282.730293E-3
282.679367E-3
282.845306E-3
282.665062E-3
282.501984E-3
282.689095E-3
282.502556E-3
282.605553E-3
282.500839E-3
282.479668E-3
282.818985E-3
282.711411E-3
282.897377E-3
283.037567E-3
282.900238E-3
283.207512E-3
283.006668E-3
283.297348E-3
283.363724E-3
283.143997E-3
283.463860E-3
283.339119E-3
283.620071E-3
283.492470E-3
283.504486E-3
283.751106E-3
283.556557E-3
283.835220E-3
283.679008E-3
283.850670E-3
284.082413E-3
283.760834E-3
283.879280E-3
284.025764E-3
283.705902E-3
284.030342E-3
283.880997E-3
283.989143E-3
284.118462E-3
283.720779E-3
283.974838E-3
283.723640E-3
283.834648E-3
283.693314E-3
283.645821E-3
283.903885E-3
283.790588E-3
283.741379E-3
283.609200E-3
283.431244E-3
283.462715E-3
282.945442E-3
282.516861E-3
282.227325E-3
281.946373E-3
282.001305E-3
281.635666E-3
281.603622E-3
281.537819E-3
281.290627E-3
281.597900E-3
281.462288E-3
281.651688E-3
281.875420E-3
281.885719E-3
282.154083E-3
281.926918E-3
281.879997E-3
282.005882E-3
282.119179E-3
282.309151E-3
282.275963E-3
282.329750E-3
282.304001E-3
282.142639E-3
282.289696E-3
282.057381E-3
282.182121E-3
282.289124E-3
282.114601E-3
282.618713E-3
282.263374E-3
282.580948E-3
282.526588E-3
282.403564E-3
282.904243E-3
282.714272E-3
282.790947E-3
282.863045E-3
282.753754E-3
283.138847E-3
283.067894E-3
283.030128E-3
283.220673E-3
283.251572E-3
283.533096E-3
283.228111E-3
283.454704E-3
283.436966E-3
283.303642E-3
283.664703E-3
283.276749E-3
283.558273E-3
283.669281E-3
283.517075E-3
283.976555E-3
283.728218E-3
283.716774E-3
283.637810E-3
283.620071E-3
283.741951E-3
283.486176E-3
283.690453E-3
283.596039E-3
283.409500E-3
283.880424E-3
283.558273E-3
283.566284E-3
283.702469E-3
283.372879E-3
283.421516E-3
282.726860E-3
282.456779E-3
282.272530E-3
281.941223E-3
282.174110E-3
281.889725E-3
282.101440E-3
282.024193E-3
282.100296E-3
282.282257E-3
282.152367E-3
282.402992E-3
282.548904E-3
282.251358E-3
282.338905E-3
282.186699E-3
282.294846E-3
282.501411E-3
282.373238E-3
282.774353E-3
282.542038E-3
282.437897E-3
282.506561E-3
282.384682E-3
282.546043E-3
282.314301E-3
282.548332E-3
282.547760E-3
282.541466E-3
282.956886E-3
282.789230E-3
282.748032E-3
283.058167E-3
282.879639E-3
283.292770E-3
283.104515E-3
282.962608E-3
283.230400E-3
283.073616E-3
283.328819E-3
283.214378E-3
283.381462E-3
283.362579E-3
283.232689E-3
283.498764E-3
283.258438E-3
283.576584E-3
283.596039E-3
283.620071E-3
283.910751E-3
283.768845E-3
283.792305E-3
283.912468E-3
283.656120E-3
283.701897E-3
283.581161E-3
283.481598E-3
283.843231E-3
283.544540E-3
283.566284E-3
283.388901E-3
283.422661E-3
283.602905E-3
283.327675E-3
283.713341E-3
283.588028E-3
283.863831E-3
284.017754E-3
283.629799E-3
283.311081E-3
282.685661E-3
282.349777E-3
282.281113E-3
281.841660E-3
282.064819E-3
281.825638E-3
281.982422E-3
282.340050E-3
281.995583E-3
282.107162E-3
281.917763E-3
281.923485E-3
282.284546E-3
281.923485E-3
282.061386E-3
282.131767E-3
282.003593E-3
282.362366E-3
282.124329E-3
282.192993E-3
282.199287E-3
282.226181E-3
282.470512E-3
282.230759E-3
282.507133E-3
282.289124E-3
282.301140E-3
282.608414E-3
282.421303E-3
282.737732E-3
282.557487E-3
282.778931E-3
283.061600E-3
282.853317E-3
283.004379E-3
282.963181E-3
282.990074E-3
283.157158E-3
283.038139E-3
283.066750E-3
283.082771E-3
283.240128E-3
283.390617E-3
283.216095E-3
283.424950E-3
283.381462E-3
283.504486E-3
283.707619E-3
283.529091E-3
283.804893E-3
283.624077E-3
283.737946E-3
283.906746E-3
283.636093E-3
283.779144E-3
283.716202E-3
283.773994E-3
283.905029E-3
283.769417E-3
283.863831E-3
283.876419E-3
283.762550E-3
284.164238E-3
283.974838E-3
284.286118E-3
284.206581E-3
284.343338E-3
284.309006E-3
283.931351E-3
283.957672E-3
283.498192E-3
283.281326E-3
283.140564E-3
282.746887E-3
282.652473E-3
282.564926E-3
282.063675E-3
282.239914E-3
282.052803E-3
282.213020E-3
282.400131E-3
282.334900E-3
282.884216E-3
282.511139E-3
282.681656E-3
282.353210E-3
282.155800E-3
282.500267E-3
282.475090E-3
283.118820E-3
283.028984E-3
283.335114E-3
283.290482E-3
282.768631E-3
282.730293E-3
282.497406E-3
282.271957E-3
282.794380E-3
282.859039E-3
283.333397E-3
283.692741E-3
283.626938E-3
283.981133E-3
283.516502E-3
283.838081E-3
283.612633E-3
283.679008E-3
283.951950E-3
283.792877E-3
284.120178E-3
284.155655E-3
284.052086E-3
284.096718E-3
283.950806E-3
284.263229E-3
284.294128E-3
284.400558E-3
284.511566E-3
284.367371E-3
284.654045E-3
284.613991E-3
284.420013E-3
284.658051E-3
284.395409E-3
284.859467E-3
284.635735E-3
284.673500E-3
284.852028E-3
284.709549E-3
284.825706E-3
284.827995E-3
284.670639E-3
284.838295E-3
284.688377E-3
284.878922E-3
284.908104E-3
284.722710E-3
285.077477E-3
284.968185E-3
285.406494E-3
285.041428E-3
284.792519E-3
284.840584E-3
284.339333E-3
284.346199E-3
283.889580E-3
283.608055E-3
283.513069E-3
283.081055E-3
283.008385E-3
282.991791E-3
282.806396E-3
283.208656E-3
283.011818E-3
283.146286E-3
283.183479E-3
283.142281E-3
283.285904E-3
283.146286E-3
283.430099E-3
283.220673E-3
283.172607E-3
283.451271E-3
283.268738E-3
283.452415E-3
283.314514E-3
283.153152E-3
283.206940E-3
282.988358E-3
283.039856E-3
283.208084E-3
282.986069E-3
283.339119E-3
283.244133E-3
283.413506E-3
283.378601E-3
283.380890E-3
283.600044E-3
283.460999E-3
283.575439E-3
283.480453E-3
283.439827E-3
283.729362E-3
283.475876E-3
283.932495E-3
283.753967E-3
283.749390E-3
284.040642E-3
283.869553E-3
284.008598E-3
284.014320E-3
283.946228E-3
284.182549E-3
283.999443E-3
284.028625E-3
283.994293E-3
283.964539E-3
284.215736E-3
284.071541E-3
284.101868E-3
284.075546E-3
283.945084E-3
284.113884E-3
283.911324E-3
284.017181E-3
283.996010E-3
283.890152E-3
283.986282E-3
283.935356E-3
284.008598E-3
284.167099E-3
284.088707E-3
284.471512E-3
284.223175E-3
284.173393E-3
284.154510E-3
283.592606E-3
283.443260E-3
282.960320E-3
282.884789E-3
282.786369E-3
282.443619E-3
282.682228E-3
282.470512E-3
282.670212E-3
282.612991E-3
282.988358E-3
283.249283E-3
283.034134E-3
283.154297E-3
283.309937E-3
283.131981E-3
283.454704E-3
283.137703E-3
283.389473E-3
283.412361E-3
283.220673E-3
283.670998E-3
283.496475E-3
283.584595E-3
283.545685E-3
283.454704E-3
283.731079E-3
283.551407E-3
283.905029E-3
283.886147E-3
284.058380E-3
284.384537E-3
284.038925E-3
284.238625E-3
284.444046E-3
284.295273E-3
284.692383E-3
284.346771E-3
284.596252E-3
284.922981E-3
284.761047E-3
285.188484E-3
284.822845E-3
285.098076E-3
285.220528E-3
285.030556E-3
285.605621E-3
285.294914E-3
285.361862E-3
285.633087E-3
285.571861E-3
285.853386E-3
285.813904E-3
285.773277E-3
285.930061E-3
285.926628E-3
286.172676E-3
285.757828E-3
285.927773E-3
286.002731E-3
285.844231E-3
286.037636E-3
285.742378E-3
285.783577E-3
286.059952E-3
285.826492E-3
286.144066E-3
285.942650E-3
285.980415E-3
285.868263E-3
285.828781E-3
285.793304E-3
285.407639E-3
285.062599E-3
285.000801E-3
284.499550E-3
284.707260E-3
284.333611E-3
284.179687E-3
284.136200E-3
283.973122E-3
284.256363E-3
284.141350E-3
284.144211E-3
284.287262E-3
284.173965E-3
284.462929E-3
284.223747E-3
284.290123E-3
284.369087E-3
284.220886E-3
284.514999E-3
284.368515E-3
284.534454E-3
284.579086E-3
284.438896E-3
284.533310E-3
284.415436E-3
284.482956E-3
284.778786E-3
284.575081E-3
285.036278E-3
284.952164E-3
284.984207E-3
285.055733E-3
285.076332E-3
285.307503E-3
285.226822E-3
285.283470E-3
285.510063E-3
285.356140E-3
285.615921E-3
285.534096E-3
285.544968E-3
285.803604E-3
285.688019E-3
285.915184E-3
285.856247E-3
286.162949E-3
286.328316E-3
286.121178E-3
286.420441E-3
286.080551E-3
286.248207E-3
286.473083E-3
286.208153E-3
286.465645E-3
286.393547E-3
286.296844E-3
286.534882E-3
286.319733E-3
286.487389E-3
286.546326E-3
286.331749E-3
286.529732E-3
286.297989E-3
286.493683E-3
286.429596E-3
286.483383E-3
286.701965E-3
286.292267E-3
286.425018E-3
285.994148E-3
285.712624E-3
285.563850E-3
285.070038E-3
285.096359E-3
284.836006E-3
284.573364E-3
284.583664E-3
284.334755E-3
284.535599E-3
284.609985E-3
284.737015E-3
284.827995E-3
284.698105E-3
284.830856E-3
284.665489E-3
284.785080E-3
284.924698E-3
284.707260E-3
284.928131E-3
284.775925E-3
284.821129E-3
284.972191E-3
284.643745E-3
284.939003E-3
284.692955E-3
284.711266E-3
284.989357E-3
284.845161E-3
285.055161E-3
285.226250E-3
285.112953E-3
285.461426E-3
285.250282E-3
285.459137E-3
285.365868E-3
285.470581E-3
285.829353E-3
285.615349E-3
285.718346E-3
285.693741E-3
285.840797E-3
285.910034E-3
285.799026E-3
286.015320E-3
285.985565E-3
