Notes :


2023-10-30 ¿ÀÈÄ 11:29:16
Volts
Ch : LED 2,
66.977692E-3
66.295052E-3
66.913605E-3
66.440392E-3
66.638374E-3
67.098427E-3
66.664124E-3
67.631721E-3
67.179108E-3
67.666054E-3
68.034554E-3
67.409706E-3
67.916107E-3
67.077827E-3
66.735649E-3
66.482162E-3
64.810753E-3
64.621353E-3
63.325882E-3
62.961960E-3
62.905312E-3
62.009811E-3
62.490463E-3
61.973190E-3
62.393761E-3
62.907600E-3
62.464714E-3
63.338470E-3
63.158226E-3
63.651466E-3
64.453125E-3
64.014244E-3
65.041351E-3
64.850235E-3
65.455055E-3
66.350555E-3
66.002655E-3
67.021751E-3
66.646385E-3
66.893578E-3
67.396545E-3
66.690445E-3
67.360497E-3
66.801453E-3
66.909599E-3
67.254639E-3
66.679001E-3
67.586517E-3
67.224312E-3
67.446899E-3
68.221092E-3
67.704391E-3
68.512917E-3
68.072891E-3
68.357849E-3
68.963814E-3
68.522072E-3
69.604683E-3
69.459915E-3
69.890785E-3
70.683861E-3
70.172310E-3
71.070099E-3
70.666122E-3
70.810890E-3
71.198273E-3
70.406914E-3
71.200562E-3
70.848083E-3
70.882416E-3
71.491241E-3
70.984840E-3
71.888924E-3
71.559906E-3
71.627998E-3
72.036552E-3
71.426010E-3
72.251701E-3
71.758461E-3
71.566200E-3
71.562195E-3
70.191193E-3
70.252419E-3
68.940926E-3
68.056297E-3
67.603111E-3
66.105652E-3
66.558266E-3
65.875626E-3
65.878487E-3
66.563416E-3
66.003227E-3
67.201996E-3
67.133904E-3
67.467499E-3
68.344688E-3
67.927551E-3
69.087982E-3
69.076538E-3
69.482231E-3
70.295906E-3
69.870186E-3
71.139908E-3
71.042061E-3
71.337318E-3
71.896362E-3
71.203995E-3
72.039413E-3
71.553612E-3
71.310997E-3
71.516991E-3
70.610046E-3
71.396255E-3
70.859528E-3
70.756531E-3
71.282387E-3
70.694160E-3
71.732712E-3
71.471214E-3
71.632576E-3
72.315788E-3
71.776772E-3
72.776985E-3
72.573280E-3
72.680283E-3
73.344612E-3
72.753525E-3
73.638725E-3
73.179245E-3
73.035049E-3
73.566055E-3
72.834206E-3
73.742867E-3
73.296547E-3
73.225021E-3
73.937988E-3
73.199272E-3
74.039268E-3
73.754883E-3
73.737144E-3
74.386024E-3
73.666191E-3
74.560547E-3
74.293900E-3
74.344254E-3
74.942780E-3
74.110222E-3
74.654961E-3
73.879623E-3
73.139763E-3
72.962952E-3
71.260071E-3
71.233177E-3
70.170593E-3
69.398117E-3
69.537735E-3
68.607903E-3
69.159508E-3
68.849945E-3
68.772125E-3
69.692802E-3
69.243050E-3
70.253563E-3
70.224953E-3
70.337105E-3
71.250343E-3
70.844078E-3
72.087479E-3
72.250557E-3
72.528076E-3
73.622131E-3
73.188972E-3
74.184036E-3
73.921394E-3
73.616982E-3
74.072456E-3
73.281670E-3
73.928261E-3
73.369217E-3
73.015594E-3
73.525429E-3
72.889709E-3
73.719406E-3
73.526573E-3
73.350906E-3
74.154282E-3
73.748016E-3
74.693871E-3
74.490738E-3
74.621201E-3
75.648308E-3
75.302124E-3
76.270866E-3
76.114655E-3
75.953293E-3
76.571846E-3
75.889778E-3
76.730347E-3
76.363564E-3
76.103210E-3
76.801300E-3
76.258278E-3
76.975822E-3
76.792717E-3
76.453972E-3
77.350616E-3
76.961517E-3
77.851868E-3
77.822685E-3
77.713966E-3
78.405190E-3
77.663040E-3
78.266716E-3
77.951431E-3
77.555466E-3
77.917671E-3
76.840782E-3
76.735497E-3
75.576782E-3
74.273872E-3
74.034119E-3
72.576714E-3
72.581291E-3
72.105789E-3
71.522141E-3
72.251129E-3
71.756172E-3
72.679138E-3
72.943497E-3
73.103142E-3
74.118233E-3
73.678207E-3
74.519920E-3
74.562836E-3
74.334526E-3
75.311279E-3
74.989128E-3
75.846863E-3
75.898933E-3
75.645447E-3
76.384163E-3
75.738716E-3
76.328659E-3
76.060295E-3
75.678635E-3
76.222229E-3
75.389099E-3
75.745010E-3
75.475502E-3
74.972534E-3
75.732994E-3
75.122452E-3
75.868034E-3
75.805092E-3
75.470924E-3
76.348686E-3
75.860023E-3
76.576424E-3
76.726913E-3
76.591301E-3
77.433014E-3
76.926041E-3
77.680779E-3
77.740860E-3
77.471352E-3
78.323936E-3
77.512550E-3
78.055573E-3
77.859879E-3
77.502251E-3
78.063011E-3
77.260208E-3
77.727127E-3
77.633286E-3
77.153206E-3
78.184891E-3
77.521133E-3
78.155708E-3
78.155136E-3
77.893639E-3
78.705597E-3
78.036118E-3
78.544807E-3
78.090477E-3
77.087402E-3
76.913452E-3
75.107002E-3
74.447823E-3
73.472786E-3
72.298050E-3
72.428513E-3
71.211433E-3
71.627426E-3
71.548462E-3
71.209145E-3
72.125816E-3
71.574783E-3
72.418213E-3
72.779274E-3
72.645378E-3
73.709106E-3
73.161507E-3
74.054146E-3
74.466133E-3
74.713898E-3
75.939560E-3
75.522995E-3
76.364708E-3
76.731491E-3
76.265717E-3
77.140045E-3
76.161575E-3
76.511192E-3
76.282310E-3
75.831985E-3
76.538658E-3
75.387955E-3
75.690079E-3
75.716400E-3
75.173378E-3
76.141548E-3
75.438881E-3
76.055145E-3
76.226807E-3
76.009941E-3
77.084541E-3
76.411629E-3
77.070808E-3
77.493668E-3
77.281380E-3
78.269577E-3
77.525139E-3
77.992630E-3
78.101921E-3
77.572060E-3
78.209496E-3
77.247047E-3
77.475357E-3
77.514839E-3
77.025604E-3
77.839279E-3
77.110291E-3
77.581787E-3
78.029251E-3
77.708244E-3
78.721619E-3
78.112221E-3
78.608322E-3
78.647232E-3
78.035545E-3
78.750229E-3
77.747154E-3
77.758598E-3
77.249336E-3
75.802803E-3
75.521278E-3
73.674202E-3
73.069954E-3
72.209930E-3
70.918465E-3
71.149063E-3
70.000076E-3
70.227242E-3
70.466423E-3
70.111656E-3
71.289825E-3
70.601463E-3
71.123314E-3
71.574783E-3
71.301270E-3
72.330666E-3
71.819687E-3
72.591019E-3
73.259354E-3
73.059654E-3
74.169731E-3
73.795509E-3
74.411201E-3
74.676704E-3
74.013519E-3
74.704170E-3
73.904800E-3
74.101639E-3
74.054718E-3
73.246193E-3
73.909950E-3
73.037338E-3
73.297691E-3
73.689079E-3
73.168945E-3
74.226379E-3
73.668480E-3
74.212074E-3
74.709892E-3
74.400330E-3
75.394249E-3
74.858665E-3
75.537872E-3
76.172447E-3
75.646019E-3
76.403046E-3
75.646019E-3
75.915527E-3
76.202774E-3
75.490379E-3
76.115799E-3
75.489807E-3
75.776482E-3
76.135826E-3
75.529861E-3
76.305771E-3
75.698090E-3
76.233673E-3
76.599312E-3
76.172447E-3
76.987267E-3
76.488876E-3
76.930618E-3
77.197838E-3
76.502037E-3
77.186394E-3
76.291466E-3
76.333809E-3
76.100922E-3
74.662399E-3
74.306488E-3
72.683144E-3
72.085762E-3
71.649170E-3
70.478439E-3
70.819473E-3
70.112228E-3
70.334816E-3
70.824623E-3
70.297050E-3
71.242332E-3
70.951080E-3
71.458054E-3
71.971321E-3
71.522713E-3
72.472000E-3
72.094345E-3
72.829628E-3
73.686790E-3
73.551178E-3
74.618912E-3
74.360275E-3
74.774551E-3
75.208282E-3
74.451828E-3
75.090981E-3
74.478722E-3
74.501038E-3
74.622917E-3
73.756027E-3
74.306488E-3
73.629570E-3
73.873329E-3
74.322510E-3
73.797226E-3
74.673843E-3
74.310493E-3
74.640083E-3
75.261497E-3
74.896431E-3
75.932693E-3
75.523567E-3
75.946426E-3
76.507759E-3
75.971031E-3
76.588440E-3
76.003075E-3
76.079178E-3
76.371574E-3
75.732994E-3
76.272583E-3
75.778770E-3
75.944138E-3
76.185608E-3
75.617409E-3
76.340103E-3
75.704384E-3
75.863457E-3
76.312637E-3
75.737000E-3
76.564407E-3
76.140404E-3
76.255989E-3
76.653671E-3
75.971031E-3
76.813316E-3
76.369286E-3
76.196480E-3
76.149559E-3
74.630928E-3
74.432373E-3
72.873116E-3
72.041702E-3
71.613121E-3
70.345688E-3
70.668411E-3
69.855881E-3
69.870758E-3
70.422363E-3
69.827843E-3
70.834351E-3
70.561981E-3
71.087265E-3
71.902657E-3
71.409988E-3
72.419930E-3
72.262001E-3
72.655678E-3
73.552322E-3
73.257065E-3
74.351120E-3
74.273872E-3
74.329376E-3
74.821472E-3
74.030685E-3
74.759674E-3
74.203491E-3
73.985481E-3
74.182320E-3
73.339462E-3
74.039268E-3
73.626137E-3
73.654747E-3
74.212074E-3
73.568344E-3
74.581718E-3
74.335098E-3
74.455833E-3
74.973679E-3
74.372864E-3
75.510406E-3
75.354195E-3
75.427437E-3
76.083183E-3
75.419426E-3
76.434517E-3
76.029968E-3
75.908661E-3
76.292610E-3
75.375938E-3
76.288033E-3
75.845146E-3
75.731277E-3
76.329803E-3
75.571060E-3
76.514626E-3
76.192474E-3
76.290321E-3
76.908302E-3
76.213074E-3
77.114296E-3
76.768684E-3
76.772118E-3
77.347755E-3
76.506042E-3
77.390099E-3
77.078819E-3
76.975250E-3
77.212715E-3
75.923538E-3
76.067162E-3
74.968529E-3
73.995209E-3
73.554039E-3
71.966743E-3
72.336960E-3
71.559906E-3
71.158218E-3
71.676636E-3
71.244621E-3
72.249413E-3
72.184181E-3
72.392464E-3
73.288536E-3
72.902298E-3
73.901939E-3
73.893929E-3
73.974609E-3
75.065231E-3
74.710464E-3
75.723839E-3
75.604820E-3
75.431442E-3
76.091194E-3
75.295830E-3
75.973320E-3
75.524139E-3
75.036621E-3
75.465775E-3
74.623489E-3
75.358200E-3
74.904442E-3
74.760246E-3
75.544739E-3
74.949074E-3
75.872040E-3
75.672340E-3
75.650597E-3
76.577568E-3
75.932693E-3
76.869392E-3
76.691437E-3
76.682854E-3
77.471352E-3
76.785851E-3
77.666473E-3
77.432442E-3
77.384377E-3
78.087616E-3
77.336311E-3
78.009224E-3
77.643585E-3
77.399826E-3
78.010368E-3
77.313423E-3
78.125954E-3
77.871323E-3
77.693939E-3
78.489876E-3
78.037262E-3
78.848648E-3
78.519630E-3
78.334808E-3
79.038048E-3
78.307343E-3
79.119873E-3
78.738213E-3
78.183746E-3
78.424072E-3
76.931763E-3
76.743507E-3
75.517273E-3
74.376297E-3
74.194336E-3
72.793007E-3
73.049927E-3
72.521782E-3
72.089195E-3
72.762108E-3
72.357559E-3
73.322868E-3
73.257637E-3
73.297119E-3
74.328804E-3
73.801804E-3
74.661827E-3
74.679565E-3
74.761391E-3
75.789070E-3
75.263214E-3
76.125526E-3
76.003647E-3
75.721550E-3
76.481438E-3
75.744438E-3
76.235390E-3
75.773621E-3
75.183105E-3
75.739861E-3
74.995995E-3
75.616837E-3
75.462341E-3
75.167656E-3
76.049423E-3
75.593948E-3
76.365852E-3
76.385880E-3
76.270866E-3
77.250481E-3
76.763535E-3
77.478218E-3
77.393532E-3
77.032471E-3
77.926254E-3
77.263069E-3
77.989197E-3
77.744293E-3
77.440453E-3
78.183746E-3
77.459335E-3
78.032112E-3
77.896500E-3
77.578926E-3
78.327942E-3
77.628708E-3
78.289604E-3
78.149414E-3
77.869606E-3
78.775978E-3
78.172302E-3
78.752518E-3
78.676414E-3
78.295898E-3
79.000854E-3
78.298759E-3
78.804588E-3
78.603745E-3
77.681351E-3
77.764893E-3
76.278305E-3
75.862885E-3
74.938774E-3
73.705673E-3
73.825836E-3
72.629356E-3
72.953224E-3
72.766685E-3
72.329521E-3
73.242187E-3
72.704887E-3
73.486519E-3
73.827553E-3
73.665619E-3
74.751663E-3
74.136543E-3
74.842072E-3
75.256920E-3
75.178528E-3
76.452255E-3
75.984192E-3
76.734924E-3
76.915169E-3
76.451683E-3
77.140617E-3
76.161575E-3
76.456833E-3
76.330948E-3
75.667763E-3
76.476860E-3
75.582504E-3
75.916100E-3
76.017380E-3
75.829124E-3
76.879692E-3
76.079178E-3
76.673126E-3
76.920319E-3
76.605034E-3
77.435303E-3
76.744080E-3
77.263069E-3
77.560616E-3
77.155495E-3
78.025246E-3
77.252769E-3
77.786636E-3
77.820969E-3
77.453041E-3
78.071022E-3
77.300262E-3
77.660179E-3
77.692223E-3
77.241898E-3
77.982903E-3
77.201843E-3
77.620697E-3
77.855873E-3
77.374077E-3
78.248978E-3
77.602386E-3
78.182030E-3
78.434944E-3
78.232956E-3
79.260063E-3
78.369141E-3
78.378868E-3
77.882767E-3
76.578712E-3
76.270294E-3
74.444962E-3
73.824120E-3
73.314285E-3
72.236252E-3
72.671700E-3
71.786499E-3
72.101784E-3
72.488594E-3
72.212219E-3
73.263359E-3
72.778130E-3
73.507690E-3
74.038696E-3
73.645592E-3
74.703026E-3
74.207497E-3
75.085831E-3
75.734138E-3
75.403976E-3
76.530647E-3
75.977325E-3
76.405907E-3
76.596451E-3
75.767326E-3
76.296616E-3
75.407982E-3
75.474358E-3
75.628853E-3
74.916458E-3
75.568771E-3
74.979401E-3
75.362778E-3
75.770187E-3
75.377083E-3
76.427078E-3
75.920677E-3
76.424217E-3
77.006721E-3
76.628494E-3
77.573776E-3
76.978683E-3
77.550888E-3
77.905083E-3
77.376366E-3
78.193474E-3
77.620125E-3
78.032684E-3
78.243828E-3
77.569199E-3
78.298187E-3
77.660179E-3
78.001785E-3
78.394318E-3
77.783203E-3
78.515625E-3
78.067589E-3
78.514481E-3
78.966522E-3
78.294754E-3
79.146767E-3
78.560829E-3
78.911018E-3
79.431725E-3
78.719330E-3
79.101562E-3
77.981186E-3
77.490807E-3
76.707458E-3
75.053787E-3
74.775124E-3
73.436165E-3
73.133469E-3
73.100281E-3
72.179604E-3
72.803307E-3
72.404480E-3
72.837639E-3
73.461914E-3
73.181534E-3
74.261284E-3
73.959732E-3
74.317360E-3
74.884415E-3
74.585724E-3
75.679779E-3
75.554466E-3
76.272011E-3
77.015305E-3
76.744652E-3
77.543449E-3
76.970673E-3
77.085114E-3
77.182388E-3
76.316643E-3
76.765823E-3
76.122093E-3
76.251411E-3
76.671410E-3
76.158142E-3
76.824188E-3
76.427078E-3
76.887131E-3
77.477646E-3
77.120018E-3
78.067017E-3
77.702522E-3
78.022957E-3
78.762817E-3
78.219223E-3
78.996849E-3
78.592873E-3
78.602600E-3
78.934479E-3
78.166580E-3
78.807449E-3
78.176308E-3
78.214073E-3
78.703308E-3
78.019524E-3
78.733635E-3
78.350830E-3
78.538513E-3
79.040337E-3
78.567696E-3
79.297256E-3
78.972816E-3
79.223442E-3
79.628563E-3
78.929329E-3
79.699516E-3
79.130745E-3
79.060936E-3
79.157066E-3
77.805519E-3
77.845001E-3
76.603317E-3
75.810242E-3
75.342751E-3
74.048996E-3
74.301910E-3
73.634148E-3
73.624992E-3
74.001503E-3
73.444176E-3
74.630356E-3
74.587440E-3
74.987411E-3
75.598526E-3
75.083542E-3
76.102638E-3
76.075172E-3
76.401901E-3
77.172661E-3
76.733208E-3
78.068161E-3
77.883911E-3
77.988625E-3
78.479576E-3
77.596664E-3
78.411484E-3
77.660179E-3
77.403259E-3
77.648735E-3
76.800728E-3
77.515411E-3
77.055359E-3
77.062225E-3
77.537727E-3
76.960373E-3
77.933121E-3
77.747726E-3
77.794647E-3
78.384018E-3
77.926254E-3
79.011726E-3
78.686142E-3
78.804588E-3
79.585075E-3
78.796005E-3
79.678345E-3
79.251480E-3
79.163361E-3
79.648018E-3
78.814316E-3
79.652596E-3
79.387093E-3
79.285240E-3
79.858017E-3
79.105568E-3
80.027962E-3
79.721832E-3
79.871178E-3
80.463409E-3
79.833984E-3
80.726051E-3
80.318069E-3
80.299187E-3
80.841637E-3
79.854584E-3
80.281448E-3
79.186249E-3
78.160286E-3
77.731133E-3
76.011658E-3
75.783348E-3
74.514198E-3
73.758888E-3
73.919106E-3
73.055077E-3
73.845291E-3
73.556900E-3
73.599243E-3
74.669266E-3
74.261284E-3
75.360489E-3
75.359344E-3
75.334740E-3
76.258850E-3
75.825691E-3
76.746941E-3
76.681137E-3
76.701736E-3
77.453041E-3
76.883698E-3
77.647018E-3
77.154350E-3
76.785851E-3
77.329445E-3
76.527786E-3
77.266502E-3
76.842499E-3
76.565552E-3
77.169800E-3
76.553535E-3
77.252769E-3
77.005577E-3
76.888847E-3
77.638435E-3
77.227020E-3
78.016090E-3
77.977180E-3
77.976036E-3
78.830910E-3
78.228378E-3
79.163361E-3
79.106712E-3
78.959656E-3
79.524994E-3
78.862381E-3
79.606247E-3
