Notes :


2023-10-30 ¿ÀÈÄ 11:17:09
Volts
Ch : LED 2,
132.599258E-3
133.465004E-3
133.605194E-3
133.489037E-3
134.362221E-3
133.952522E-3
134.723282E-3
134.910393E-3
134.982491E-3
135.598755E-3
134.864044E-3
135.609055E-3
135.356140E-3
135.197639E-3
135.606194E-3
134.637451E-3
135.286903E-3
135.328674E-3
134.774208E-3
135.389900E-3
134.829140E-3
135.437393E-3
135.397339E-3
135.198212E-3
135.876274E-3
135.189056E-3
135.999870E-3
135.861397E-3
135.510635E-3
136.008453E-3
135.225677E-3
135.365868E-3
134.597397E-3
133.069038E-3
132.832718E-3
131.058884E-3
130.835152E-3
130.131912E-3
129.291916E-3
129.628944E-3
128.855896E-3
129.347992E-3
129.545403E-3
129.303932E-3
130.219460E-3
129.871559E-3
130.628014E-3
130.869484E-3
130.438042E-3
131.571579E-3
131.191635E-3
132.130051E-3
132.457352E-3
132.231331E-3
133.073616E-3
132.647324E-3
133.016396E-3
132.919121E-3
132.405853E-3
132.975769E-3
132.205009E-3
132.485390E-3
132.641029E-3
131.992722E-3
132.584953E-3
132.171822E-3
132.768059E-3
132.825279E-3
132.750320E-3
133.459854E-3
133.184624E-3
133.675003E-3
133.817482E-3
133.227539E-3
134.046364E-3
133.652115E-3
134.306145E-3
134.348488E-3
133.998299E-3
134.524727E-3
133.901024E-3
134.171104E-3
133.927917E-3
133.448982E-3
134.091568E-3
133.600616E-3
134.012604E-3
134.089851E-3
133.608627E-3
134.555054E-3
134.192848E-3
134.425735E-3
134.524727E-3
134.299850E-3
134.872627E-3
134.514427E-3
134.906960E-3
134.910393E-3
134.215736E-3
134.474945E-3
133.238411E-3
132.785797E-3
132.001305E-3
130.583954E-3
130.364799E-3
129.417801E-3
129.099655E-3
128.994942E-3
128.521156E-3
129.152298E-3
128.759193E-3
129.176903E-3
129.733658E-3
129.317665E-3
130.447769E-3
130.241203E-3
130.768776E-3
131.385612E-3
130.971336E-3
132.215309E-3
131.849098E-3
132.294846E-3
132.626152E-3
132.012177E-3
132.705116E-3
132.028198E-3
132.256508E-3
132.305145E-3
131.632805E-3
132.423592E-3
131.789589E-3
131.780434E-3
132.287979E-3
131.679153E-3
132.768631E-3
132.295418E-3
132.372093E-3
132.824135E-3
132.446480E-3
133.465004E-3
133.002090E-3
133.427238E-3
133.823204E-3
133.616638E-3
134.639740E-3
133.993721E-3
134.189415E-3
134.484673E-3
133.840370E-3
134.569931E-3
134.035492E-3
134.216309E-3
134.523010E-3
133.845520E-3
134.650612E-3
134.054375E-3
134.117317E-3
134.515572E-3
133.989143E-3
134.727287E-3
134.105301E-3
134.134483E-3
134.690666E-3
134.050369E-3
134.920120E-3
134.160233E-3
133.810616E-3
133.514214E-3
131.993866E-3
131.661415E-3
130.116463E-3
129.424095E-3
129.321098E-3
128.038788E-3
128.359222E-3
127.729225E-3
127.695465E-3
128.513718E-3
128.117752E-3
129.065323E-3
128.943443E-3
129.200935E-3
129.980850E-3
129.501343E-3
130.336189E-3
130.081558E-3
130.427742E-3
131.472015E-3
130.828857E-3
131.682014E-3
131.121254E-3
131.291199E-3
131.527519E-3
130.728149E-3
130.945015E-3
130.532455E-3
130.476952E-3
130.969620E-3
130.286407E-3
130.830574E-3
130.454063E-3
130.324745E-3
131.144142E-3
130.757332E-3
131.322670E-3
131.367302E-3
131.473732E-3
132.353210E-3
131.871986E-3
132.450485E-3
132.168388E-3
132.294846E-3
132.905388E-3
132.368088E-3
132.869339E-3
132.428169E-3
132.511139E-3
132.900238E-3
132.090569E-3
132.560921E-3
132.337761E-3
132.102585E-3
132.697678E-3
132.214165E-3
132.678795E-3
132.558060E-3
132.544327E-3
133.099365E-3
132.464790E-3
133.080482E-3
132.966614E-3
132.575226E-3
132.991791E-3
131.748962E-3
131.691742E-3
130.506134E-3
129.556274E-3
129.201508E-3
127.626228E-3
127.583885E-3
127.023697E-3
126.470375E-3
126.907539E-3
126.193428E-3
126.908684E-3
126.927567E-3
126.835442E-3
127.749252E-3
127.323532E-3
128.136063E-3
128.365517E-3
128.262520E-3
129.102516E-3
128.752899E-3
129.765701E-3
129.903030E-3
129.705048E-3
130.480385E-3
129.650688E-3
130.370522E-3
130.041504E-3
129.633522E-3
129.925919E-3
129.021835E-3
129.556847E-3
129.369736E-3
128.966904E-3
129.678154E-3
129.045868E-3
129.769707E-3
129.913902E-3
129.691887E-3
130.385971E-3
130.084991E-3
130.819130E-3
130.831146E-3
130.574226E-3
131.238556E-3
130.840302E-3
131.588745E-3
131.416512E-3
130.735016E-3
131.441116E-3
130.640030E-3
131.093216E-3
131.104660E-3
130.717850E-3
131.235123E-3
130.814552E-3
131.183624E-3
131.098938E-3
130.755615E-3
131.489182E-3
130.958748E-3
131.452560E-3
131.557846E-3
130.907249E-3
131.650543E-3
131.040573E-3
131.361580E-3
130.828285E-3
129.681587E-3
129.487610E-3
127.797318E-3
127.391624E-3
126.463509E-3
125.228691E-3
125.429535E-3
124.313164E-3
124.790955E-3
124.840164E-3
124.219894E-3
125.113678E-3
124.588394E-3
125.465012E-3
125.631523E-3
125.142288E-3
126.078987E-3
125.918198E-3
126.367378E-3
126.825142E-3
126.512718E-3
127.423668E-3
126.975060E-3
127.633667E-3
127.609634E-3
126.793098E-3
127.384758E-3
126.653481E-3
126.783371E-3
126.725006E-3
126.290131E-3
126.806259E-3
126.451492E-3
126.740456E-3
126.791954E-3
126.588249E-3
127.428246E-3
127.129555E-3
127.622223E-3
127.938652E-3
127.574730E-3
128.424454E-3
128.193283E-3
128.352356E-3
128.684807E-3
128.197861E-3
128.926849E-3
128.341484E-3
128.597260E-3
128.506851E-3
128.140640E-3
128.605843E-3
127.931213E-3
128.260231E-3
128.568077E-3
127.960396E-3
128.762054E-3
128.231621E-3
128.528595E-3
128.681374E-3
128.479385E-3
128.998947E-3
128.523445E-3
128.697395E-3
129.008102E-3
128.110886E-3
128.555489E-3
127.281189E-3
126.551056E-3
125.917625E-3
124.238205E-3
124.329185E-3
123.199081E-3
122.991943E-3
122.884369E-3
122.514153E-3
123.139572E-3
122.550201E-3
123.036003E-3
123.560143E-3
123.202515E-3
124.175262E-3
123.668289E-3
124.045372E-3
124.814415E-3
124.522591E-3
125.542831E-3
125.416374E-3
125.934792E-3
126.469231E-3
125.909615E-3
126.589966E-3
125.795746E-3
125.908470E-3
125.985718E-3
125.390053E-3
125.966835E-3
125.122833E-3
125.401497E-3
125.636673E-3
125.006676E-3
125.823212E-3
125.629234E-3
125.786018E-3
126.429176E-3
126.032066E-3
126.914978E-3
126.630592E-3
126.904678E-3
127.511215E-3
126.980782E-3
127.865982E-3
127.484894E-3
127.845383E-3
128.205299E-3
127.484322E-3
128.182983E-3
127.521515E-3
127.791595E-3
128.213310E-3
127.482033E-3
127.941513E-3
127.786446E-3
127.722931E-3
128.338051E-3
127.898026E-3
128.371811E-3
128.068542E-3
128.231621E-3
128.856468E-3
128.047943E-3
128.656197E-3
127.939224E-3
127.587891E-3
127.394485E-3
126.153374E-3
125.995445E-3
124.694824E-3
124.368668E-3
124.677086E-3
123.628235E-3
124.008751E-3
123.515511E-3
123.723221E-3
124.416161E-3
124.156380E-3
124.877357E-3
124.760628E-3
125.087929E-3
125.911903E-3
125.370598E-3
126.181984E-3
126.020050E-3
126.235199E-3
127.007103E-3
126.310158E-3
126.958466E-3
126.658630E-3
126.585388E-3
126.971054E-3
126.291275E-3
126.773643E-3
126.232910E-3
126.161385E-3
126.632881E-3
125.885582E-3
126.507568E-3
126.266098E-3
126.135063E-3
126.829147E-3
126.341629E-3
126.907539E-3
126.963043E-3
126.988792E-3
127.765846E-3
127.277184E-3
128.001595E-3
128.129196E-3
127.964973E-3
128.606987E-3
128.134918E-3
128.845024E-3
128.558922E-3
128.237915E-3
128.861618E-3
128.037643E-3
128.522873E-3
128.497124E-3
128.339195E-3
129.037285E-3
128.469658E-3
129.285049E-3
129.054451E-3
128.738022E-3
129.143715E-3
128.462219E-3
129.390335E-3
129.353142E-3
128.842735E-3
129.405785E-3
128.355789E-3
128.193855E-3
127.375031E-3
126.380539E-3
126.088715E-3
124.751472E-3
124.816132E-3
124.406433E-3
123.973846E-3
124.324608E-3
123.753548E-3
124.476814E-3
124.560356E-3
124.380684E-3
125.220680E-3
124.888229E-3
125.707626E-3
125.928497E-3
125.823212E-3
126.597404E-3
126.149368E-3
126.929283E-3
126.881218E-3
126.513290E-3
127.084923E-3
126.478386E-3
127.044296E-3
126.739883E-3
126.163101E-3
126.658630E-3
125.917625E-3
126.349640E-3
126.350784E-3
125.909615E-3
126.737595E-3
126.198006E-3
126.715279E-3
126.773071E-3
126.541328E-3
127.346420E-3
126.817703E-3
127.641106E-3
127.611351E-3
127.221107E-3
128.142929E-3
127.470589E-3
128.108025E-3
128.214455E-3
127.583313E-3
128.220749E-3
127.599907E-3
128.089714E-3
128.210449E-3
127.583313E-3
128.188705E-3
127.605057E-3
128.053093E-3
128.181839E-3
127.504349E-3
128.289413E-3
127.881432E-3
128.203011E-3
128.293991E-3
127.751541E-3
128.649902E-3
128.167534E-3
128.310013E-3
127.739525E-3
126.605988E-3
126.464081E-3
125.034714E-3
124.665642E-3
124.021912E-3
123.213387E-3
123.530388E-3
122.854614E-3
123.037148E-3
123.293495E-3
123.014259E-3
123.864555E-3
123.657990E-3
124.020767E-3
124.405861E-3
124.065971E-3
124.934006E-3
124.818420E-3
125.484467E-3
125.754547E-3
125.633812E-3
126.512146E-3
126.048088E-3
126.193428E-3
126.314735E-3
125.732803E-3
126.210022E-3
125.590897E-3
125.758553E-3
125.717354E-3
125.194359E-3
125.847816E-3
125.337982E-3
125.723648E-3
126.089287E-3
125.657845E-3
126.634598E-3
126.208878E-3
126.512146E-3
127.185631E-3
126.733017E-3
127.570724E-3
127.052307E-3
127.442551E-3
127.738380E-3
127.509499E-3
128.221893E-3
127.373314E-3
127.482605E-3
127.787018E-3
127.157021E-3
127.996445E-3
127.407646E-3
127.285767E-3
127.493477E-3
127.065468E-3
127.788734E-3
127.173615E-3
127.420235E-3
127.899742E-3
127.315521E-3
128.022766E-3
127.364159E-3
127.623367E-3
128.053093E-3
127.064896E-3
127.488327E-3
126.108170E-3
125.450134E-3
124.761772E-3
123.427963E-3
123.588753E-3
122.541046E-3
122.404289E-3
122.646332E-3
122.030640E-3
122.785378E-3
122.545052E-3
122.817421E-3
123.314667E-3
122.816849E-3
123.680878E-3
123.466873E-3
123.893738E-3
124.600983E-3
124.257088E-3
125.358582E-3
125.084496E-3
125.499344E-3
126.266098E-3
125.743675E-3
126.313019E-3
125.619507E-3
125.429535E-3
125.753975E-3
124.971771E-3
125.391197E-3
124.930573E-3
125.173187E-3
125.494766E-3
124.937439E-3
125.784874E-3
125.490761E-3
125.655556E-3
126.490974E-3
125.982857E-3
126.653481E-3
126.683807E-3
126.647186E-3
127.348709E-3
126.894379E-3
127.401352E-3
127.234840E-3
127.280617E-3
127.993011E-3
127.158737E-3
127.752686E-3
127.275467E-3
127.357864E-3
127.744102E-3
127.097511E-3
127.610207E-3
127.444839E-3
127.457428E-3
127.954102E-3
127.475739E-3
128.228760E-3
128.048515E-3
127.871132E-3
128.425598E-3
127.993584E-3
128.323174E-3
128.016472E-3
127.596474E-3
127.380753E-3
125.951385E-3
125.630951E-3
124.476814E-3
123.669434E-3
123.625374E-3
122.476387E-3
122.725868E-3
122.253799E-3
122.045517E-3
122.772217E-3
122.341919E-3
123.096085E-3
123.153305E-3
122.974777E-3
124.019623E-3
123.392487E-3
123.947525E-3
124.118042E-3
124.391556E-3
125.241280E-3
124.907684E-3
125.744247E-3
125.632095E-3
125.186348E-3
125.775719E-3
124.750328E-3
125.446701E-3
124.949455E-3
124.759483E-3
125.023270E-3
124.325180E-3
125.046158E-3
124.999237E-3
124.826431E-3
125.490189E-3
124.934006E-3
125.859261E-3
126.048088E-3
125.767136E-3
126.692390E-3
126.159096E-3
126.865768E-3
127.193642E-3
127.195930E-3
127.934647E-3
127.409935E-3
127.982712E-3
127.724075E-3
127.115250E-3
127.863693E-3
127.153587E-3
127.775574E-3
127.715492E-3
127.405357E-3
128.108597E-3
127.440834E-3
128.108597E-3
128.109741E-3
127.853966E-3
128.554344E-3
128.118324E-3
128.605843E-3
128.685379E-3
127.871704E-3
128.868484E-3
128.098869E-3
128.383827E-3
128.010178E-3
126.853752E-3
126.904678E-3
125.332832E-3
125.178909E-3
124.475670E-3
123.778152E-3
124.136353E-3
123.207664E-3
123.702049E-3
123.612213E-3
123.160744E-3
124.136353E-3
123.747826E-3
124.407005E-3
124.684525E-3
124.323463E-3
125.423813E-3
125.440979E-3
126.083565E-3
126.533890E-3
126.264381E-3
127.421379E-3
127.245140E-3
127.542686E-3
127.424812E-3
126.836586E-3
127.230263E-3
126.451492E-3
126.626015E-3
126.694679E-3
126.153374E-3
126.829147E-3
126.371384E-3
126.789665E-3
127.041435E-3
126.816559E-3
127.551842E-3
127.123833E-3
127.650261E-3
127.888298E-3
127.385330E-3
128.238487E-3
127.884865E-3
128.178406E-3
128.446770E-3
127.852821E-3
128.621864E-3
128.083992E-3
128.497124E-3
128.485107E-3
127.977562E-3
128.768921E-3
128.140068E-3
128.469086E-3
128.845596E-3
128.350067E-3
129.158592E-3
128.643608E-3
128.806114E-3
129.361725E-3
128.675652E-3
129.551125E-3
129.023552E-3
129.110527E-3
129.331970E-3
128.707123E-3
129.204941E-3
128.184128E-3
127.908897E-3
127.733231E-3
126.583672E-3
126.663208E-3
125.323105E-3
124.990082E-3
124.822998E-3
123.922920E-3
124.339485E-3
123.687744E-3
123.874283E-3
124.271393E-3
124.077415E-3
125.049591E-3
124.690247E-3
124.793243E-3
125.568581E-3
125.030136E-3
126.091003E-3
125.929070E-3
126.192856E-3
126.978493E-3
126.528168E-3
127.193642E-3
126.557922E-3
126.446915E-3
126.815987E-3
126.004028E-3
126.465225E-3
125.653267E-3
125.781441E-3
126.261520E-3
125.579453E-3
126.412010E-3
126.135063E-3
126.164818E-3
126.896095E-3
126.413155E-3
127.256584E-3
126.991081E-3
127.278328E-3
128.010178E-3
127.471733E-3
128.177261E-3
127.726364E-3
127.999306E-3
128.553200E-3
127.797890E-3
128.438759E-3
127.937508E-3
127.930641E-3
128.315735E-3
127.690315E-3
128.195000E-3
127.639389E-3
127.775002E-3
128.320885E-3
127.538109E-3
127.998734E-3
128.051949E-3
127.757835E-3
128.416443E-3
127.583885E-3
127.928925E-3
127.812195E-3
127.650261E-3
128.003883E-3
127.069473E-3
127.073479E-3
126.206017E-3
125.618935E-3
125.388908E-3
124.060249E-3
123.944664E-3
123.228836E-3
122.919273E-3
123.310661E-3
122.608566E-3
123.246002E-3
123.237419E-3
123.481750E-3
124.231339E-3
123.744965E-3
124.640465E-3
124.532318E-3
124.436188E-3
125.284195E-3
125.029564E-3
125.684166E-3
125.720787E-3
125.463295E-3
125.969696E-3
125.306511E-3
126.047516E-3
125.572586E-3
125.345421E-3
125.786018E-3
124.907684E-3
125.569725E-3
125.305367E-3
124.896812E-3
125.634384E-3
125.141144E-3
126.009178E-3
125.914192E-3
126.000595E-3
126.631165E-3
126.081276E-3
126.896667E-3
127.025986E-3
126.619720E-3
127.312660E-3
126.789665E-3
127.361298E-3
127.302361E-3
126.885796E-3
127.330971E-3
126.606560E-3
127.247429E-3
126.974487E-3
126.775932E-3
127.252007E-3
126.577950E-3
127.217102E-3
127.091789E-3
126.587105E-3
127.268600E-3
126.688957E-3
127.104378E-3
127.285194E-3
126.967621E-3
127.415085E-3
126.865196E-3
127.203941E-3
127.042580E-3
125.954247E-3
125.898743E-3
124.365234E-3
124.103165E-3
123.446846E-3
122.279549E-3
122.707558E-3
121.849823E-3
122.099876E-3
122.198296E-3
121.901894E-3
122.790527E-3
122.349930E-3
122.974777E-3
123.019981E-3
122.718430E-3
123.663712E-3
123.173904E-3
123.696327E-3
124.208450E-3
123.749542E-3
124.677658E-3
124.361229E-3
124.885368E-3
124.888802E-3
124.260521E-3
124.798393E-3
124.293709E-3
124.407578E-3
124.193001E-3
123.608780E-3
124.225616E-3
123.590469E-3
123.934364E-3
123.929787E-3
123.573875E-3
124.457359E-3
124.342918E-3
124.600410E-3
124.950600E-3
124.732590E-3
125.533676E-3
125.316238E-3
125.687599E-3
125.950241E-3
125.392914E-3
126.074982E-3
125.550270E-3
125.702477E-3
