Notes :


2023-11-05 ¿ÀÈÄ 2:52:11
Volts
Ch : LED 2,
351.273537E-3
350.831795E-3
350.403786E-3
350.337410E-3
350.136566E-3
350.279617E-3
350.004959E-3
350.031281E-3
350.326538E-3
350.051308E-3
349.991226E-3
349.478531E-3
349.471664E-3
349.709702E-3
349.432755E-3
349.703407E-3
349.355507E-3
349.212456E-3
349.184418E-3
348.657990E-3
348.744965E-3
348.295784E-3
348.128128E-3
348.173904E-3
347.961617E-3
348.292351E-3
348.255730E-3
348.366737E-3
348.746109E-3
348.664856E-3
348.978424E-3
348.745537E-3
349.039078E-3
349.334908E-3
349.314880E-3
349.931145E-3
350.054741E-3
350.428963E-3
350.785446E-3
350.667000E-3
351.083565E-3
351.048660E-3
351.243210E-3
351.512718E-3
351.472664E-3
351.888084E-3
351.798820E-3
351.818275E-3
352.097511E-3
351.972198E-3
352.223396E-3
352.052307E-3
352.132416E-3
352.413940E-3
352.059174E-3
352.283478E-3
352.210808E-3
352.136993E-3
352.351570E-3
352.089500E-3
352.269173E-3
352.172470E-3
352.118111E-3
352.184486E-3
351.856041E-3
352.054024E-3
351.791382E-3
351.561356E-3
351.486397E-3
350.795746E-3
350.712776E-3
350.185776E-3
349.966621E-3
350.051880E-3
349.712563E-3
349.983215E-3
350.023270E-3
350.087929E-3
350.332832E-3
350.144577E-3
350.377464E-3
350.264740E-3
350.268173E-3
350.494194E-3
350.438118E-3
350.748825E-3
350.727654E-3
350.894165E-3
351.165390E-3
350.923920E-3
351.171684E-3
350.946808E-3
350.859261E-3
351.056671E-3
350.845528E-3
351.086426E-3
351.081276E-3
351.020050E-3
351.327896E-3
351.184845E-3
351.563072E-3
351.555634E-3
351.529312E-3
351.825714E-3
351.593971E-3
351.877785E-3
351.791954E-3
351.795387E-3
351.980209E-3
351.794815E-3
352.064896E-3
351.999092E-3
352.033997E-3
352.408791E-3
352.235985E-3
352.523804E-3
352.546692E-3
352.555847E-3
352.682304E-3
352.503777E-3
352.744102E-3
352.629089E-3
352.547836E-3
352.841377E-3
352.655411E-3
353.144646E-3
353.006172E-3
352.975845E-3
353.132057E-3
352.980423E-3
353.231621E-3
353.133774E-3
353.152657E-3
353.315735E-3
353.132629E-3
353.321457E-3
353.270531E-3
353.036499E-3
353.085136E-3
352.581024E-3
352.498055E-3
352.158165E-3
351.601982E-3
351.669502E-3
351.203728E-3
351.338196E-3
351.278114E-3
351.161385E-3
351.419449E-3
351.255798E-3
351.545906E-3
351.587677E-3
351.518440E-3
351.779366E-3
351.566505E-3
351.764488E-3
351.730728E-3
351.593971E-3
351.924133E-3
351.628304E-3
351.913261E-3
351.844597E-3
351.627731E-3
351.933289E-3
351.643181E-3
351.893234E-3
351.849747E-3
351.711845E-3
352.111816E-3
352.047729E-3
352.333832E-3
352.310944E-3
352.373314E-3
352.630234E-3
352.539253E-3
352.805901E-3
352.804184E-3
352.726936E-3
353.163528E-3
353.009605E-3
353.276253E-3
353.415298E-3
353.354645E-3
353.612709E-3
353.481102E-3
353.671646E-3
353.745461E-3
353.556061E-3
353.911400E-3
353.737450E-3
354.004097E-3
354.117393E-3
353.892517E-3
354.242706E-3
354.176331E-3
354.379463E-3
354.446411E-3
354.219818E-3
354.646683E-3
354.437828E-3
354.585457E-3
354.432106E-3
354.401207E-3
354.654121E-3
354.467010E-3
354.662132E-3
354.598618E-3
354.254723E-3
354.549980E-3
354.200935E-3
354.078484E-3
353.812408E-3
353.224754E-3
353.156662E-3
352.656555E-3
352.583313E-3
352.534676E-3
352.157593E-3
352.610207E-3
352.435112E-3
352.637100E-3
352.646828E-3
352.601051E-3
352.974129E-3
352.811050E-3
352.962685E-3
352.821350E-3
352.766991E-3
353.098297E-3
352.911758E-3
352.996445E-3
353.017616E-3
352.737236E-3
353.017044E-3
352.720642E-3
352.859688E-3
352.899170E-3
352.644539E-3
353.022194E-3
352.894020E-3
353.060532E-3
353.185844E-3
353.114891E-3
353.518867E-3
353.372383E-3
353.575516E-3
353.680801E-3
353.549767E-3
353.972626E-3
353.759766E-3
353.862190E-3
353.843307E-3
353.689957E-3
354.017830E-3
353.832436E-3
353.901672E-3
353.921700E-3
353.811836E-3
354.103661E-3
353.700256E-3
353.833580E-3
353.903961E-3
353.791237E-3
354.203796E-3
353.945160E-3
354.101372E-3
354.304504E-3
354.098511E-3
354.493904E-3
354.144859E-3
354.127121E-3
354.216957E-3
354.061890E-3
354.404068E-3
354.166603E-3
354.155159E-3
354.276466E-3
354.041862E-3
354.355431E-3
353.974342E-3
353.891945E-3
353.697395E-3
353.233910E-3
353.253937E-3
352.628517E-3
352.309799E-3
352.214813E-3
351.844025E-3
352.024841E-3
351.707268E-3
351.717567E-3
351.910973E-3
351.675797E-3
352.027130E-3
351.836586E-3
351.953316E-3
351.907539E-3
351.682663E-3
351.881218E-3
351.551056E-3
351.664352E-3
351.817131E-3
351.596832E-3
351.804543E-3
351.644897E-3
351.560211E-3
351.627731E-3
351.394844E-3
351.595688E-3
351.301003E-3
351.447487E-3
351.648331E-3
351.493835E-3
351.747322E-3
351.635742E-3
351.746750E-3
352.040291E-3
351.731873E-3
352.011108E-3
351.811981E-3
351.961327E-3
352.162170E-3
352.048302E-3
352.336121E-3
352.234840E-3
352.262306E-3
352.509499E-3
352.258301E-3
352.556992E-3
352.499771E-3
352.508926E-3
352.781296E-3
352.527809E-3
352.690315E-3
352.709770E-3
352.693748E-3
352.984428E-3
352.713203E-3
352.963257E-3
352.911758E-3
352.971268E-3
353.129768E-3
352.758408E-3
353.065109E-3
352.876854E-3
352.988434E-3
353.142929E-3
352.839088E-3
352.987862E-3
352.796173E-3
352.733231E-3
352.760696E-3
352.356720E-3
352.234268E-3
351.908112E-3
351.630592E-3
351.538467E-3
351.171112E-3
351.391411E-3
351.129913E-3
351.081276E-3
351.211166E-3
350.988007E-3
351.250076E-3
351.073265E-3
351.086426E-3
351.293564E-3
351.022339E-3
351.204300E-3
351.100159E-3
351.032639E-3
351.270103E-3
351.040077E-3
351.283264E-3
351.164246E-3
351.143074E-3
351.350784E-3
351.081848E-3
351.247787E-3
351.243210E-3
351.267815E-3
351.542473E-3
351.350784E-3
351.728439E-3
351.698685E-3
351.711845E-3
351.937866E-3
351.850891E-3
352.082634E-3
352.086067E-3
352.112389E-3
352.309799E-3
351.937294E-3
352.251434E-3
352.126694E-3
352.127838E-3
352.321243E-3
352.112389E-3
352.540398E-3
352.464294E-3
352.367592E-3
352.615929E-3
352.367592E-3
352.493477E-3
352.479172E-3
352.298927E-3
352.540398E-3
352.337837E-3
352.628517E-3
352.550125E-3
352.404213E-3
352.607346E-3
352.202225E-3
352.429962E-3
352.363586E-3
352.140427E-3
352.399635E-3
352.219391E-3
352.518082E-3
352.431679E-3
352.209091E-3
352.282333E-3
351.892662E-3
351.853180E-3
351.449203E-3
351.030350E-3
351.025200E-3
350.598907E-3
350.670433E-3
350.620079E-3
350.393486E-3
350.741959E-3
350.556564E-3
350.979996E-3
350.888443E-3
350.903893E-3
351.161957E-3
351.082993E-3
351.155090E-3
351.094437E-3
350.942802E-3
351.272392E-3
351.058960E-3
351.390266E-3
351.311874E-3
351.115036E-3
351.333046E-3
351.169968E-3
351.472092E-3
351.568222E-3
351.596260E-3
351.975060E-3
351.862335E-3
352.181625E-3
352.252007E-3
352.099800E-3
352.397919E-3
352.180481E-3
352.393913E-3
352.511215E-3
352.350998E-3
352.760124E-3
352.744102E-3
352.837372E-3
352.875710E-3
352.631378E-3
353.017616E-3
352.868843E-3
353.102875E-3
352.944946E-3
352.854538E-3
353.100014E-3
353.064537E-3
353.179550E-3
353.186417E-3
353.081703E-3
353.399849E-3
353.257942E-3
353.409576E-3
353.400421E-3
353.181839E-3
353.417587E-3
353.224182E-3
353.439903E-3
353.494263E-3
353.281403E-3
353.589249E-3
353.329468E-3
353.621864E-3
353.605270E-3
353.442192E-3
353.621864E-3
353.295135E-3
353.007889E-3
352.632523E-3
352.229118E-3
352.197647E-3
351.823425E-3
351.630592E-3
351.533890E-3
351.296425E-3
351.548195E-3
351.288986E-3
351.481819E-3
351.564217E-3
351.433182E-3
351.838303E-3
351.522446E-3
351.667786E-3
351.682091E-3
351.484680E-3
351.759911E-3
351.469803E-3
351.473808E-3
351.550484E-3
351.381111E-3
351.736450E-3
351.373672E-3
351.478386E-3
351.612854E-3
351.393700E-3
351.759911E-3
351.533890E-3
351.615715E-3
351.822853E-3
351.699829E-3
352.111816E-3
351.952744E-3
352.067184E-3
352.252579E-3
352.011108E-3
352.347565E-3
352.359581E-3
352.347565E-3
352.613068E-3
352.356148E-3
352.749825E-3
352.678299E-3
352.817345E-3
352.994156E-3
352.770996E-3
353.165245E-3
352.954102E-3
353.079414E-3
353.251076E-3
353.028488E-3
353.391266E-3
353.127480E-3
353.186417E-3
353.425598E-3
353.142357E-3
353.465080E-3
353.235054E-3
353.247070E-3
353.431892E-3
353.128052E-3
353.479958E-3
353.310013E-3
353.429604E-3
353.645325E-3
353.453064E-3
353.749466E-3
353.657341E-3
353.548050E-3
353.578377E-3
353.020477E-3
352.891159E-3
352.614784E-3
352.396774E-3
352.416229E-3
352.024269E-3
352.125549E-3
351.887512E-3
351.887512E-3
351.956749E-3
351.794815E-3
351.986504E-3
351.947594E-3
352.011108E-3
352.151299E-3
351.783943E-3
351.921272E-3
351.780510E-3
351.799965E-3
351.977348E-3
351.761627E-3
351.962471E-3
351.805115E-3
351.805115E-3
352.011108E-3
351.656342E-3
351.878357E-3
351.824570E-3
351.868629E-3
352.140427E-3
351.945305E-3
352.181625E-3
352.171898E-3
352.298355E-3
352.434540E-3
352.189636E-3
352.456284E-3
352.360153E-3
352.310944E-3
352.456856E-3
352.218819E-3
352.465439E-3
352.473450E-3
352.501488E-3
352.746964E-3
352.602768E-3
352.812195E-3
352.756691E-3
352.783585E-3
352.930069E-3
352.694321E-3
352.929497E-3
352.728081E-3
352.641678E-3
352.808189E-3
352.547836E-3
352.865982E-3
352.816772E-3
352.722359E-3
352.866554E-3
352.606201E-3
352.799606E-3
352.584457E-3
352.510071E-3
352.631378E-3
352.321243E-3
352.668571E-3
352.590179E-3
352.447128E-3
352.550125E-3
352.324677E-3
352.486610E-3
352.079773E-3
351.522446E-3
351.317024E-3
350.676155E-3
350.683022E-3
350.391769E-3
350.045586E-3
350.117111E-3
349.819565E-3
350.154877E-3
350.067902E-3
349.930000E-3
350.287628E-3
350.022125E-3
350.379181E-3
350.093079E-3
349.952316E-3
349.994659E-3
349.749756E-3
350.012970E-3
349.831009E-3
349.724579E-3
349.833870E-3
349.528885E-3
349.643326E-3
349.656487E-3
349.476242E-3
349.725723E-3
349.510002E-3
349.710274E-3
349.685669E-3
349.625015E-3
349.965477E-3
349.929428E-3
350.164604E-3
350.197792E-3
350.113678E-3
350.415230E-3
350.231552E-3
350.515938E-3
350.360298E-3
350.223541E-3
350.493622E-3
350.410652E-3
350.652122E-3
350.621796E-3
350.413513E-3
350.715637E-3
350.647545E-3
350.787163E-3
350.723076E-3
350.409508E-3
350.739670E-3
350.452995E-3
350.631523E-3
350.582886E-3
350.348282E-3
350.685310E-3
350.501633E-3
350.603485E-3
350.565720E-3
350.395775E-3
350.644684E-3
350.545692E-3
350.862694E-3
350.873566E-3
350.695610E-3
351.104164E-3
350.915909E-3
351.066399E-3
350.911331E-3
350.622368E-3
350.866127E-3
350.347137E-3
350.164032E-3
349.907112E-3
349.498558E-3
349.650764E-3
349.380112E-3
349.346352E-3
349.201584E-3
349.021339E-3
349.260521E-3
349.118614E-3
349.376106E-3
349.388695E-3
349.239349E-3
349.554634E-3
349.208450E-3
349.493408E-3
349.473381E-3
349.427605E-3
349.781799E-3
349.605560E-3
349.744034E-3
349.805832E-3
349.599266E-3
349.967766E-3
349.664497E-3
349.761200E-3
349.893379E-3
349.725723E-3
350.086784E-3
349.829865E-3
349.916267E-3
349.922562E-3
349.831581E-3
350.219536E-3
350.010109E-3
349.984932E-3
350.066757E-3
349.920273E-3
350.201225E-3
349.885368E-3
349.892235E-3
349.979210E-3
349.958611E-3
350.316238E-3
350.078201E-3
350.180054E-3
350.237274E-3
350.138855E-3
350.462151E-3
350.107384E-3
350.111389E-3
350.210381E-3
349.948883E-3
350.209808E-3
349.946594E-3
349.931717E-3
350.119400E-3
349.917412E-3
350.282478E-3
349.967766E-3
349.916840E-3
350.058174E-3
349.840164E-3
350.136566E-3
349.977493E-3
349.855614E-3
350.103378E-3
349.822426E-3
350.008965E-3
349.693680E-3
349.528313E-3
349.353218E-3
348.730659E-3
348.769569E-3
348.201942E-3
347.911835E-3
347.847176E-3
347.442055E-3
347.500420E-3
347.197723E-3
347.206306E-3
347.324181E-3
347.114754E-3
347.415733E-3
347.244072E-3
347.220612E-3
347.380257E-3
347.093010E-3
347.451782E-3
347.234344E-3
347.341347E-3
347.602844E-3
347.293282E-3
347.652626E-3
347.430611E-3
347.408867E-3
347.541618E-3
347.440338E-3
347.694969E-3
347.547913E-3
347.679520E-3
347.898674E-3
347.792244E-3
348.110390E-3
348.032570E-3
348.155022E-3
348.427963E-3
348.149300E-3
348.457146E-3
348.315811E-3
348.433685E-3
348.602486E-3
348.413658E-3
348.578453E-3
348.466301E-3
348.603058E-3
348.831367E-3
348.662567E-3
348.978424E-3
348.746109E-3
348.758125E-3
348.932648E-3
348.668289E-3
348.909187E-3
348.785019E-3
348.798752E-3
349.037361E-3
348.902893E-3
349.188423E-3
349.081993E-3
349.116325E-3
349.341774E-3
349.059105E-3
349.274254E-3
349.266815E-3
349.203300E-3
349.494553E-3
349.291420E-3
349.554634E-3
349.411011E-3
349.471664E-3
349.556923E-3
349.166679E-3
349.079704E-3
348.604202E-3
348.326683E-3
348.303223E-3
347.811127E-3
347.887802E-3
347.563934E-3
347.460938E-3
347.629738E-3
347.426605E-3
347.847176E-3
347.896957E-3
347.851753E-3
348.179626E-3
347.954750E-3
348.250580E-3
348.222542E-3
348.059464E-3
348.254585E-3
348.001671E-3
348.366165E-3
348.223114E-3
348.204231E-3
348.369026E-3
348.149300E-3
348.433685E-3
348.349571E-3
348.344421E-3
348.605919E-3
348.443985E-3
348.801041E-3
348.864555E-3
348.713493E-3
349.100876E-3
349.011040E-3
349.322319E-3
349.354935E-3
349.281120E-3
349.584961E-3
349.342918E-3
349.647331E-3
349.655342E-3
349.484825E-3
349.828720E-3
349.703979E-3
349.967766E-3
349.927139E-3
349.802399E-3
350.110245E-3
349.926567E-3
350.149155E-3
350.164604E-3
349.956894E-3
350.289345E-3
350.136566E-3
350.267029E-3
350.296783E-3
350.172043E-3
350.462151E-3
350.263023E-3
350.459290E-3
350.417519E-3
350.371742E-3
350.617218E-3
350.503922E-3
350.689888E-3
350.671577E-3
350.586319E-3
350.825500E-3
350.657272E-3
350.680161E-3
350.414658E-3
349.904823E-3
349.883080E-3
349.312019E-3
349.257088E-3
348.997307E-3
348.656273E-3
348.851967E-3
348.781586E-3
348.835945E-3
348.934364E-3
348.746681E-3
349.159813E-3
349.066544E-3
349.183846E-3
349.165535E-3
348.924637E-3
349.207878E-3
349.058533E-3
349.286270E-3
349.218178E-3
349.182129E-3
349.392700E-3
349.332047E-3
349.414444E-3
349.433327E-3
349.279404E-3
349.535179E-3
349.413300E-3
349.574661E-3
349.663925E-3
349.572372E-3
349.912834E-3
349.861908E-3
350.012970E-3
350.036430E-3
349.920273E-3
350.310516E-3
350.119400E-3
350.096512E-3
350.232697E-3
350.095367E-3
350.487328E-3
350.233269E-3
350.352287E-3
350.472450E-3
350.334549E-3
350.677872E-3
350.438690E-3
350.577164E-3
350.711632E-3
350.673294E-3
351.144218E-3
350.803757E-3
350.843239E-3
350.983429E-3
350.795174E-3
351.195145E-3
350.952530E-3
351.016617E-3
351.042938E-3
350.838089E-3
351.141357E-3
350.884438E-3
350.989151E-3
351.057243E-3
351.054382E-3
351.307869E-3
351.167107E-3
351.208878E-3
351.155090E-3
350.804901E-3
350.951385E-3
350.363159E-3
350.028992E-3
349.801826E-3
349.306870E-3
349.270248E-3
348.919487E-3
348.822212E-3
348.937798E-3
348.756981E-3
349.130058E-3
349.113464E-3
349.126053E-3
349.366379E-3
349.158096E-3
349.508286E-3
349.309731E-3
349.354935E-3
349.551201E-3
349.312592E-3
349.608994E-3
349.407578E-3
349.600410E-3
349.665642E-3
349.475670E-3
349.619293E-3
349.489403E-3
349.543762E-3
349.661064E-3
349.419594E-3
349.824142E-3
