Notes :


2023-11-06 ¿ÀÈÄ 6:59:09
Volts
Ch : LED 2,
243.787766E-3
243.601227E-3
243.202972E-3
243.216705E-3
243.176651E-3
243.087959E-3
243.358612E-3
243.251610E-3
243.439865E-3
243.620682E-3
243.675041E-3
244.038963E-3
243.980598E-3
244.149399E-3
244.359970E-3
244.350815E-3
244.790840E-3
244.871521E-3
245.086670E-3
245.389938E-3
245.393944E-3
245.698929E-3
245.597649E-3
245.702362E-3
245.795631E-3
245.641708E-3
245.711517E-3
245.545006E-3
245.493507E-3
245.654869E-3
245.468903E-3
245.639420E-3
245.449448E-3
245.533562E-3
245.702362E-3
245.609093E-3
245.892334E-3
245.726967E-3
245.827103E-3
245.911789E-3
245.882607E-3
246.220779E-3
246.099472E-3
246.225357E-3
246.321487E-3
246.193314E-3
246.386147E-3
246.246529E-3
246.352959E-3
246.425629E-3
246.173286E-3
246.431923E-3
246.271133E-3
246.334648E-3
246.338081E-3
246.127510E-3
246.311188E-3
246.257973E-3
246.336365E-3
246.467972E-3
246.255112E-3
246.507454E-3
246.336937E-3
246.422195E-3
246.489143E-3
246.251106E-3
246.468544E-3
246.342087E-3
246.464539E-3
246.583557E-3
246.453094E-3
246.490860E-3
246.102333E-3
245.793343E-3
245.587349E-3
245.126152E-3
244.933319E-3
244.325638E-3
243.919945E-3
243.806076E-3
243.534851E-3
243.714523E-3
243.540573E-3
243.638420E-3
243.751717E-3
243.681908E-3
243.973732E-3
244.064713E-3
244.207764E-3
244.467545E-3
244.464684E-3
244.711876E-3
244.722176E-3
244.930458E-3
245.189095E-3
245.158195E-3
245.377922E-3
245.365906E-3
245.477486E-3
245.585060E-3
245.331573E-3
245.391655E-3
245.254898E-3
245.200539E-3
245.341873E-3
245.309830E-3
245.434570E-3
245.412254E-3
245.578194E-3
245.825958E-3
245.753860E-3
245.913506E-3
245.875168E-3
246.029091E-3
246.257973E-3
246.154404E-3
246.248245E-3
246.257973E-3
246.177292E-3
246.322632E-3
246.233368E-3
246.393013E-3
246.359253E-3
246.328354E-3
246.435356E-3
246.321487E-3
246.418762E-3
246.352386E-3
246.284866E-3
246.434212E-3
246.360397E-3
246.650505E-3
246.689987E-3
246.616173E-3
246.640205E-3
246.419907E-3
246.588707E-3
246.613312E-3
246.592140E-3
246.726608E-3
246.453094E-3
246.556091E-3
246.512604E-3
246.464539E-3
246.681976E-3
246.437073E-3
246.664810E-3
246.401024E-3
246.092606E-3
245.927811E-3
245.306396E-3
245.060921E-3
244.567108E-3
244.076729E-3
243.710518E-3
243.198395E-3
243.105125E-3
243.031883E-3
242.864799E-3
243.026733E-3
242.728043E-3
242.922020E-3
242.970657E-3
242.959213E-3
243.178940E-3
243.130302E-3
243.284798E-3
243.395233E-3
243.573761E-3
243.867874E-3
243.917084E-3
244.213486E-3
244.389725E-3
244.377708E-3
244.553375E-3
244.422340E-3
244.586563E-3
244.618607E-3
244.369125E-3
244.488144E-3
244.281006E-3
244.381142E-3
244.315910E-3
244.207764E-3
244.347382E-3
244.246674E-3
244.458961E-3
244.475555E-3
244.384003E-3
244.658661E-3
244.547653E-3
244.816017E-3
244.881821E-3
244.844627E-3
245.057487E-3
245.009995E-3
245.149612E-3
245.189667E-3
245.071793E-3
245.245171E-3
245.080948E-3
245.115852E-3
245.068932E-3
244.889832E-3
245.054626E-3
244.857216E-3
244.954491E-3
244.886398E-3
244.765091E-3
244.946480E-3
244.882965E-3
244.941902E-3
244.963074E-3
244.854355E-3
245.010567E-3
244.795418E-3
244.844627E-3
244.854927E-3
244.735909E-3
245.044327E-3
244.889832E-3
244.987679E-3
245.013428E-3
244.919014E-3
245.102119E-3
244.977379E-3
244.923019E-3
244.819450E-3
244.375992E-3
244.179726E-3
243.593788E-3
243.218422E-3
242.827034E-3
242.334938E-3
242.329216E-3
242.003632E-3
242.025375E-3
242.009926E-3
241.817665E-3
241.983032E-3
241.967010E-3
242.223930E-3
242.413902E-3
242.326927E-3
242.667961E-3
242.503738E-3
242.686272E-3
242.996979E-3
243.072510E-3
243.351173E-3
243.370056E-3
243.414688E-3
243.566895E-3
243.540573E-3
243.826675E-3
243.680763E-3
243.676186E-3
243.724251E-3
243.481636E-3
243.710518E-3
243.486786E-3
243.459892E-3
243.538857E-3
243.386650E-3
243.641281E-3
243.536568E-3
243.657303E-3
243.784332E-3
243.795204E-3
244.025230E-3
244.041824E-3
244.115639E-3
244.295883E-3
244.137955E-3
244.460106E-3
244.520760E-3
244.444084E-3
244.477272E-3
244.262695E-3
244.410324E-3
244.191742E-3
244.223213E-3
244.354248E-3
244.129944E-3
244.253540E-3
244.153404E-3
244.237518E-3
244.502449E-3
244.287300E-3
244.393158E-3
244.157410E-3
244.198036E-3
244.367981E-3
244.111061E-3
244.360542E-3
244.188881E-3
244.204330E-3
244.428062E-3
244.378853E-3
244.593430E-3
244.573975E-3
244.562531E-3
244.698715E-3
244.544792E-3
244.805145E-3
244.651222E-3
244.547653E-3
244.561958E-3
244.149971E-3
243.914795E-3
243.426704E-3
243.052483E-3
242.768097E-3
242.212486E-3
242.076874E-3
241.791916E-3
241.823959E-3
241.977882E-3
241.743851E-3
241.878891E-3
241.806793E-3
241.933823E-3
242.186737E-3
242.138100E-3
242.429352E-3
242.487717E-3
242.706871E-3
243.059349E-3
243.038177E-3
243.334007E-3
243.358612E-3
243.471909E-3
243.710518E-3
243.558884E-3
243.680191E-3
243.558884E-3
243.486214E-3
243.578911E-3
243.349457E-3
243.473053E-3
243.382645E-3
243.334579E-3
243.499374E-3
243.423843E-3
243.646431E-3
243.597221E-3
243.668747E-3
243.834686E-3
243.690491E-3
243.810081E-3
243.708229E-3
243.769455E-3
243.935966E-3
243.844986E-3
244.069290E-3
244.021225E-3
243.989754E-3
244.166565E-3
243.883896E-3
243.976021E-3
243.862152E-3
243.806076E-3
243.957710E-3
243.762016E-3
243.893623E-3
243.847847E-3
243.821526E-3
243.976593E-3
243.810654E-3
243.974304E-3
244.034386E-3
243.917656E-3
244.084740E-3
243.903923E-3
244.085884E-3
243.988609E-3
243.919373E-3
243.913078E-3
243.734550E-3
243.913651E-3
243.993187E-3
243.928528E-3
243.980598E-3
243.748856E-3
243.715096E-3
243.411255E-3
243.067360E-3
242.861938E-3
242.249680E-3
241.869736E-3
241.543579E-3
241.069221E-3
241.088676E-3
240.763664E-3
240.831184E-3
240.839767E-3
240.772820E-3
241.057777E-3
241.051483E-3
241.444588E-3
241.507530E-3
241.518974E-3
241.742706E-3
241.718102E-3
242.017365E-3
242.119789E-3
242.123795E-3
242.396736E-3
242.326927E-3
242.472839E-3
242.540359E-3
242.347527E-3
242.503166E-3
242.298889E-3
242.419624E-3
242.315483E-3
242.128944E-3
242.267990E-3
242.134666E-3
242.203331E-3
242.243385E-3
242.203331E-3
242.384148E-3
242.289734E-3
242.453384E-3
242.591286E-3
242.502022E-3
242.744064E-3
242.709160E-3
242.823601E-3
242.783546E-3
242.733192E-3
242.891121E-3
242.836761E-3
242.930031E-3
242.993546E-3
242.821312E-3
243.105125E-3
242.911148E-3
243.031311E-3
243.023300E-3
242.905998E-3
243.132591E-3
242.956924E-3
242.984962E-3
242.970085E-3
242.868805E-3
243.086243E-3
242.892265E-3
242.978096E-3
243.060493E-3
242.950630E-3
243.157196E-3
243.034744E-3
243.101692E-3
243.105698E-3
243.114853E-3
243.309975E-3
243.193245E-3
243.246460E-3
243.244743E-3
242.850494E-3
242.745209E-3
242.301750E-3
241.917229E-3
241.526985E-3
241.025734E-3
240.864944E-3
240.442657E-3
240.324783E-3
240.320206E-3
240.075302E-3
240.262413E-3
240.157127E-3
240.169716E-3
240.372849E-3
240.395737E-3
240.674400E-3
240.720749E-3
240.804863E-3
241.052055E-3
241.064072E-3
241.473770E-3
241.491508E-3
241.728401E-3
241.940117E-3
241.946983E-3
242.206764E-3
242.096329E-3
242.143250E-3
242.139244E-3
241.960144E-3
242.170715E-3
242.028809E-3
241.896629E-3
242.040825E-3
241.882324E-3
242.025375E-3
241.900063E-3
241.907501E-3
242.121506E-3
242.085457E-3
242.343521E-3
242.294884E-3
242.399597E-3
242.649078E-3
242.516899E-3
242.753220E-3
242.662239E-3
242.619324E-3
242.816734E-3
242.598724E-3
242.774391E-3
242.587280E-3
242.692566E-3
242.816734E-3
242.658806E-3
242.730904E-3
242.567825E-3
242.580414E-3
242.784691E-3
242.562103E-3
242.749214E-3
242.677689E-3
242.744064E-3
242.856216E-3
242.698860E-3
242.885399E-3
242.838478E-3
242.804146E-3
242.999268E-3
242.788124E-3
243.032455E-3
242.978668E-3
243.117714E-3
243.190956E-3
242.889404E-3
242.875671E-3
242.581558E-3
242.253113E-3
242.016792E-3
241.425705E-3
241.204262E-3
240.723610E-3
240.359688E-3
240.254974E-3
239.873314E-3
240.035820E-3
239.887047E-3
239.837265E-3
240.040398E-3
239.981461E-3
240.222359E-3
240.346527E-3
240.349388E-3
240.599442E-3
240.549088E-3
240.899849E-3
241.018295E-3
241.224861E-3
241.500664E-3
241.461182E-3
241.751862E-3
241.876030E-3
241.890907E-3
242.130661E-3
241.884041E-3
242.039108E-3
242.000198E-3
241.989326E-3
242.084312E-3
241.921234E-3
242.119789E-3
242.091179E-3
242.064285E-3
242.308617E-3
242.200470E-3
242.479706E-3
242.548370E-3
242.619324E-3
242.814445E-3
242.727470E-3
242.974663E-3
242.955208E-3
242.916870E-3
243.083954E-3
242.947197E-3
243.046188E-3
243.033600E-3
242.902565E-3
243.040466E-3
242.877960E-3
243.004417E-3
242.956352E-3
242.984962E-3
243.042183E-3
242.890549E-3
243.071365E-3
243.116570E-3
243.035889E-3
243.217850E-3
243.054199E-3
243.235588E-3
243.317986E-3
243.128014E-3
243.312263E-3
243.082809E-3
243.180656E-3
243.205833E-3
243.103409E-3
243.415833E-3
243.349457E-3
243.372917E-3
243.335724E-3
243.075943E-3
243.043327E-3
242.631340E-3
242.417908E-3
241.909790E-3
241.299248E-3
241.073799E-3
240.571976E-3
240.451241E-3
240.314484E-3
240.093613E-3
240.224648E-3
240.074730E-3
240.230370E-3
240.462685E-3
240.453529E-3
240.777397E-3
240.773964E-3
240.873528E-3
241.007423E-3
240.905571E-3
241.369057E-3
241.392517E-3
241.632271E-3
241.797638E-3
241.732979E-3
242.047691E-3
241.976738E-3
242.076874E-3
242.066002E-3
241.931534E-3
242.078018E-3
241.882324E-3
241.927528E-3
241.908073E-3
241.823959E-3
241.960716E-3
241.817093E-3
241.914368E-3
242.007065E-3
241.967583E-3
242.199326E-3
242.132950E-3
242.298889E-3
242.350960E-3
242.318916E-3
242.513466E-3
242.388153E-3
242.458534E-3
242.587852E-3
242.432213E-3
242.630768E-3
242.501450E-3
242.555809E-3
242.666817E-3
242.602158E-3
242.827034E-3
242.622185E-3
242.670822E-3
242.793274E-3
242.736626E-3
242.988968E-3
242.747498E-3
242.785835E-3
242.899704E-3
242.790413E-3
242.983246E-3
242.803574E-3
242.704582E-3
242.843056E-3
242.681694E-3
243.013573E-3
242.729759E-3
242.737770E-3
242.670822E-3
242.331505E-3
242.299461E-3
241.797638E-3
241.390228E-3
241.091537E-3
240.472412E-3
240.249252E-3
239.828110E-3
239.634132E-3
239.718246E-3
239.455032E-3
239.651299E-3
239.519119E-3
239.615250E-3
239.893913E-3
239.869308E-3
240.070724E-3
239.983177E-3
240.094185E-3
240.327644E-3
240.209198E-3
240.562820E-3
240.514755E-3
240.695000E-3
240.845490E-3
240.716743E-3
240.835762E-3
240.700722E-3
240.646362E-3
240.781975E-3
240.579414E-3
240.651512E-3
240.355110E-3
240.391159E-3
240.596008E-3
240.392876E-3
240.657806E-3
240.506172E-3
240.628052E-3
240.839195E-3
240.751648E-3
240.929031E-3
240.900421E-3
241.203117E-3
241.458893E-3
241.320992E-3
241.422272E-3
241.379356E-3
241.298676E-3
241.494942E-3
241.364479E-3
241.438293E-3
241.379929E-3
241.298676E-3
241.536713E-3
241.369629E-3
241.584778E-3
241.553879E-3
241.570473E-3
241.718674E-3
241.622543E-3
241.736412E-3
241.641998E-3
241.651154E-3
241.855431E-3
241.699219E-3
241.801643E-3
241.752434E-3
241.716957E-3
241.984177E-3
241.822815E-3
242.014503E-3
241.799927E-3
241.575050E-3
241.508675E-3
240.986824E-3
240.784836E-3
240.248680E-3
239.836693E-3
239.550591E-3
238.973236E-3
239.073372E-3
238.873100E-3
238.820457E-3
238.818741E-3
238.654518E-3
238.833046E-3
238.851929E-3
238.861656E-3
239.116287E-3
239.015579E-3
239.397812E-3
239.475632E-3
239.598083E-3
239.906502E-3
239.983749E-3
240.298462E-3
240.391731E-3
240.499306E-3
240.654373E-3
240.567970E-3
240.813446E-3
240.795135E-3
240.689850E-3
240.765953E-3
240.600014E-3
240.787697E-3
240.777397E-3
240.687561E-3
240.879822E-3
240.772820E-3
241.055489E-3
241.090965E-3
241.119576E-3
241.361046E-3
241.290665E-3
241.536713E-3
241.668320E-3
241.638565E-3
241.866302E-3
241.774178E-3
242.029381E-3
242.049980E-3
241.908073E-3
242.080879E-3
241.890335E-3
242.103767E-3
242.060280E-3
241.945267E-3
242.148399E-3
241.989326E-3
242.115784E-3
242.096901E-3
241.964722E-3
242.135811E-3
241.988182E-3
242.108917E-3
242.053986E-3
241.890907E-3
242.063713E-3
241.946411E-3
242.056274E-3
242.040825E-3
241.901207E-3
242.173004E-3
241.926384E-3
242.115784E-3
242.182159E-3
241.877747E-3
241.837692E-3
241.254044E-3
240.906143E-3
240.559387E-3
239.921951E-3
239.703369E-3
239.142036E-3
238.942909E-3
238.732338E-3
238.470268E-3
238.503456E-3
238.360405E-3
238.415909E-3
238.467979E-3
238.468552E-3
238.667679E-3
238.703728E-3
238.823891E-3
238.956642E-3
238.844490E-3
239.182091E-3
239.300537E-3
239.582062E-3
239.759445E-3
239.829254E-3
240.124512E-3
240.066719E-3
240.211487E-3
240.320778E-3
240.137100E-3
240.315056E-3
240.097618E-3
240.220642E-3
240.198898E-3
240.059853E-3
240.353966E-3
240.137672E-3
240.219498E-3
240.367126E-3
240.338516E-3
240.531349E-3
240.570831E-3
240.678406E-3
240.905571E-3
240.872955E-3
241.106415E-3
241.135025E-3
241.201401E-3
241.397095E-3
241.260910E-3
241.452599E-3
241.354179E-3
241.374779E-3
241.401100E-3
241.289520E-3
241.472626E-3
241.308975E-3
241.401100E-3
241.504097E-3
241.362762E-3
241.530418E-3
241.461182E-3
241.523552E-3
241.602516E-3
241.413116E-3
241.589928E-3
241.540146E-3
241.581345E-3
241.719246E-3
241.588783E-3
241.762733E-3
241.683197E-3
241.871452E-3
242.030525E-3
241.674042E-3
241.524124E-3
241.117859E-3
240.863800E-3
240.669250E-3
240.070152E-3
239.721107E-3
239.115143E-3
238.873672E-3
238.851357E-3
238.509750E-3
238.540077E-3
238.413620E-3
238.449669E-3
238.688850E-3
238.652802E-3
238.829613E-3
238.925743E-3
239.021301E-3
239.253044E-3
239.171219E-3
239.531136E-3
239.621544E-3
239.855003E-3
240.147972E-3
240.186882E-3
240.480423E-3
240.460396E-3
240.597725E-3
240.847206E-3
240.557098E-3
240.748787E-3
240.637207E-3
240.613747E-3
240.794563E-3
240.541649E-3
240.776253E-3
240.616035E-3
240.764809E-3
240.876389E-3
240.811729E-3
241.075516E-3
241.113853E-3
241.212845E-3
241.440010E-3
241.448593E-3
241.690063E-3
241.731262E-3
241.747856E-3
241.909790E-3
241.724968E-3
241.805649E-3
241.805649E-3
241.688919E-3
241.850281E-3
241.714096E-3
241.928101E-3
241.781044E-3
241.741562E-3
241.846275E-3
241.692352E-3
241.872597E-3
241.823387E-3
241.819382E-3
241.933250E-3
241.720963E-3
241.908073E-3
241.870880E-3
241.836548E-3
241.945267E-3
241.861153E-3
241.987038E-3
241.887474E-3
241.819954E-3
242.028809E-3
241.793633E-3
241.969299E-3
241.920090E-3
241.719818E-3
241.723251E-3
241.235733E-3
240.996552E-3
240.562248E-3
239.915657E-3
239.527702E-3
238.927460E-3
238.903427E-3
238.732338E-3
238.574409E-3
238.701439E-3
238.546371E-3
238.781548E-3
238.834190E-3
238.873672E-3
239.171219E-3
239.064217E-3
239.376640E-3
239.366913E-3
239.399529E-3
239.729691E-3
239.810371E-3
240.181732E-3
240.214348E-3
240.208626E-3
240.379143E-3
240.337944E-3
240.491295E-3
240.519905E-3
240.311050E-3
240.563965E-3
240.297318E-3
240.470123E-3
