Notes :


2023-10-30 ¿ÀÈÄ 11:33:57
Volts
Ch : LED 2,
105.234718E-3
105.638123E-3
106.191444E-3
105.870438E-3
106.704140E-3
106.232643E-3
106.630898E-3
107.030296E-3
106.759644E-3
107.714081E-3
107.406807E-3
107.790756E-3
108.143234E-3
107.685471E-3
108.411026E-3
107.993317E-3
108.030510E-3
108.288574E-3
107.772446E-3
108.460236E-3
107.819939E-3
107.770157E-3
108.179855E-3
107.595062E-3
108.292580E-3
107.735252E-3
107.918358E-3
108.408165E-3
108.214188E-3
108.946609E-3
108.385277E-3
108.787537E-3
109.232712E-3
109.024429E-3
109.749413E-3
109.214973E-3
109.379768E-3
109.677887E-3
109.114265E-3
109.853554E-3
109.381485E-3
109.403801E-3
109.878159E-3
109.348869E-3
110.096741E-3
109.570313E-3
109.753990E-3
110.193443E-3
109.602928E-3
110.261536E-3
109.770012E-3
109.941673E-3
110.422325E-3
109.850121E-3
110.539627E-3
109.998894E-3
110.153961E-3
110.378838E-3
109.370041E-3
109.388351E-3
108.155823E-3
107.564163E-3
107.132149E-3
105.960846E-3
106.079865E-3
105.365753E-3
105.416107E-3
105.955124E-3
105.323410E-3
106.048393E-3
105.804062E-3
105.943680E-3
106.723022E-3
106.214333E-3
107.034874E-3
106.753349E-3
106.954193E-3
107.611656E-3
107.304955E-3
108.198166E-3
108.071709E-3
108.364105E-3
108.911133E-3
108.364105E-3
108.900261E-3
108.242798E-3
108.203888E-3
108.506584E-3
107.880020E-3
108.314323E-3
107.841110E-3
107.739830E-3
108.332634E-3
107.673454E-3
108.256531E-3
108.148956E-3
108.215332E-3
108.802414E-3
108.314323E-3
108.952904E-3
108.713150E-3
108.910561E-3
109.511375E-3
109.024429E-3
109.569740E-3
109.456444E-3
109.481621E-3
110.037231E-3
109.473610E-3
109.947395E-3
109.510803E-3
109.372330E-3
109.974861E-3
109.429550E-3
109.819221E-3
109.657860E-3
109.817505E-3
110.359955E-3
109.849548E-3
110.359955E-3
110.140228E-3
110.109901E-3
110.742187E-3
110.081291E-3
110.525322E-3
110.279846E-3
109.719086E-3
109.771729E-3
108.408165E-3
108.209038E-3
107.209969E-3
106.327629E-3
106.283569E-3
105.191803E-3
105.468750E-3
105.142021E-3
105.014420E-3
105.539131E-3
105.035591E-3
105.711937E-3
105.735397E-3
105.707359E-3
106.381416E-3
105.823517E-3
106.579399E-3
106.637192E-3
106.715584E-3
107.337570E-3
107.145882E-3
108.043098E-3
108.072853E-3
107.858276E-3
108.510017E-3
107.820511E-3
108.418465E-3
108.182716E-3
107.814217E-3
108.325195E-3
107.593346E-3
108.155823E-3
107.979584E-3
107.728386E-3
108.280563E-3
107.644272E-3
108.343506E-3
108.251953E-3
108.099174E-3
108.750343E-3
108.282280E-3
109.045601E-3
109.079361E-3
108.821869E-3
109.516525E-3
109.020996E-3
109.681320E-3
109.752846E-3
109.358597E-3
109.856987E-3
109.226418E-3
109.741974E-3
109.674454E-3
109.222984E-3
109.882736E-3
109.315109E-3
109.864426E-3
109.811211E-3
109.705353E-3
110.136223E-3
109.696770E-3
110.287857E-3
110.286140E-3
109.822655E-3
110.396004E-3
109.817505E-3
110.242081E-3
109.722519E-3
108.728027E-3
108.720016E-3
107.294655E-3
107.128716E-3
106.404877E-3
105.448151E-3
105.711937E-3
104.765511E-3
104.974937E-3
105.047035E-3
104.572105E-3
105.431557E-3
105.154037E-3
105.815506E-3
105.976868E-3
105.632973E-3
106.497002E-3
106.038094E-3
106.661224E-3
106.790543E-3
106.807137E-3
107.632256E-3
107.470322E-3
108.064270E-3
108.112907E-3
107.794189E-3
108.461952E-3
107.907486E-3
108.132362E-3
108.088875E-3
107.575035E-3
108.197594E-3
107.645416E-3
107.998466E-3
108.033371E-3
107.647705E-3
108.373260E-3
108.095741E-3
108.389282E-3
108.369255E-3
108.076859E-3
108.845329E-3
108.516884E-3
108.938599E-3
109.142876E-3
108.753777E-3
109.577179E-3
109.265900E-3
109.599495E-3
109.665871E-3
109.194946E-3
109.889603E-3
109.438133E-3
109.820366E-3
109.834099E-3
109.289932E-3
110.014343E-3
109.560585E-3
109.745979E-3
109.970284E-3
109.481049E-3
110.272980E-3
109.914780E-3
110.137367E-3
110.394287E-3
109.834099E-3
110.440063E-3
109.877586E-3
109.895325E-3
109.650421E-3
108.683968E-3
108.643341E-3
107.454300E-3
106.922150E-3
106.503868E-3
105.663872E-3
105.827522E-3
105.060768E-3
105.061913E-3
105.372047E-3
104.913712E-3
105.786896E-3
105.401230E-3
105.755424E-3
106.272697E-3
105.972290E-3
106.950188E-3
106.624603E-3
106.925583E-3
107.434273E-3
107.221413E-3
108.192444E-3
107.778168E-3
107.969284E-3
108.282280E-3
107.768440E-3
108.548355E-3
107.920647E-3
107.877731E-3
108.053970E-3
107.587051E-3
108.225060E-3
107.695198E-3
107.848549E-3
108.289146E-3
107.861710E-3
108.574104E-3
108.132362E-3
108.398437E-3
108.871651E-3
108.417320E-3
109.372902E-3
108.871651E-3
109.163475E-3
109.721375E-3
109.266472E-3
109.959984E-3
109.488487E-3
109.635544E-3
110.092163E-3
109.466171E-3
110.101891E-3
109.585190E-3
109.647560E-3
110.174561E-3
109.571457E-3
110.271263E-3
109.820366E-3
110.057831E-3
110.498428E-3
109.947968E-3
110.642624E-3
110.163116E-3
110.236359E-3
110.619736E-3
110.044098E-3
110.675812E-3
109.988022E-3
109.754562E-3
109.645844E-3
108.435631E-3
108.275986E-3
107.006836E-3
106.447220E-3
106.341362E-3
105.413818E-3
105.765724E-3
105.310822E-3
105.408096E-3
105.879021E-3
105.421829E-3
106.503868E-3
106.206894E-3
106.470680E-3
107.050896E-3
106.492424E-3
107.140160E-3
107.023430E-3
107.363892E-3
108.100891E-3
107.798195E-3
108.475113E-3
108.222771E-3
108.213043E-3
108.641624E-3
108.017921E-3
108.326340E-3
107.901764E-3
108.011055E-3
108.433342E-3
107.733536E-3
108.167267E-3
107.909775E-3
108.011627E-3
108.607292E-3
107.984734E-3
108.625603E-3
108.430481E-3
108.649063E-3
109.255028E-3
108.806419E-3
109.370613E-3
109.253883E-3
109.151459E-3
109.735107E-3
109.130859E-3
109.586906E-3
109.283066E-3
109.229279E-3
109.812927E-3
109.095383E-3
109.660721E-3
109.306526E-3
109.354591E-3
109.807205E-3
109.314537E-3
109.758568E-3
109.655571E-3
109.605217E-3
110.230064E-3
109.676743E-3
110.065269E-3
109.925079E-3
109.853554E-3
110.302734E-3
109.707069E-3
110.024071E-3
109.310532E-3
108.578682E-3
108.377838E-3
107.038879E-3
106.809998E-3
105.982590E-3
105.297089E-3
105.464172E-3
104.562950E-3
105.069351E-3
104.874229E-3
104.915428E-3
105.726242E-3
105.159760E-3
106.041527E-3
106.083298E-3
105.908203E-3
106.591415E-3
106.119919E-3
106.982231E-3
107.216835E-3
107.320404E-3
108.043098E-3
107.624817E-3
108.384132E-3
108.401299E-3
108.108902E-3
108.532333E-3
107.835388E-3
108.309174E-3
108.084297E-3
107.773590E-3
108.336067E-3
107.516670E-3
108.246803E-3
108.249092E-3
107.805634E-3
108.497429E-3
108.011627E-3
108.585548E-3
108.670235E-3
108.466530E-3
109.077644E-3
108.551216E-3
109.280205E-3
109.268761E-3
109.063339E-3
109.651566E-3
109.151459E-3
109.715652E-3
109.574890E-3
109.169197E-3
109.815216E-3
109.132004E-3
109.492493E-3
109.584618E-3
109.255028E-3
109.872437E-3
109.256744E-3
110.008621E-3
109.971428E-3
109.487343E-3
110.203171E-3
109.687042E-3
110.171700E-3
110.081291E-3
109.657860E-3
110.200882E-3
109.553146E-3
109.766006E-3
109.165192E-3
107.958412E-3
107.918930E-3
106.591415E-3
106.317902E-3
105.702782E-3
104.809570E-3
105.175781E-3
104.449654E-3
104.859352E-3
104.862785E-3
104.599571E-3
105.261612E-3
104.977226E-3
105.464172E-3
105.509949E-3
105.233574E-3
105.991173E-3
105.612946E-3
106.420326E-3
106.670380E-3
106.563950E-3
107.458878E-3
107.216263E-3
107.739830E-3
107.698059E-3
107.295227E-3
107.910347E-3
107.338715E-3
107.559586E-3
107.574463E-3
106.961060E-3
107.467461E-3
107.118416E-3
107.478905E-3
107.458305E-3
107.127571E-3
107.818222E-3
107.372475E-3
107.778740E-3
107.972717E-3
107.699203E-3
108.492851E-3
108.110619E-3
108.616447E-3
108.721733E-3
108.330345E-3
109.126282E-3
108.699417E-3
108.953476E-3
109.022141E-3
108.550072E-3
109.146309E-3
108.767509E-3
109.079361E-3
109.193802E-3
108.613586E-3
109.285355E-3
108.966064E-3
109.249306E-3
109.403801E-3
108.999825E-3
109.753990E-3
109.315681E-3
109.650993E-3
109.738541E-3
109.185219E-3
109.832382E-3
109.282494E-3
109.335136E-3
109.194374E-3
108.072853E-3
108.051682E-3
106.648636E-3
106.169128E-3
105.649567E-3
104.709435E-3
104.984093E-3
104.235649E-3
104.294014E-3
104.511452E-3
104.191017E-3
104.982376E-3
104.536057E-3
104.910278E-3
105.420685E-3
105.113983E-3
106.014061E-3
105.596924E-3
105.881882E-3
106.479836E-3
106.394005E-3
107.439423E-3
107.137871E-3
107.369041E-3
107.862282E-3
107.484627E-3
108.052254E-3
107.365036E-3
107.318115E-3
107.720375E-3
107.073212E-3
107.835388E-3
107.168770E-3
107.533836E-3
107.844543E-3
107.376480E-3
108.099747E-3
107.600212E-3
107.904053E-3
108.306313E-3
107.887459E-3
108.834457E-3
108.463669E-3
108.794975E-3
109.275627E-3
108.803558E-3
109.613228E-3
109.178352E-3
109.333420E-3
109.766579E-3
109.188080E-3
109.946251E-3
109.529114E-3
109.632111E-3
110.042381E-3
109.489632E-3
110.201454E-3
109.657860E-3
109.785461E-3
110.220909E-3
109.673309E-3
110.469818E-3
110.183716E-3
110.288429E-3
110.797119E-3
110.146523E-3
110.776520E-3
110.346222E-3
110.668945E-3
110.918427E-3
109.994888E-3
110.186577E-3
109.222984E-3
108.594704E-3
108.357811E-3
106.975937E-3
106.864357E-3
105.940819E-3
105.574608E-3
105.995178E-3
105.218697E-3
105.895042E-3
105.478477E-3
105.716515E-3
106.483269E-3
106.000328E-3
106.832314E-3
106.514740E-3
106.768227E-3
107.331276E-3
107.066917E-3
107.786751E-3
107.859421E-3
108.094597E-3
108.806992E-3
108.399010E-3
109.062195E-3
108.571815E-3
108.549500E-3
109.144020E-3
108.328629E-3
108.658218E-3
108.405876E-3
108.474541E-3
108.884811E-3
108.241653E-3
108.875656E-3
108.637619E-3
108.614731E-3
109.384346E-3
108.805847E-3
109.467316E-3
109.299088E-3
109.424973E-3
110.243225E-3
109.741402E-3
110.317039E-3
110.244370E-3
110.278702E-3
110.918999E-3
110.310745E-3
110.841751E-3
110.481834E-3
110.364532E-3
110.836029E-3
110.299873E-3
110.896683E-3
110.787964E-3
110.714722E-3
111.264610E-3
110.718727E-3
111.272049E-3
110.969353E-3
110.930443E-3
111.513519E-3
110.942459E-3
111.373901E-3
111.194801E-3
111.070061E-3
111.496353E-3
110.941887E-3
111.356163E-3
110.917282E-3
110.149956E-3
110.133934E-3
108.826447E-3
108.548355E-3
107.874298E-3
107.040024E-3
107.159615E-3
106.234360E-3
106.871796E-3
106.725311E-3
106.605148E-3
107.168770E-3
106.675529E-3
107.497787E-3
107.517815E-3
107.307816E-3
107.993317E-3
107.524109E-3
108.305740E-3
108.523178E-3
108.522034E-3
109.206963E-3
108.651352E-3
109.373474E-3
109.268761E-3
108.971214E-3
109.521675E-3
108.716011E-3
109.251595E-3
109.039879E-3
108.651924E-3
109.155464E-3
108.571815E-3
109.194946E-3
109.221840E-3
108.919144E-3
109.459877E-3
108.962631E-3
109.632111E-3
109.908485E-3
109.463882E-3
110.232353E-3
109.668159E-3
110.358238E-3
110.485268E-3
110.145950E-3
110.881233E-3
110.227776E-3
110.807419E-3
110.771370E-3
110.412025E-3
111.040878E-3
110.453224E-3
111.050606E-3
111.184502E-3
110.691261E-3
111.242867E-3
110.574532E-3
111.144447E-3
111.051178E-3
110.765648E-3
111.432266E-3
110.894394E-3
111.609077E-3
111.694336E-3
111.242867E-3
111.975861E-3
111.498070E-3
111.931801E-3
111.767578E-3
111.045456E-3
111.238289E-3
110.041809E-3
109.783173E-3
109.004974E-3
107.803345E-3
107.883453E-3
107.061195E-3
107.223129E-3
106.981087E-3
106.739044E-3
107.452583E-3
107.094955E-3
107.652855E-3
107.752991E-3
107.532692E-3
108.389854E-3
108.075714E-3
108.680534E-3
109.053612E-3
108.809853E-3
109.652138E-3
109.430122E-3
110.124207E-3
110.222054E-3
109.802055E-3
110.494423E-3
110.070992E-3
110.443497E-3
110.295296E-3
109.802628E-3
110.417175E-3
109.914207E-3
110.200310E-3
110.363388E-3
109.760284E-3
110.568237E-3
110.261536E-3
110.598564E-3
110.901260E-3
110.399437E-3
111.283493E-3
110.989952E-3
111.408234E-3
111.540985E-3
111.165047E-3
111.899757E-3
111.771011E-3
112.029648E-3
112.130356E-3
111.726379E-3
112.424469E-3
111.903763E-3
112.080574E-3
112.335777E-3
111.870003E-3
112.504005E-3
112.140083E-3
112.509727E-3
112.438202E-3
111.998177E-3
112.771797E-3
112.265968E-3
112.445068E-3
112.719154E-3
112.172699E-3
112.976074E-3
112.434196E-3
112.631607E-3
113.005829E-3
112.261963E-3
112.733459E-3
111.780167E-3
111.464310E-3
110.896683E-3
109.630966E-3
109.691048E-3
108.452797E-3
107.957840E-3
108.025932E-3
107.356453E-3
108.033371E-3
107.394218E-3
107.712936E-3
108.223343E-3
107.770729E-3
108.810997E-3
108.233070E-3
108.579826E-3
109.030724E-3
108.848763E-3
109.642982E-3
109.336281E-3
109.654999E-3
110.437775E-3
110.111618E-3
110.924149E-3
110.512161E-3
110.579109E-3
110.988235E-3
110.431480E-3
110.947037E-3
110.310745E-3
110.360527E-3
110.718727E-3
110.180855E-3
110.891533E-3
110.341644E-3
110.371971E-3
110.786819E-3
110.440063E-3
111.205673E-3
110.833740E-3
111.118698E-3
111.603928E-3
111.112976E-3
111.937523E-3
111.498070E-3
111.713219E-3
112.300873E-3
111.748123E-3
112.504005E-3
112.097168E-3
112.265396E-3
112.685966E-3
112.197304E-3
112.811852E-3
112.256241E-3
112.397575E-3
112.865067E-3
112.326050E-3
112.826157E-3
112.373543E-3
112.608719E-3
113.001823E-3
112.502861E-3
113.239288E-3
112.771225E-3
112.704277E-3
113.309097E-3
112.722015E-3
113.254166E-3
112.754059E-3
112.720299E-3
112.633896E-3
111.393929E-3
111.241150E-3
110.205460E-3
109.522820E-3
109.379768E-3
108.318901E-3
108.532333E-3
107.740402E-3
107.790184E-3
108.266258E-3
107.769585E-3
108.366966E-3
108.215904E-3
108.464241E-3
108.987808E-3
108.594704E-3
109.335136E-3
109.073067E-3
109.255600E-3
110.043526E-3
109.808350E-3
110.400009E-3
110.477257E-3
110.687828E-3
111.183929E-3
110.592842E-3
110.996819E-3
110.589409E-3
110.618591E-3
111.018562E-3
110.402298E-3
110.817719E-3
110.621452E-3
110.711288E-3
111.323547E-3
110.693550E-3
111.211395E-3
110.939598E-3
111.012840E-3
111.736107E-3
111.193657E-3
111.904907E-3
111.787605E-3
112.033653E-3
112.596703E-3
111.981583E-3
112.552071E-3
112.417603E-3
112.515450E-3
112.894249E-3
112.287712E-3
112.792397E-3
112.627029E-3
112.304306E-3
112.842178E-3
112.324905E-3
112.954903E-3
112.700844E-3
112.554359E-3
113.046455E-3
112.495995E-3
113.153458E-3
112.933731E-3
112.788391E-3
113.355446E-3
112.793541E-3
113.372040E-3
113.254166E-3
113.024712E-3
113.498497E-3
112.789536E-3
113.045883E-3
112.366676E-3
111.436272E-3
111.288071E-3
109.909058E-3
109.907341E-3
109.249306E-3
108.601570E-3
108.866501E-3
108.088875E-3
108.761215E-3
108.720589E-3
108.596420E-3
109.312820E-3
108.891678E-3
109.680748E-3
109.934807E-3
109.677315E-3
110.422897E-3
109.947968E-3
110.853767E-3
111.066628E-3
110.928726E-3
111.621094E-3
111.215973E-3
111.800766E-3
111.718369E-3
111.462593E-3
111.917496E-3
111.296082E-3
111.678314E-3
111.640549E-3
111.135864E-3
111.689186E-3
110.970497E-3
111.585045E-3
111.647415E-3
111.277199E-3
111.927223E-3
111.387634E-3
112.119484E-3
112.344360E-3
111.829948E-3
112.653351E-3
112.162399E-3
112.751770E-3
112.812996E-3
112.663651E-3
113.317680E-3
112.573814E-3
113.151741E-3
