Notes :


2023-10-30 ¿ÀÈÄ 11:22:31
Volts
Ch : LED 2,
100.465965E-3
101.375771E-3
101.269913E-3
101.480484E-3
101.947975E-3
101.396942E-3
102.386856E-3
102.102470E-3
102.319908E-3
102.784538E-3
102.016068E-3
102.998543E-3
102.478409E-3
102.470398E-3
102.767372E-3
102.028656E-3
102.866936E-3
102.456665E-3
102.433777E-3
102.862930E-3
102.130508E-3
103.021431E-3
102.644348E-3
102.712440E-3
103.094101E-3
102.422333E-3
103.257179E-3
102.897835E-3
102.877808E-3
103.280067E-3
102.382278E-3
102.781105E-3
101.656151E-3
100.894547E-3
100.600433E-3
99.093246E-3
99.296379E-3
98.450089E-3
98.151970E-3
98.390007E-3
97.681046E-3
98.668671E-3
98.440361E-3
98.665810E-3
99.512100E-3
98.865509E-3
99.940109E-3
99.710083E-3
99.838829E-3
100.640488E-3
100.112343E-3
101.121712E-3
101.019859E-3
100.916290E-3
101.519966E-3
100.729179E-3
101.446724E-3
100.871086E-3
100.578690E-3
100.983810E-3
100.084877E-3
100.815582E-3
100.173569E-3
100.006485E-3
100.584412E-3
99.851990E-3
100.740051E-3
100.663948E-3
100.629616E-3
101.340866E-3
100.842476E-3
101.747704E-3
101.356888E-3
101.348877E-3
102.068710E-3
101.407242E-3
102.295303E-3
102.086449E-3
101.797485E-3
102.364540E-3
101.625252E-3
102.238083E-3
101.740837E-3
101.667023E-3
102.203751E-3
101.402092E-3
102.160835E-3
101.750565E-3
101.515388E-3
102.110481E-3
101.454735E-3
102.164268E-3
101.875877E-3
101.664734E-3
102.328491E-3
101.626968E-3
102.338219E-3
102.055550E-3
101.655006E-3
101.850128E-3
100.669670E-3
100.679398E-3
99.527550E-3
98.558235E-3
98.427773E-3
97.241592E-3
97.540855E-3
97.012711E-3
96.756935E-3
97.319984E-3
96.777534E-3
97.473335E-3
97.484207E-3
97.435570E-3
98.262978E-3
97.725105E-3
98.441505E-3
98.387718E-3
98.387718E-3
99.400520E-3
98.967934E-3
99.895477E-3
99.727249E-3
99.429131E-3
100.194168E-3
99.428558E-3
99.977875E-3
99.569321E-3
99.117851E-3
99.750710E-3
98.927307E-3
99.413109E-3
99.264908E-3
99.041176E-3
99.736977E-3
99.145889E-3
99.881744E-3
99.892616E-3
99.742126E-3
100.568390E-3
99.977875E-3
100.793266E-3
100.817871E-3
100.649071E-3
101.474190E-3
100.922585E-3
101.574898E-3
101.404381E-3
101.053619E-3
101.832390E-3
101.037598E-3
101.597786E-3
101.336861E-3
100.935745E-3
101.657867E-3
100.980949E-3
101.571465E-3
101.465034E-3
101.111412E-3
101.837540E-3
101.105690E-3
101.715088E-3
101.675034E-3
101.325417E-3
102.116776E-3
101.395226E-3
101.848412E-3
101.387215E-3
100.380707E-3
100.328636E-3
98.707581E-3
98.514748E-3
97.691345E-3
96.819305E-3
97.357750E-3
96.161842E-3
96.543503E-3
96.560669E-3
96.310043E-3
97.194672E-3
96.598434E-3
97.250175E-3
97.454453E-3
97.307968E-3
98.345947E-3
97.674179E-3
98.426056E-3
98.733330E-3
98.587418E-3
99.666595E-3
98.971939E-3
99.601936E-3
99.686623E-3
99.304390E-3
100.031662E-3
98.993683E-3
99.396515E-3
99.353027E-3
98.951912E-3
99.649429E-3
98.761368E-3
99.254036E-3
99.514961E-3
99.259758E-3
100.142097E-3
99.532127E-3
100.021362E-3
100.349808E-3
100.051117E-3
101.042747E-3
100.368118E-3
100.937462E-3
101.059914E-3
100.776672E-3
101.634979E-3
100.876236E-3
101.311684E-3
101.363182E-3
100.939178E-3
101.745987E-3
100.974083E-3
101.249886E-3
101.376915E-3
100.859642E-3
101.649857E-3
100.940323E-3
101.310539E-3
101.645851E-3
101.082802E-3
101.986885E-3
101.363182E-3
101.873016E-3
102.169991E-3
101.534843E-3
102.022934E-3
100.683975E-3
100.377846E-3
99.777603E-3
98.464966E-3
98.486137E-3
97.282791E-3
97.122002E-3
97.033310E-3
96.324921E-3
96.932030E-3
96.268272E-3
96.702576E-3
97.105980E-3
96.812439E-3
97.794914E-3
97.173500E-3
97.730255E-3
98.216629E-3
97.885895E-3
99.062920E-3
98.650932E-3
99.231720E-3
99.787903E-3
99.381638E-3
100.111771E-3
99.314690E-3
99.578476E-3
99.784470E-3
99.036598E-3
99.602509E-3
98.777962E-3
99.100685E-3
99.272919E-3
98.626328E-3
99.367332E-3
98.830605E-3
99.278069E-3
99.805069E-3
99.344444E-3
100.321770E-3
99.810219E-3
100.317192E-3
100.722313E-3
100.275993E-3
101.047897E-3
100.505447E-3
100.971222E-3
101.382065E-3
100.758934E-3
101.389503E-3
100.776672E-3
101.023293E-3
101.403809E-3
100.647926E-3
101.334572E-3
100.795555E-3
101.023293E-3
101.445580E-3
100.816154E-3
101.530838E-3
100.974083E-3
101.371765E-3
101.794624E-3
101.277351E-3
102.040100E-3
101.579475E-3
101.626968E-3
101.545143E-3
100.372124E-3
100.456238E-3
99.020004E-3
98.557663E-3
98.371696E-3
97.315979E-3
97.663307E-3
96.957207E-3
97.095680E-3
97.498512E-3
96.952629E-3
97.912216E-3
97.580338E-3
97.999191E-3
98.702431E-3
98.275566E-3
99.180794E-3
98.854065E-3
99.448586E-3
100.114632E-3
99.739838E-3
100.722885E-3
100.378418E-3
100.538063E-3
100.979805E-3
100.186157E-3
100.907707E-3
100.264549E-3
100.274849E-3
100.534058E-3
99.727821E-3
100.480843E-3
100.028801E-3
100.194168E-3
100.605011E-3
100.073433E-3
100.975227E-3
100.694275E-3
100.972366E-3
101.566887E-3
100.971794E-3
101.930237E-3
101.644707E-3
101.927948E-3
102.438354E-3
101.733971E-3
102.607155E-3
102.262688E-3
102.280426E-3
102.627182E-3
101.909065E-3
102.771950E-3
102.374840E-3
102.297020E-3
102.846909E-3
102.175140E-3
103.091812E-3
102.830887E-3
102.908707E-3
103.394508E-3
102.682114E-3
103.495216E-3
103.019142E-3
103.125572E-3
103.604507E-3
102.710152E-3
103.004837E-3
101.961136E-3
101.182365E-3
100.969505E-3
99.544144E-3
99.742126E-3
98.922157E-3
98.567390E-3
99.038887E-3
98.172569E-3
99.137878E-3
98.896980E-3
99.059486E-3
99.922371E-3
99.259758E-3
100.282288E-3
100.103188E-3
100.364685E-3
101.159477E-3
100.680542E-3
101.737404E-3
101.680183E-3
101.672173E-3
102.276421E-3
101.512527E-3
102.119064E-3
101.683617E-3
101.428413E-3
101.881599E-3
101.014137E-3
101.676178E-3
101.328278E-3
101.157188E-3
101.749420E-3
100.988388E-3
101.869583E-3
101.667023E-3
101.815796E-3
102.548218E-3
102.044106E-3
102.977943E-3
102.865219E-3
102.861786E-3
103.563881E-3
102.957344E-3
103.785896E-3
103.440285E-3
103.322983E-3
104.004478E-3
103.361320E-3
103.985596E-3
103.535843E-3
103.338432E-3
103.979874E-3
103.219414E-3
103.935814E-3
103.464317E-3
103.385925E-3
104.154396E-3
103.387070E-3
104.092598E-3
103.759003E-3
103.454018E-3
104.025078E-3
103.281784E-3
103.626823E-3
102.844048E-3
101.949692E-3
101.777458E-3
100.349236E-3
100.205612E-3
99.399948E-3
98.603439E-3
99.035454E-3
98.202324E-3
98.903275E-3
98.676682E-3
98.567963E-3
99.456024E-3
99.034882E-3
99.897766E-3
99.847412E-3
99.722099E-3
100.528908E-3
100.091171E-3
100.932312E-3
101.000977E-3
100.967216E-3
101.738548E-3
101.173210E-3
101.782608E-3
101.462746E-3
100.986099E-3
101.654434E-3
100.821304E-3
101.443291E-3
101.167488E-3
100.785828E-3
101.509666E-3
100.932312E-3
101.530838E-3
101.432991E-3
101.307106E-3
102.272987E-3
101.777458E-3
102.466393E-3
102.524757E-3
102.383423E-3
103.162766E-3
102.603722E-3
103.281212E-3
103.225136E-3
102.836609E-3
103.566742E-3
102.885246E-3
103.420830E-3
103.136444E-3
102.655220E-3
103.368759E-3
102.595139E-3
103.194809E-3
103.064919E-3
102.731323E-3
103.510094E-3
102.852631E-3
103.541565E-3
103.443146E-3
103.084946E-3
103.862000E-3
103.227997E-3
103.748131E-3
103.450012E-3
102.664375E-3
102.770805E-3
101.277351E-3
100.993538E-3
100.171852E-3
99.124718E-3
99.474335E-3
98.355675E-3
98.720169E-3
98.632622E-3
98.324203E-3
99.157333E-3
98.513031E-3
99.152184E-3
99.331856E-3
99.152756E-3
100.200462E-3
99.491501E-3
100.191307E-3
100.487137E-3
100.294876E-3
101.398087E-3
100.761795E-3
101.338005E-3
101.470757E-3
101.065063E-3
101.747131E-3
100.889397E-3
101.281929E-3
101.332283E-3
100.797844E-3
101.612091E-3
100.642776E-3
101.141167E-3
101.308250E-3
100.930023E-3
101.791191E-3
101.163483E-3
101.694489E-3
101.925659E-3
101.746559E-3
102.635193E-3
102.042961E-3
102.676392E-3
102.940750E-3
102.643776E-3
103.543282E-3
102.854347E-3
103.250885E-3
103.503799E-3
102.932167E-3
103.686905E-3
102.994537E-3
103.349304E-3
103.392792E-3
102.876663E-3
103.706360E-3
102.898979E-3
103.342438E-3
103.554153E-3
103.064346E-3
103.962135E-3
103.244591E-3
103.765297E-3
104.017639E-3
103.408813E-3
103.907204E-3
102.494431E-3
102.150536E-3
101.560593E-3
100.231934E-3
100.180435E-3
98.878670E-3
98.846626E-3
98.811722E-3
98.144531E-3
98.814011E-3
97.999191E-3
98.688126E-3
98.987961E-3
98.603439E-3
99.580765E-3
99.228859E-3
99.766159E-3
100.108910E-3
99.834251E-3
100.873947E-3
100.536346E-3
101.233864E-3
101.815796E-3
101.388931E-3
102.238083E-3
101.485062E-3
101.889038E-3
102.127647E-3
101.344872E-3
101.933098E-3
101.092529E-3
101.413536E-3
101.733398E-3
101.121712E-3
101.870728E-3
101.227570E-3
101.652145E-3
102.257538E-3
101.774025E-3
102.595711E-3
102.135658E-3
102.580261E-3
103.182220E-3
102.704430E-3
103.546715E-3
103.066635E-3
103.508377E-3
103.942108E-3
103.338432E-3
103.970146E-3
103.305817E-3
103.569031E-3
103.955841E-3
103.250313E-3
103.888321E-3
103.271484E-3
103.601074E-3
103.961563E-3
103.328705E-3
104.101753E-3
103.688049E-3
104.098320E-3
104.577827E-3
104.048538E-3
104.866791E-3
104.246521E-3
104.267120E-3
104.187012E-3
102.841187E-3
102.790833E-3
101.301956E-3
100.762367E-3
100.480843E-3
99.346733E-3
99.837685E-3
98.966789E-3
99.100113E-3
99.443436E-3
98.929596E-3
99.658585E-3
99.374771E-3
99.666023E-3
100.144386E-3
99.745560E-3
100.712585E-3
100.481987E-3
100.971794E-3
101.712227E-3
101.345444E-3
102.301598E-3
101.843834E-3
102.019501E-3
102.420044E-3
101.573753E-3
102.273560E-3
101.562309E-3
101.689911E-3
101.916504E-3
101.280785E-3
101.947403E-3
101.448441E-3
101.565170E-3
102.077293E-3
101.483345E-3
102.416611E-3
102.209473E-3
102.568817E-3
103.096390E-3
102.627182E-3
103.671455E-3
103.403664E-3
103.623962E-3
104.186440E-3
103.687477E-3
104.558945E-3
104.157829E-3
104.320908E-3
104.800987E-3
104.108620E-3
105.066490E-3
104.590988E-3
104.622459E-3
105.053329E-3
104.380989E-3
105.271339E-3
104.843330E-3
104.922295E-3
105.511665E-3
104.863358E-3
105.853271E-3
105.508804E-3
105.568314E-3
106.097031E-3
105.351448E-3
106.121635E-3
105.487061E-3
105.050468E-3
104.692841E-3
103.112984E-3
103.233147E-3
102.014923E-3
101.498795E-3
101.493073E-3
100.471687E-3
101.160622E-3
100.842476E-3
100.939178E-3
101.629829E-3
101.191521E-3
102.196312E-3
102.088737E-3
102.232361E-3
103.054619E-3
102.430916E-3
103.586197E-3
103.494644E-3
103.808212E-3
104.491997E-3
103.869438E-3
104.663658E-3
104.261971E-3
104.141235E-3
104.568100E-3
103.720665E-3
104.406738E-3
104.010773E-3
103.770447E-3
104.245949E-3
103.518105E-3
104.343796E-3
104.033661E-3
104.155540E-3
104.935455E-3
104.413033E-3
105.320549E-3
105.081367E-3
105.203819E-3
106.023216E-3
105.381775E-3
106.319046E-3
105.925941E-3
105.906487E-3
106.524467E-3
105.834961E-3
106.397438E-3
106.016350E-3
105.893898E-3
106.420898E-3
105.799484E-3
106.534767E-3
106.212616E-3
106.005478E-3
106.712723E-3
106.014061E-3
106.834602E-3
106.489563E-3
106.325912E-3
106.927872E-3
106.178856E-3
107.051468E-3
106.729317E-3
106.555939E-3
107.251167E-3
106.279564E-3
106.497002E-3
105.607796E-3
104.636192E-3
104.529190E-3
103.125572E-3
103.346443E-3
102.527046E-3
101.952553E-3
102.365112E-3
101.679611E-3
102.405167E-3
102.309036E-3
102.373123E-3
103.253174E-3
102.789688E-3
103.595352E-3
103.559875E-3
103.490067E-3
104.233932E-3
103.823090E-3
104.752922E-3
104.583549E-3
104.477692E-3
105.194092E-3
104.597855E-3
105.150032E-3
104.888535E-3
104.520607E-3
105.039024E-3
104.268265E-3
104.798126E-3
104.447365E-3
104.080582E-3
104.774094E-3
104.187584E-3
104.948044E-3
104.869080E-3
104.671669E-3
105.508804E-3
104.938889E-3
105.733681E-3
105.603790E-3
105.436134E-3
106.320190E-3
105.662155E-3
106.360245E-3
106.158257E-3
105.794334E-3
106.403160E-3
105.701065E-3
106.167984E-3
105.926514E-3
105.486488E-3
106.108475E-3
105.394363E-3
105.987167E-3
105.866432E-3
105.484200E-3
106.147385E-3
105.491638E-3
106.109619E-3
105.991173E-3
105.687904E-3
106.511879E-3
105.741119E-3
106.408310E-3
106.272697E-3
105.760574E-3
106.084442E-3
104.799271E-3
104.594994E-3
103.761292E-3
102.729034E-3
102.817726E-3
101.713371E-3
101.884460E-3
101.629257E-3
101.205826E-3
102.016640E-3
101.377487E-3
102.079010E-3
102.253532E-3
102.156258E-3
103.063774E-3
102.475548E-3
103.299522E-3
103.583908E-3
103.497505E-3
104.570961E-3
104.097748E-3
104.884529E-3
105.250740E-3
105.071640E-3
105.887032E-3
105.162048E-3
105.585480E-3
105.691910E-3
105.198669E-3
105.976868E-3
105.075645E-3
105.685043E-3
105.767441E-3
105.404091E-3
106.246376E-3
105.492210E-3
106.175995E-3
106.385422E-3
106.081009E-3
107.135010E-3
106.474113E-3
107.114410E-3
107.488632E-3
107.137871E-3
107.985306E-3
107.378197E-3
107.728958E-3
107.807350E-3
107.370186E-3
108.138657E-3
107.420540E-3
107.756996E-3
107.696915E-3
107.297516E-3
108.126068E-3
107.231140E-3
107.660866E-3
107.944679E-3
107.505226E-3
108.278275E-3
107.604790E-3
108.086586E-3
108.218765E-3
107.852554E-3
108.646774E-3
107.914925E-3
108.078575E-3
107.817650E-3
106.657219E-3
106.585121E-3
104.956627E-3
104.716301E-3
104.212761E-3
103.214836E-3
103.590202E-3
102.633476E-3
102.856064E-3
103.005409E-3
102.516747E-3
103.479195E-3
102.935028E-3
103.594208E-3
104.002762E-3
103.661156E-3
104.643059E-3
104.170418E-3
104.756927E-3
105.180931E-3
104.954338E-3
105.995178E-3
105.431557E-3
105.947113E-3
106.263542E-3
105.691910E-3
106.398582E-3
105.492210E-3
105.833244E-3
105.947685E-3
105.283928E-3
106.017494E-3
105.171204E-3
105.621529E-3
105.971718E-3
105.554008E-3
106.341934E-3
105.781746E-3
106.329918E-3
106.727600E-3
106.432915E-3
107.274055E-3
106.727028E-3
107.295799E-3
107.811356E-3
107.243156E-3
108.052826E-3
107.323837E-3
107.635689E-3
107.998466E-3
107.266045E-3
107.937813E-3
107.180786E-3
107.516098E-3
107.770157E-3
107.200241E-3
107.901764E-3
107.359886E-3
107.686043E-3
108.101463E-3
107.537270E-3
108.342934E-3
107.786179E-3
108.086014E-3
108.533478E-3
107.877731E-3
108.512878E-3
107.737541E-3
107.537270E-3
107.247734E-3
105.799484E-3
105.648422E-3
104.391861E-3
104.007912E-3
103.848267E-3
102.888107E-3
103.365326E-3
102.752495E-3
103.116417E-3
103.558731E-3
103.067780E-3
103.942680E-3
103.660583E-3
104.102898E-3
104.697990E-3
104.298019E-3
105.292511E-3
105.031586E-3
105.589485E-3
106.132507E-3
105.800056E-3
106.677246E-3
106.121635E-3
106.288719E-3
106.554222E-3
105.753708E-3
106.331635E-3
105.662155E-3
105.880737E-3
106.074715E-3
105.333710E-3
106.132507E-3
105.602074E-3
105.801201E-3
106.279564E-3
105.846977E-3
106.692696E-3
106.461525E-3
106.728745E-3
107.272911E-3
106.822586E-3
107.665443E-3
107.267189E-3
107.588196E-3
108.023643E-3
