Notes :


2023-11-04 ¿ÀÀü 12:19:56
Volts
Ch : LED 2,
208.768272E-3
208.696747E-3
208.771133E-3
208.507919E-3
208.800316E-3
208.276176E-3
208.445549E-3
208.447838E-3
208.095360E-3
208.017540E-3
207.303429E-3
206.964684E-3
206.532097E-3
206.236839E-3
206.197357E-3
205.822563E-3
205.794525E-3
206.107521E-3
205.906677E-3
206.150436E-3
205.775070E-3
205.939293E-3
206.139565E-3
205.990791E-3
206.098366E-3
205.873489E-3
206.068039E-3
206.295204E-3
206.307220E-3
206.648254E-3
206.699181E-3
206.877708E-3
207.441330E-3
207.489395E-3
207.932281E-3
207.730865E-3
208.013535E-3
208.381462E-3
208.356857E-3
208.771706E-3
208.633804E-3
209.170532E-3
209.466362E-3
209.498405E-3
210.008812E-3
209.913254E-3
210.218239E-3
210.707474E-3
210.771561E-3
211.207008E-3
210.801315E-3
211.105156E-3
211.657333E-3
211.503983E-3
211.847305E-3
211.681366E-3
211.820984E-3
212.015533E-3
211.796951E-3
212.040710E-3
211.759186E-3
211.743736E-3
211.953163E-3
211.771202E-3
211.920547E-3
211.824417E-3
211.673355E-3
212.075615E-3
211.857605E-3
211.980629E-3
211.688232E-3
211.598396E-3
211.852455E-3
211.655045E-3
212.004662E-3
211.807823E-3
211.918831E-3
212.048721E-3
211.645889E-3
211.585808E-3
211.136055E-3
210.635948E-3
210.512352E-3
209.870911E-3
209.667778E-3
209.183693E-3
208.928490E-3
209.264946E-3
208.820343E-3
209.080696E-3
208.970833E-3
209.029770E-3
209.386253E-3
209.107018E-3
209.168243E-3
208.997726E-3
208.986282E-3
209.126472E-3
208.957672E-3
209.097862E-3
209.275818E-3
209.413719E-3
209.929276E-3
209.876633E-3
210.119820E-3
210.109520E-3
210.101509E-3
210.326385E-3
210.130119E-3
210.195923E-3
209.963036E-3
209.970474E-3
210.031700E-3
209.840012E-3
210.112953E-3
210.171890E-3
210.026550E-3
210.296631E-3
210.076332E-3
210.262299E-3
210.089493E-3
210.043716E-3
210.256004E-3
210.004234E-3
210.291481E-3
210.089493E-3
210.198212E-3
210.385895E-3
210.070038E-3
210.178185E-3
210.205078E-3
210.116959E-3
210.441399E-3
210.158730E-3
210.350990E-3
210.314369E-3
210.271454E-3
210.549545E-3
210.190201E-3
210.503197E-3
210.405350E-3
210.343552E-3
210.653114E-3
210.322952E-3
210.436821E-3
210.418510E-3
210.356712E-3
210.534668E-3
210.527802E-3
210.685730E-3
210.778999E-3
210.630798E-3
210.750961E-3
210.238266E-3
210.185051E-3
209.789085E-3
209.064674E-3
208.787155E-3
208.026695E-3
208.025551E-3
207.526016E-3
207.275391E-3
207.318878E-3
207.011604E-3
207.245064E-3
207.342911E-3
207.096291E-3
207.337761E-3
207.180405E-3
207.368660E-3
207.493401E-3
207.318306E-3
207.782364E-3
207.835007E-3
208.313370E-3
208.348274E-3
208.299065E-3
208.642960E-3
208.451843E-3
208.762550E-3
208.749962E-3
208.660126E-3
208.784866E-3
208.722496E-3
208.812332E-3
208.939934E-3
208.622360E-3
208.987427E-3
208.843231E-3
209.113884E-3
209.174538E-3
208.798599E-3
209.004021E-3
208.622360E-3
209.023476E-3
208.947945E-3
208.810616E-3
209.145355E-3
208.780861E-3
209.032631E-3
209.223747E-3
209.040642E-3
209.419441E-3
209.188843E-3
209.286118E-3
209.541893E-3
209.372520E-3
209.621429E-3
209.228897E-3
209.560204E-3
209.563637E-3
209.465218E-3
209.820557E-3
209.583664E-3
209.901810E-3
209.946442E-3
209.868622E-3
210.178185E-3
209.874344E-3
210.047150E-3
210.214806E-3
210.029984E-3
210.258865E-3
209.819412E-3
209.965324E-3
210.032845E-3
209.642029E-3
209.829140E-3
209.257507E-3
209.326744E-3
208.970833E-3
208.429527E-3
208.301353E-3
207.612991E-3
207.308006E-3
207.064247E-3
206.660271E-3
206.763268E-3
206.388474E-3
206.613922E-3
206.702614E-3
206.595039E-3
206.899452E-3
206.659698E-3
206.798172E-3
207.037926E-3
206.976128E-3
207.475090E-3
207.294846E-3
207.711411E-3
207.827568E-3
207.763481E-3
208.039856E-3
207.890511E-3
208.026123E-3
208.068466E-3
207.911682E-3
208.076477E-3
207.832146E-3
207.838440E-3
207.980919E-3
207.685661E-3
207.899666E-3
207.659340E-3
207.835007E-3
207.888794E-3
207.732010E-3
207.974625E-3
207.519722E-3
207.989502E-3
207.967186E-3
207.808113E-3
208.152008E-3
207.851601E-3
207.915115E-3
208.085060E-3
208.049011E-3
208.197784E-3
207.971191E-3
208.069611E-3
208.270454E-3
208.290482E-3
208.646965E-3
208.245277E-3
208.423233E-3
208.528519E-3
208.396339E-3
208.665276E-3
208.182907E-3
208.397484E-3
208.553123E-3
208.335114E-3
208.631516E-3
208.235550E-3
208.369446E-3
208.455276E-3
208.236694E-3
208.451271E-3
208.033562E-3
207.996941E-3
208.016968E-3
207.480812E-3
207.441902E-3
206.579018E-3
206.205940E-3
206.015396E-3
205.430031E-3
205.435753E-3
204.975700E-3
205.086708E-3
205.122757E-3
205.064964E-3
205.392838E-3
205.164528E-3
205.269241E-3
205.685806E-3
205.645180E-3
206.070900E-3
205.745888E-3
206.143570E-3
206.514931E-3
206.451416E-3
206.831360E-3
206.531525E-3
206.735229E-3
206.926918E-3
206.922913E-3
207.290840E-3
206.889725E-3
207.060814E-3
207.211304E-3
207.020760E-3
207.135201E-3
207.033348E-3
207.040787E-3
207.322311E-3
207.270813E-3
207.679939E-3
207.407570E-3
207.551765E-3
207.808685E-3
207.678795E-3
207.925415E-3
207.522011E-3
207.636452E-3
207.766914E-3
207.603264E-3
207.749176E-3
207.345200E-3
207.340050E-3
207.682228E-3
207.285690E-3
207.391548E-3
207.116890E-3
207.131195E-3
207.472801E-3
207.188988E-3
207.377243E-3
207.142067E-3
207.221603E-3
207.570648E-3
207.273674E-3
207.579803E-3
207.273674E-3
207.311440E-3
207.522583E-3
207.298279E-3
207.499123E-3
207.270241E-3
207.128906E-3
207.354355E-3
206.799889E-3
206.622505E-3
206.059456E-3
205.592537E-3
205.285263E-3
204.561996E-3
204.517365E-3
203.989792E-3
203.977203E-3
204.094505E-3
203.803253E-3
203.903389E-3
203.681374E-3
203.730583E-3
204.128265E-3
203.965759E-3
204.272461E-3
204.200363E-3
204.357147E-3
204.829788E-3
204.683304E-3
204.887009E-3
204.809761E-3
204.891014E-3
205.103302E-3
204.994583E-3
205.198860E-3
205.145073E-3
204.976273E-3
205.185699E-3
204.965973E-3
205.043221E-3
205.083275E-3
204.911041E-3
205.178833E-3
204.891586E-3
205.141640E-3
204.903603E-3
204.933357E-3
205.206871E-3
204.959679E-3
205.097580E-3
205.058098E-3
204.972267E-3
205.184555E-3
205.209160E-3
205.373383E-3
205.389404E-3
205.343056E-3
205.571365E-3
205.301857E-3
205.444336E-3
205.380249E-3
205.453491E-3
205.696678E-3
205.508423E-3
205.772781E-3
205.699539E-3
205.673218E-3
205.872345E-3
205.590820E-3
205.716705E-3
205.658913E-3
205.589676E-3
205.914116E-3
205.657768E-3
205.791664E-3
205.823135E-3
205.602264E-3
205.801964E-3
205.384827E-3
205.364799E-3
204.933357E-3
204.619789E-3
204.452705E-3
203.776932E-3
203.655624E-3
203.350639E-3
203.056526E-3
203.239632E-3
202.925491E-3
203.114891E-3
203.119469E-3
202.953529E-3
203.277397E-3
203.137779E-3
203.514862E-3
203.616142E-3
203.639603E-3
204.046440E-3
204.060173E-3
204.585457E-3
204.624939E-3
204.608345E-3
204.961967E-3
204.643250E-3
204.986572E-3
204.912758E-3
204.721642E-3
205.023766E-3
204.818344E-3
205.045509E-3
205.130196E-3
204.927063E-3
205.296135E-3
205.030632E-3
205.298996E-3
205.242348E-3
205.114746E-3
205.282402E-3
205.175400E-3
205.412292E-3
205.462646E-3
205.450630E-3
205.678368E-3
205.616570E-3
205.966759E-3
206.147575E-3
205.989075E-3
206.421089E-3
206.312943E-3
206.540108E-3
206.659126E-3
206.484032E-3
206.932068E-3
206.771851E-3
207.144356E-3
207.129478E-3
207.148361E-3
207.491112E-3
207.295418E-3
207.436752E-3
207.473946E-3
207.395554E-3
207.650185E-3
207.452774E-3
207.608986E-3
207.778358E-3
207.538033E-3
207.616997E-3
207.225609E-3
207.208443E-3
206.912613E-3
206.317520E-3
206.317520E-3
205.636024E-3
205.568504E-3
205.229187E-3
205.119324E-3
205.307007E-3
204.995728E-3
205.372238E-3
205.319023E-3
205.165672E-3
205.613708E-3
205.511856E-3
205.763626E-3
206.058884E-3
205.975914E-3
206.504631E-3
206.359863E-3
206.809044E-3
206.744385E-3
206.605339E-3
206.933784E-3
206.712914E-3
207.000732E-3
206.959534E-3
206.934929E-3
207.170677E-3
206.937218E-3
207.085991E-3
207.262230E-3
206.902885E-3
207.079697E-3
206.718063E-3
207.041931E-3
207.119179E-3
206.933212E-3
207.307434E-3
207.035065E-3
207.469368E-3
207.407570E-3
207.299423E-3
207.524300E-3
207.250786E-3
207.441330E-3
207.555199E-3
207.383537E-3
207.734299E-3
207.511711E-3
207.521439E-3
207.799530E-3
207.503700E-3
207.938576E-3
207.793808E-3
208.083916E-3
208.130836E-3
207.978630E-3
208.175468E-3
207.807541E-3
208.020973E-3
207.923126E-3
207.836151E-3
208.006668E-3
207.758331E-3
207.779503E-3
207.804680E-3
207.340050E-3
207.150078E-3
206.451416E-3
206.252861E-3
205.840302E-3
205.343056E-3
205.325317E-3
204.694176E-3
205.000877E-3
204.945374E-3
204.883575E-3
205.113029E-3
204.968262E-3
205.205154E-3
205.376244E-3
205.334473E-3
205.836296E-3
205.806541E-3
205.984497E-3
206.295204E-3
206.328392E-3
206.695175E-3
206.371880E-3
206.601906E-3
206.623077E-3
206.613350E-3
206.741524E-3
206.343269E-3
206.562996E-3
206.567001E-3
206.473160E-3
206.703186E-3
206.331825E-3
206.457710E-3
206.640244E-3
206.402206E-3
206.736374E-3
206.419373E-3
206.591606E-3
206.818771E-3
206.722069E-3
206.930351E-3
206.517220E-3
206.767273E-3
206.835937E-3
206.759834E-3
207.150078E-3
206.796455E-3
207.127190E-3
207.180977E-3
207.253647E-3
207.507706E-3
207.168961E-3
207.382965E-3
207.588387E-3
207.378960E-3
207.641602E-3
207.260513E-3
207.322311E-3
207.758904E-3
207.417297E-3
207.626724E-3
207.210732E-3
207.508278E-3
207.432747E-3
207.148933E-3
207.058525E-3
206.397057E-3
206.191063E-3
205.918694E-3
205.318451E-3
205.150795E-3
204.586029E-3
204.287910E-3
204.365158E-3
204.140854E-3
204.335976E-3
203.938293E-3
204.078484E-3
204.325676E-3
204.163742E-3
204.481316E-3
204.194641E-3
204.366875E-3
204.645538E-3
204.789734E-3
205.176544E-3
205.059814E-3
205.213165E-3
205.499268E-3
205.268669E-3
205.570221E-3
205.315590E-3
205.334473E-3
205.676651E-3
205.510139E-3
205.689812E-3
205.367088E-3
205.439758E-3
205.593109E-3
205.377960E-3
205.646896E-3
205.311012E-3
205.453491E-3
205.716133E-3
205.596542E-3
205.873489E-3
205.675507E-3
205.685806E-3
205.966759E-3
205.703545E-3
205.915260E-3
205.653191E-3
205.685806E-3
206.078339E-3
205.835724E-3
206.142998E-3
205.840302E-3
205.953598E-3
206.251144E-3
206.097221E-3
206.297493E-3
206.319809E-3
206.343269E-3
206.578445E-3
206.316376E-3
206.585884E-3
206.409073E-3
206.399918E-3
206.704330E-3
206.385040E-3
206.541252E-3
206.195641E-3
206.081200E-3
205.926704E-3
205.385971E-3
205.151367E-3
204.632378E-3
204.179764E-3
204.139137E-3
203.603554E-3
203.584671E-3
203.305435E-3
203.248215E-3
203.489113E-3
203.272247E-3
203.493690E-3
203.368378E-3
203.446770E-3
203.761482E-3
203.619003E-3
203.871918E-3
203.996086E-3
204.168892E-3
204.605484E-3
204.446983E-3
204.690170E-3
204.745674E-3
204.695892E-3
205.024338E-3
204.758835E-3
204.904175E-3
204.753113E-3
204.882431E-3
205.091858E-3
204.871559E-3
205.044937E-3
204.981422E-3
204.929924E-3
205.111885E-3
204.956818E-3
205.098152E-3
205.228615E-3
205.134201E-3
205.380821E-3
205.313873E-3
205.500412E-3
205.571938E-3
205.596542E-3
205.807114E-3
205.696106E-3
205.947304E-3
205.831718E-3
205.854034E-3
205.938721E-3
205.840302E-3
206.048584E-3
206.134415E-3
205.971909E-3
206.262016E-3
206.066322E-3
206.279755E-3
206.229401E-3
206.236839E-3
206.533241E-3
206.477737E-3
206.846237E-3
206.800461E-3
206.694603E-3
206.959534E-3
206.609917E-3
206.698036E-3
206.370163E-3
206.019974E-3
205.941010E-3
205.428886E-3
205.304146E-3
204.947662E-3
204.444122E-3
204.536247E-3
204.077339E-3
204.246712E-3
204.126549E-3
204.047012E-3
204.227829E-3
204.189491E-3
204.390335E-3
204.523087E-3
204.481888E-3
204.938507E-3
204.921913E-3
205.416870E-3
205.534172E-3
205.604553E-3
206.007957E-3
205.900955E-3
206.154442E-3
206.074905E-3
206.078911E-3
206.229973E-3
206.057167E-3
206.381035E-3
206.373024E-3
206.316376E-3
206.600761E-3
206.287766E-3
206.539536E-3
206.589890E-3
206.326675E-3
206.674004E-3
206.409645E-3
206.716919E-3
206.798744E-3
206.658554E-3
206.863403E-3
206.878853E-3
207.052803E-3
207.094002E-3
207.044220E-3
207.299995E-3
207.148933E-3
207.271957E-3
207.409859E-3
207.288551E-3
207.525444E-3
207.326317E-3
207.568359E-3
207.632446E-3
207.569504E-3
207.857895E-3
207.698822E-3
208.012390E-3
207.924843E-3
207.828140E-3
208.011818E-3
207.754898E-3
207.853889E-3
207.875633E-3
207.677078E-3
207.987213E-3
207.509995E-3
207.645607E-3
207.449341E-3
206.801033E-3
206.793594E-3
205.970192E-3
205.887794E-3
205.258369E-3
204.925346E-3
205.062675E-3
204.699326E-3
205.035210E-3
205.101013E-3
204.881287E-3
205.280113E-3
204.988861E-3
205.185699E-3
205.510712E-3
205.407143E-3
205.926132E-3
205.855751E-3
206.287766E-3
206.395912E-3
206.506348E-3
206.734657E-3
206.420517E-3
206.643105E-3
206.665421E-3
206.469154E-3
206.841660E-3
206.522942E-3
206.731796E-3
206.916046E-3
206.468010E-3
206.801605E-3
206.566429E-3
206.802750E-3
206.791878E-3
206.639099E-3
207.016182E-3
206.754684E-3
206.909180E-3
206.992149E-3
206.846809E-3
207.109451E-3
206.830788E-3
206.987572E-3
207.167244E-3
206.951523E-3
207.327461E-3
207.173538E-3
207.505989E-3
207.484818E-3
207.388115E-3
207.644463E-3
207.379532E-3
207.685661E-3
207.622147E-3
207.581520E-3
207.817268E-3
207.637024E-3
207.782936E-3
207.938576E-3
207.765770E-3
207.981491E-3
207.581520E-3
207.672501E-3
207.601547E-3
207.328033E-3
207.372093E-3
206.831360E-3
206.748390E-3
206.379318E-3
206.067467E-3
205.760193E-3
205.032921E-3
204.874992E-3
204.730797E-3
204.360008E-3
204.441833E-3
204.079056E-3
204.289055E-3
204.335976E-3
204.285622E-3
204.704475E-3
204.496765E-3
205.000305E-3
205.229759E-3
205.431747E-3
205.831718E-3
205.761909E-3
206.040573E-3
206.387901E-3
206.282043E-3
206.617355E-3
206.189346E-3
206.395340E-3
206.510353E-3
206.286049E-3
206.570435E-3
206.138420E-3
206.469154E-3
206.509781E-3
206.352997E-3
206.710052E-3
206.334114E-3
206.484032E-3
206.623077E-3
206.490898E-3
206.848526E-3
206.506920E-3
206.653976E-3
206.903458E-3
206.694603E-3
206.988144E-3
206.537247E-3
206.732368E-3
206.929779E-3
206.883430E-3
207.154083E-3
206.814194E-3
206.938362E-3
207.186127E-3
206.980705E-3
207.269669E-3
206.975555E-3
207.080269E-3
207.337761E-3
207.283401E-3
207.536888E-3
207.031059E-3
207.202721E-3
207.405281E-3
207.314873E-3
207.591820E-3
207.036209E-3
207.191849E-3
207.385254E-3
207.198143E-3
207.314301E-3
206.681442E-3
206.402206E-3
206.265450E-3
205.625153E-3
205.381393E-3
204.588318E-3
204.528236E-3
204.427528E-3
203.964615E-3
204.195213E-3
203.667068E-3
203.655624E-3
203.870773E-3
203.677940E-3
204.006958E-3
203.844452E-3
203.819847E-3
204.289055E-3
204.225540E-3
204.574585E-3
204.559135E-3
204.723358E-3
205.181694E-3
205.014038E-3
205.371666E-3
205.133629E-3
205.294418E-3
205.595398E-3
205.314445E-3
205.460930E-3
205.236053E-3
205.248070E-3
205.350494E-3
205.181694E-3
205.305862E-3
205.189705E-3
