Notes :


2023-10-30 ¿ÀÈÄ 11:42:27
Volts
Ch : LED 2,
139.013672E-3
137.017250E-3
136.750603E-3
134.941292E-3
134.997368E-3
135.419083E-3
134.899521E-3
136.370087E-3
136.077690E-3
136.961746E-3
137.999153E-3
137.845230E-3
139.467430E-3
138.920975E-3
139.948654E-3
140.568352E-3
140.340614E-3
142.074394E-3
141.993141E-3
143.022537E-3
143.934631E-3
143.618774E-3
145.283890E-3
144.420433E-3
145.033836E-3
145.377731E-3
144.366074E-3
145.184898E-3
143.942642E-3
144.062233E-3
144.346619E-3
143.486023E-3
144.722557E-3
144.391251E-3
145.638657E-3
146.999359E-3
146.861458E-3
148.689651E-3
148.229599E-3
148.896217E-3
149.560547E-3
148.650169E-3
149.725914E-3
148.619843E-3
148.944283E-3
149.498177E-3
148.447609E-3
149.390030E-3
148.352051E-3
148.618126E-3
148.933983E-3
148.268509E-3
149.509048E-3
148.808670E-3
149.354553E-3
149.850655E-3
149.215508E-3
150.402260E-3
150.004578E-3
150.720978E-3
151.576996E-3
151.158714E-3
152.800369E-3
151.939201E-3
151.725769E-3
150.999641E-3
148.472214E-3
147.552109E-3
144.586945E-3
143.122673E-3
142.165375E-3
140.310860E-3
140.816689E-3
140.219879E-3
140.888786E-3
141.875839E-3
141.487312E-3
142.761612E-3
142.527008E-3
143.361282E-3
144.315147E-3
143.661118E-3
144.897652E-3
144.828987E-3
146.001434E-3
147.350121E-3
147.268295E-3
149.056435E-3
148.770332E-3
149.300194E-3
149.890709E-3
149.157143E-3
149.950218E-3
148.879623E-3
148.844147E-3
148.848152E-3
147.556114E-3
148.307419E-3
147.546959E-3
148.144913E-3
149.154282E-3
148.943138E-3
150.429153E-3
150.437737E-3
151.482010E-3
152.566338E-3
152.162933E-3
153.562546E-3
153.380013E-3
153.917313E-3
154.534721E-3
153.671265E-3
154.475212E-3
153.735352E-3
153.720474E-3
153.778839E-3
152.458763E-3
153.009796E-3
152.249908E-3
152.609253E-3
153.324509E-3
152.594376E-3
153.783989E-3
153.452110E-3
153.826904E-3
154.662895E-3
153.981400E-3
154.987907E-3
154.741859E-3
155.288887E-3
156.035614E-3
154.973602E-3
155.006790E-3
153.048706E-3
151.433945E-3
150.129890E-3
147.336960E-3
146.615410E-3
144.834709E-3
144.233322E-3
144.567490E-3
143.427658E-3
144.191551E-3
143.851089E-3
144.448471E-3
145.408630E-3
145.109367E-3
146.604538E-3
146.366501E-3
147.014809E-3
148.194695E-3
148.044205E-3
149.790573E-3
150.169373E-3
151.179886E-3
152.211571E-3
151.664543E-3
152.548599E-3
151.990128E-3
152.029610E-3
152.631569E-3
151.500320E-3
152.236748E-3
151.468849E-3
151.602173E-3
152.423286E-3
151.910591E-3
153.501892E-3
153.381157E-3
154.171371E-3
155.001068E-3
154.513550E-3
155.981255E-3
155.749512E-3
156.427002E-3
157.312775E-3
156.725693E-3
158.142471E-3
157.914162E-3
158.182526E-3
159.175301E-3
158.366776E-3
159.483147E-3
158.965874E-3
159.075737E-3
159.790421E-3
158.723831E-3
159.943771E-3
159.324646E-3
159.387016E-3
160.146332E-3
159.466553E-3
160.694504E-3
160.337448E-3
160.605240E-3
161.178017E-3
160.412979E-3
161.719322E-3
161.085892E-3
160.576630E-3
159.855652E-3
157.188034E-3
156.464195E-3
153.947639E-3
152.062798E-3
151.265717E-3
149.106789E-3
149.609184E-3
148.817253E-3
148.731995E-3
149.602890E-3
149.082184E-3
150.750732E-3
150.682640E-3
151.362419E-3
152.592087E-3
152.128029E-3
154.100990E-3
154.286957E-3
154.918098E-3
156.250763E-3
155.558968E-3
157.008934E-3
156.714249E-3
156.500816E-3
156.911659E-3
155.659676E-3
156.626701E-3
156.041336E-3
156.114006E-3
156.844139E-3
155.983543E-3
157.122803E-3
156.814957E-3
156.750298E-3
157.629776E-3
157.092476E-3
158.649445E-3
158.589363E-3
158.818817E-3
159.642792E-3
158.768463E-3
160.357475E-3
159.958649E-3
160.030174E-3
161.095619E-3
160.086250E-3
161.164856E-3
160.856438E-3
160.601234E-3
161.220360E-3
160.279083E-3
161.220360E-3
160.715675E-3
160.509682E-3
161.347961E-3
160.499382E-3
161.970520E-3
161.937904E-3
161.848068E-3
162.802505E-3
161.875534E-3
162.947273E-3
162.543297E-3
162.626266E-3
163.360405E-3
161.693001E-3
161.670113E-3
159.634209E-3
157.387733E-3
156.044197E-3
153.195190E-3
152.869606E-3
151.430511E-3
150.756454E-3
151.322937E-3
150.164795E-3
151.417923E-3
151.200485E-3
151.196480E-3
152.475929E-3
152.119446E-3
153.642082E-3
153.704453E-3
154.039192E-3
155.544662E-3
155.212784E-3
156.951141E-3
157.296181E-3
157.308769E-3
158.432007E-3
157.151413E-3
157.830048E-3
157.130241E-3
156.307983E-3
156.754303E-3
155.541801E-3
156.495667E-3
156.040192E-3
155.962372E-3
157.276154E-3
156.772614E-3
158.359909E-3
158.605385E-3
158.837700E-3
160.352898E-3
159.907150E-3
161.294174E-3
161.127090E-3
161.085892E-3
162.097549E-3
161.098480E-3
162.047195E-3
161.643219E-3
160.941124E-3
161.773109E-3
160.632706E-3
161.556244E-3
161.072159E-3
160.603523E-3
161.409187E-3
160.403824E-3
161.556816E-3
161.439514E-3
161.347389E-3
162.664032E-3
162.272644E-3
163.478851E-3
163.146973E-3
163.184166E-3
164.481926E-3
163.722610E-3
164.335442E-3
163.154984E-3
161.357689E-3
160.183525E-3
156.944275E-3
155.662537E-3
153.532219E-3
152.117157E-3
152.252769E-3
150.961876E-3
151.675987E-3
151.500320E-3
151.517487E-3
152.807236E-3
152.312279E-3
153.725052E-3
153.859520E-3
153.575706E-3
155.022812E-3
154.503822E-3
155.964661E-3
156.468773E-3
156.958008E-3
158.798790E-3
158.323860E-3
159.362984E-3
158.995056E-3
158.417130E-3
159.001350E-3
157.718468E-3
158.094978E-3
157.513618E-3
156.965446E-3
157.767105E-3
156.972885E-3
157.955933E-3
157.983971E-3
157.983971E-3
159.425926E-3
158.799934E-3
160.054779E-3
159.990120E-3
159.869957E-3
161.309624E-3
160.783195E-3
161.817169E-3
161.925316E-3
161.537361E-3
162.602806E-3
161.852074E-3
162.680626E-3
162.274361E-3
161.487579E-3
162.141037E-3
160.922241E-3
161.434937E-3
161.316490E-3
160.796928E-3
161.936760E-3
161.095619E-3
161.965370E-3
162.212563E-3
161.807442E-3
162.954140E-3
162.409973E-3
163.344955E-3
163.358116E-3
162.847710E-3
163.002205E-3
160.960579E-3
159.964943E-3
157.638359E-3
154.816246E-3
154.162788E-3
151.844215E-3
151.586723E-3
150.828552E-3
150.008583E-3
151.049423E-3
150.410843E-3
151.557541E-3
151.949501E-3
151.749802E-3
153.219795E-3
152.885056E-3
153.828049E-3
154.156494E-3
154.332733E-3
156.195831E-3
156.196976E-3
157.670975E-3
158.181381E-3
157.859802E-3
158.960724E-3
157.820892E-3
158.173943E-3
157.778549E-3
156.930542E-3
157.659531E-3
156.416702E-3
157.000351E-3
156.919670E-3
156.421852E-3
157.818604E-3
157.355118E-3
158.735847E-3
159.313774E-3
159.301186E-3
160.820389E-3
160.292816E-3
161.358261E-3
161.466980E-3
161.342239E-3
162.522697E-3
161.764526E-3
162.594795E-3
162.895203E-3
162.264633E-3
163.531494E-3
162.464905E-3
163.093185E-3
163.005066E-3
162.432861E-3
163.586426E-3
162.457466E-3
163.335228E-3
163.577843E-3
163.238525E-3
164.600372E-3
163.856506E-3
164.709663E-3
165.069580E-3
164.660454E-3
166.095543E-3
165.441513E-3
166.161346E-3
165.825462E-3
164.208984E-3
163.872528E-3
160.969734E-3
159.443665E-3
157.604027E-3
155.648232E-3
155.752945E-3
153.797722E-3
153.913307E-3
153.890991E-3
153.371429E-3
154.593086E-3
153.716469E-3
154.745865E-3
155.461121E-3
155.379868E-3
156.924248E-3
156.298256E-3
157.446098E-3
158.413124E-3
158.621979E-3
160.556602E-3
160.227013E-3
161.365128E-3
161.871529E-3
161.501884E-3
162.522125E-3
161.329651E-3
161.615181E-3
161.533356E-3
160.715675E-3
161.784554E-3
160.712814E-3
161.491585E-3
162.086105E-3
161.842918E-3
163.363266E-3
162.896919E-3
164.076805E-3
164.962006E-3
164.706802E-3
166.283226E-3
165.738487E-3
166.855431E-3
167.500305E-3
167.170715E-3
168.202972E-3
167.284012E-3
167.576981E-3
167.786407E-3
167.307472E-3
168.549728E-3
167.756081E-3
168.408966E-3
168.875885E-3
168.480492E-3
169.843483E-3
169.167709E-3
169.529915E-3
170.066071E-3
169.643784E-3
170.875740E-3
169.833755E-3
170.537567E-3
171.170998E-3
170.750999E-3
172.283363E-3
171.062279E-3
170.886040E-3
169.762802E-3
167.333794E-3
166.355324E-3
163.154411E-3
161.655235E-3
160.756874E-3
158.893204E-3
159.588432E-3
158.555603E-3
159.185028E-3
159.884834E-3
159.732056E-3
161.406898E-3
160.892487E-3
161.966515E-3
162.820244E-3
162.229729E-3
163.942337E-3
163.799858E-3
165.097618E-3
166.305542E-3
165.956497E-3
167.357826E-3
166.302681E-3
166.718102E-3
166.932106E-3
165.809441E-3
166.569328E-3
165.337372E-3
165.412331E-3
165.848351E-3
165.042114E-3
166.312408E-3
165.679550E-3
166.429710E-3
167.338943E-3
166.814232E-3
168.370056E-3
167.852211E-3
168.554306E-3
169.374275E-3
168.706512E-3
169.853210E-3
169.126511E-3
169.599152E-3
170.215988E-3
169.268417E-3
170.306969E-3
169.521332E-3
169.925880E-3
170.524406E-3
169.558525E-3
170.700645E-3
170.013428E-3
170.522118E-3
171.248817E-3
170.523262E-3
171.722603E-3
171.028519E-3
171.620750E-3
172.084236E-3
171.422768E-3
172.665596E-3
171.905708E-3
172.631264E-3
173.383713E-3
172.385788E-3
172.756004E-3
170.895767E-3
169.488144E-3
168.067360E-3
164.992905E-3
164.175797E-3
161.730766E-3
161.294746E-3
160.981178E-3
159.831047E-3
160.891914E-3
160.182953E-3
160.812378E-3
161.829758E-3
161.203766E-3
162.376785E-3
162.161064E-3
162.715530E-3
163.682556E-3
163.456535E-3
165.201759E-3
165.170288E-3
166.327858E-3
167.283440E-3
166.777611E-3
167.632484E-3
166.965294E-3
167.260551E-3
167.570114E-3
166.507530E-3
167.342377E-3
166.594505E-3
167.082596E-3
167.627907E-3
166.968155E-3
168.065643E-3
167.758942E-3
168.489075E-3
169.516754E-3
169.242668E-3
170.656586E-3
170.321846E-3
171.018791E-3
172.113991E-3
171.516037E-3
172.748566E-3
172.416687E-3
172.905350E-3
173.454094E-3
172.546005E-3
173.256683E-3
172.465897E-3
172.557449E-3
172.876167E-3
172.010422E-3
172.824669E-3
172.305679E-3
172.711945E-3
173.445511E-3
172.822952E-3
174.022865E-3
173.704720E-3
174.270058E-3
174.997902E-3
174.467468E-3
175.566101E-3
175.037956E-3
175.186729E-3
174.880028E-3
172.735405E-3
171.932602E-3
169.178581E-3
167.507744E-3
166.105270E-3
163.688850E-3
163.448524E-3
162.063217E-3
162.023163E-3
162.583923E-3
161.920738E-3
163.282585E-3
163.156700E-3
163.829613E-3
164.931107E-3
164.400673E-3
165.653229E-3
165.549088E-3
166.546440E-3
167.991257E-3
167.990112E-3
169.665527E-3
169.679260E-3
170.360756E-3
171.013069E-3
170.043182E-3
170.816231E-3
169.813156E-3
169.666100E-3
169.819450E-3
168.661308E-3
169.421196E-3
168.869019E-3
168.916512E-3
169.678116E-3
168.987465E-3
170.442009E-3
170.232010E-3
170.710373E-3
171.813583E-3
171.457100E-3
173.043823E-3
172.816086E-3
173.493004E-3
174.458885E-3
173.602867E-3
174.948692E-3
174.306107E-3
174.610519E-3
175.070572E-3
174.242020E-3
175.023079E-3
174.308395E-3
174.118996E-3
174.596786E-3
173.682976E-3
174.777603E-3
174.152756E-3
174.394226E-3
175.186729E-3
174.480629E-3
175.942039E-3
175.621605E-3
175.983238E-3
176.835251E-3
176.192665E-3
177.323341E-3
176.384926E-3
175.326347E-3
174.337006E-3
171.685410E-3
170.891762E-3
168.729973E-3
167.086029E-3
166.539574E-3
164.677620E-3
165.060425E-3
164.273071E-3
164.139748E-3
165.000343E-3
164.251900E-3
165.747643E-3
165.680122E-3
166.053200E-3
167.071152E-3
166.478348E-3
168.334007E-3
168.595505E-3
169.476128E-3
170.922089E-3
170.550156E-3
172.168350E-3
171.785545E-3
171.727180E-3
172.113419E-3
170.682335E-3
171.263695E-3
170.517540E-3
169.817734E-3
170.224571E-3
169.295883E-3
170.309830E-3
169.912148E-3
169.982529E-3
171.035385E-3
170.294952E-3
171.827888E-3
171.880531E-3
172.022438E-3
173.093033E-3
172.695923E-3
174.219704E-3
174.061775E-3
174.239159E-3
174.984741E-3
173.798561E-3
175.040245E-3
174.405670E-3
174.036026E-3
174.644852E-3
173.602867E-3
174.609947E-3
174.089813E-3
173.922157E-3
174.732399E-3
173.937035E-3
175.168419E-3
174.905777E-3
175.091171E-3
176.079941E-3
175.235367E-3
176.577759E-3
176.413536E-3
176.366043E-3
177.492142E-3
176.703644E-3
177.614594E-3
176.435852E-3
174.831963E-3
173.709869E-3
170.792198E-3
170.053482E-3
167.920876E-3
166.223717E-3
165.986824E-3
164.326859E-3
165.100479E-3
164.349747E-3
164.388084E-3
165.477562E-3
164.958000E-3
166.607666E-3
166.781044E-3
167.045975E-3
168.533707E-3
168.183517E-3
170.083809E-3
170.479774E-3
171.002769E-3
172.575760E-3
171.938896E-3
173.387718E-3
173.047256E-3
172.578621E-3
173.067856E-3
171.821594E-3
172.393799E-3
171.834183E-3
171.244812E-3
172.104263E-3
171.131516E-3
172.430420E-3
172.254181E-3
172.559738E-3
174.014282E-3
173.569107E-3
175.071144E-3
175.231934E-3
175.296593E-3
176.721954E-3
176.107979E-3
177.399445E-3
177.222061E-3
177.249527E-3
178.200531E-3
177.303886E-3
178.252029E-3
177.876091E-3
177.408600E-3
178.136444E-3
177.077866E-3
178.029442E-3
177.674675E-3
177.386856E-3
178.497505E-3
177.623177E-3
178.708076E-3
178.654861E-3
178.597641E-3
179.694557E-3
178.876877E-3
180.010414E-3
179.952049E-3
179.644203E-3
180.769157E-3
179.347801E-3
179.343796E-3
177.507591E-3
175.145531E-3
174.047470E-3
171.221924E-3
170.510674E-3
168.962288E-3
167.764664E-3
168.330574E-3
167.245674E-3
168.332291E-3
168.355751E-3
168.482208E-3
169.898415E-3
169.485855E-3
171.001053E-3
171.059990E-3
171.188736E-3
172.707367E-3
172.550583E-3
174.070930E-3
174.201393E-3
174.235153E-3
175.333786E-3
174.240875E-3
174.977875E-3
174.324989E-3
173.553658E-3
174.278069E-3
173.076439E-3
173.658371E-3
173.331642E-3
172.941971E-3
174.062347E-3
173.562241E-3
174.751854E-3
174.890900E-3
175.044823E-3
176.452446E-3
176.125145E-3
177.263832E-3
177.158546E-3
176.891327E-3
178.076935E-3
177.198601E-3
178.111267E-3
177.913857E-3
177.481842E-3
178.272629E-3
177.392006E-3
177.809143E-3
177.574539E-3
176.839256E-3
177.691269E-3
176.762009E-3
177.564240E-3
177.393723E-3
177.069855E-3
178.047752E-3
177.407455E-3
178.449440E-3
178.470612E-3
178.219986E-3
179.237366E-3
178.750992E-3
179.644203E-3
179.598999E-3
178.800774E-3
179.021072E-3
176.844978E-3
175.705147E-3
173.441505E-3
171.057129E-3
170.352173E-3
168.127441E-3
168.094826E-3
167.286301E-3
166.514397E-3
167.490005E-3
166.926956E-3
168.098831E-3
168.452454E-3
168.398666E-3
169.812012E-3
169.385719E-3
170.512390E-3
170.809364E-3
171.076584E-3
172.653008E-3
172.586632E-3
173.742485E-3
173.748779E-3
173.209763E-3
174.039459E-3
172.952843E-3
173.417473E-3
172.985458E-3
172.169495E-3
172.816658E-3
171.946335E-3
172.434998E-3
172.309113E-3
171.962929E-3
173.451233E-3
172.879601E-3
173.974228E-3
174.296379E-3
174.090385E-3
175.427055E-3
174.770164E-3
175.812149E-3
175.944901E-3
175.686836E-3
176.961136E-3
176.252174E-3
177.168274E-3
177.294159E-3
176.838684E-3
177.803421E-3
176.673317E-3
177.395439E-3
177.116776E-3
176.517105E-3
177.424049E-3
176.398087E-3
177.149391E-3
177.260971E-3
176.867867E-3
178.336143E-3
177.652359E-3
178.668594E-3
178.867722E-3
178.758430E-3
180.190086E-3
179.502869E-3
180.035591E-3
179.222488E-3
177.330780E-3
176.770592E-3
173.674393E-3
172.413826E-3
170.356750E-3
168.196678E-3
168.148613E-3
