Notes :


2023-10-30 ¿ÀÈÄ 11:48:35
Volts
Ch : LED 2,
289.011383E-3
288.261795E-3
288.804245E-3
288.751602E-3
289.099503E-3
290.580940E-3
290.770912E-3
292.166519E-3
292.682076E-3
292.838287E-3
294.013023E-3
293.524361E-3
294.233322E-3
293.874550E-3
293.506050E-3
294.349480E-3
293.974686E-3
294.826126E-3
294.802666E-3
294.979477E-3
296.294975E-3
295.526505E-3
294.851875E-3
292.168808E-3
288.525009E-3
285.327530E-3
280.658913E-3
277.867126E-3
274.833298E-3
272.357941E-3
271.551132E-3
269.957542E-3
270.088577E-3
269.730377E-3
269.516945E-3
270.615005E-3
270.716858E-3
272.492409E-3
273.549271E-3
274.439049E-3
276.702690E-3
277.796173E-3
280.551338E-3
282.574654E-3
284.609413E-3
287.073898E-3
287.835503E-3
289.309502E-3
289.314079E-3
288.979340E-3
289.430809E-3
288.153648E-3
288.229179E-3
287.521935E-3
286.919403E-3
287.604332E-3
287.183762E-3
288.527870E-3
289.321518E-3
290.169525E-3
291.987991E-3
292.310143E-3
293.787575E-3
294.427872E-3
294.879341E-3
296.143913E-3
295.836067E-3
296.700668E-3
296.680069E-3
296.417999E-3
297.063446E-3
296.043777E-3
296.455193E-3
296.169662E-3
295.899582E-3
296.818542E-3
296.479797E-3
297.643661E-3
298.088837E-3
298.270226E-3
299.656677E-3
299.487877E-3
300.537872E-3
300.731850E-3
300.688362E-3
301.857376E-3
301.678848E-3
302.556610E-3
301.918602E-3
299.697304E-3
297.550964E-3
293.528938E-3
290.570641E-3
286.722565E-3
283.195496E-3
281.473732E-3
279.048157E-3
278.512573E-3
277.674866E-3
276.928139E-3
277.642250E-3
277.214241E-3
278.116035E-3
278.356934E-3
278.385544E-3
279.713631E-3
279.747391E-3
281.507492E-3
283.049011E-3
284.759331E-3
287.676430E-3
288.858032E-3
290.867043E-3
291.244698E-3
290.857315E-3
291.353416E-3
289.976692E-3
289.748955E-3
288.864899E-3
288.082695E-3
288.802528E-3
288.331604E-3
289.914894E-3
290.931702E-3
291.948509E-3
294.110298E-3
294.393539E-3
295.849228E-3
296.601677E-3
297.106361E-3
298.814392E-3
298.749161E-3
299.909019E-3
300.060081E-3
299.798584E-3
300.972176E-3
300.280952E-3
300.942421E-3
300.903511E-3
300.368500E-3
301.052284E-3
299.938774E-3
300.310707E-3
300.119591E-3
299.785995E-3
300.799942E-3
300.276947E-3
301.218796E-3
301.640511E-3
301.434517E-3
302.700806E-3
302.045631E-3
302.714539E-3
302.846146E-3
302.783203E-3
303.717613E-3
302.681351E-3
301.922607E-3
299.299622E-3
295.539093E-3
292.428589E-3
287.543678E-3
284.626007E-3
281.764984E-3
279.378319E-3
278.917122E-3
277.253723E-3
277.779007E-3
277.966118E-3
278.158951E-3
279.938507E-3
280.336761E-3
282.089996E-3
283.013535E-3
283.653831E-3
285.970116E-3
286.841583E-3
289.273453E-3
290.972328E-3
292.074966E-3
293.897438E-3
293.568993E-3
294.348335E-3
294.310570E-3
293.805313E-3
294.367218E-3
293.276596E-3
293.623352E-3
293.542099E-3
293.226242E-3
294.185829E-3
293.591881E-3
294.668198E-3
295.277023E-3
295.601463E-3
297.096634E-3
296.848869E-3
298.103142E-3
298.841858E-3
299.100494E-3
300.703812E-3
300.432014E-3
301.530075E-3
302.176666E-3
302.065659E-3
303.131104E-3
302.208710E-3
302.705383E-3
302.541733E-3
302.066803E-3
302.706528E-3
301.857948E-3
302.303123E-3
302.478218E-3
302.194405E-3
303.537369E-3
302.942276E-3
303.769112E-3
304.423141E-3
304.511261E-3
305.798149E-3
305.358124E-3
306.340027E-3
306.917953E-3
306.891060E-3
307.340240E-3
305.087471E-3
302.875900E-3
299.522209E-3
295.217514E-3
292.381668E-3
288.257790E-3
286.129761E-3
284.510422E-3
283.031845E-3
283.468437E-3
282.733154E-3
283.566284E-3
284.457779E-3
284.699249E-3
286.415863E-3
286.261940E-3
287.371445E-3
288.121033E-3
288.586235E-3
291.224670E-3
292.342758E-3
294.648743E-3
296.369934E-3
296.783066E-3
298.043633E-3
297.078896E-3
296.847153E-3
296.218872E-3
294.851303E-3
294.976616E-3
293.595314E-3
293.769836E-3
294.190979E-3
294.131470E-3
295.663834E-3
295.615768E-3
296.750450E-3
297.762680E-3
298.024750E-3
299.729919E-3
299.765396E-3
300.839996E-3
301.570702E-3
301.577568E-3
302.915955E-3
302.468491E-3
303.179169E-3
303.484154E-3
302.795792E-3
303.460693E-3
302.334023E-3
302.619553E-3
302.812386E-3
302.321434E-3
303.311348E-3
302.915955E-3
303.918457E-3
304.724121E-3
304.509544E-3
305.767250E-3
305.406189E-3
306.381226E-3
307.272720E-3
307.401466E-3
308.926392E-3
308.671761E-3
309.661102E-3
310.426712E-3
309.934616E-3
310.178375E-3
307.755089E-3
305.480576E-3
301.922607E-3
297.314072E-3
294.301414E-3
290.398407E-3
288.214874E-3
286.672211E-3
284.918404E-3
285.308647E-3
284.281540E-3
284.712982E-3
285.230255E-3
284.876060E-3
286.124611E-3
285.978127E-3
287.175751E-3
288.632011E-3
289.517212E-3
292.230606E-3
293.461990E-3
295.836067E-3
297.821617E-3
298.293114E-3
299.795151E-3
299.098778E-3
299.265289E-3
299.080467E-3
297.765541E-3
298.175240E-3
297.033691E-3
297.261429E-3
297.947502E-3
297.935486E-3
299.508476E-3
299.484444E-3
300.675774E-3
301.979256E-3
302.365494E-3
304.399681E-3
304.424286E-3
305.355835E-3
306.160927E-3
305.850792E-3
306.897926E-3
306.721687E-3
307.774544E-3
308.698082E-3
308.540154E-3
309.568977E-3
308.905792E-3
309.185600E-3
309.334373E-3
308.532143E-3
309.258270E-3
308.338737E-3
308.328438E-3
308.478928E-3
307.786560E-3
308.677483E-3
308.248901E-3
309.019089E-3
309.788132E-3
309.628487E-3
310.862732E-3
310.223579E-3
310.695648E-3
311.127663E-3
310.711098E-3
311.610031E-3
309.955788E-3
308.229446E-3
305.484009E-3
301.094055E-3
297.659683E-3
293.138123E-3
290.290260E-3
288.002014E-3
285.665703E-3
285.140991E-3
283.944511E-3
284.121323E-3
284.778786E-3
284.744453E-3
286.316299E-3
286.690521E-3
287.707901E-3
288.904953E-3
289.248276E-3
291.098213E-3
291.950798E-3
294.086266E-3
296.300125E-3
297.173882E-3
299.173737E-3
299.573135E-3
300.279236E-3
300.608253E-3
299.646378E-3
299.963379E-3
298.757172E-3
298.612976E-3
298.788643E-3
298.021317E-3
298.887634E-3
298.626709E-3
299.635506E-3
300.628281E-3
300.619698E-3
301.928902E-3
301.686287E-3
302.542877E-3
303.565979E-3
303.809738E-3
305.408478E-3
305.592155E-3
306.473351E-3
307.245255E-3
306.796646E-3
307.717323E-3
307.150269E-3
307.483864E-3
307.686424E-3
306.790924E-3
307.162285E-3
306.320000E-3
306.283951E-3
306.813240E-3
306.338882E-3
307.407761E-3
307.192612E-3
307.793999E-3
308.547592E-3
308.279800E-3
309.432793E-3
309.356117E-3
310.030174E-3
310.728836E-3
310.273933E-3
311.332512E-3
311.082458E-3
311.898994E-3
312.282372E-3
310.766602E-3
309.402466E-3
305.769539E-3
302.153778E-3
298.575211E-3
294.116020E-3
291.812325E-3
288.784790E-3
287.269592E-3
286.568069E-3
285.463142E-3
286.165237E-3
286.186981E-3
287.209511E-3
288.716125E-3
289.022827E-3
290.588379E-3
290.864754E-3
291.973686E-3
293.658257E-3
294.592094E-3
297.162437E-3
298.398399E-3
300.021744E-3
301.297188E-3
301.003647E-3
301.518059E-3
300.496101E-3
299.942207E-3
299.438667E-3
298.033333E-3
298.233032E-3
297.463417E-3
297.766685E-3
298.404694E-3
298.106003E-3
299.232101E-3
299.253845E-3
300.127602E-3
301.226234E-3
301.259422E-3
302.648163E-3
302.732277E-3
303.595734E-3
304.650307E-3
304.522133E-3
305.814743E-3
305.706596E-3
306.346321E-3
307.137108E-3
306.899643E-3
308.035469E-3
307.754517E-3
308.066368E-3
308.426285E-3
307.616043E-3
308.232307E-3
307.561684E-3
307.654381E-3
308.304977E-3
307.602882E-3
308.488655E-3
308.167076E-3
308.718681E-3
309.389305E-3
309.012222E-3
310.260773E-3
310.110855E-3
310.474205E-3
311.211777E-3
310.972023E-3
312.535858E-3
312.559891E-3
312.654877E-3
312.177086E-3
309.214783E-3
306.735992E-3
302.437592E-3
298.683357E-3
295.491028E-3
291.624641E-3
290.220451E-3
288.159943E-3
287.635231E-3
287.705612E-3
287.104797E-3
288.518715E-3
288.736153E-3
289.720345E-3
290.892792E-3
290.734863E-3
292.126465E-3
292.335320E-3
293.752670E-3
295.709038E-3
296.447754E-3
298.683357E-3
299.336815E-3
300.075531E-3
300.743294E-3
299.859810E-3
300.142479E-3
299.048424E-3
298.586082E-3
298.487663E-3
297.620201E-3
298.525429E-3
298.502541E-3
299.249840E-3
300.475502E-3
300.715828E-3
302.577782E-3
302.695084E-3
303.338814E-3
304.281807E-3
303.897858E-3
305.223656E-3
305.089188E-3
305.454254E-3
306.324577E-3
306.057930E-3
307.554817E-3
307.981682E-3
308.806229E-3
309.895134E-3
309.537506E-3
310.628128E-3
310.146332E-3
310.104561E-3
310.345459E-3
309.529495E-3
310.433578E-3
310.073090E-3
310.111427E-3
310.885048E-3
310.444450E-3
311.867523E-3
312.062645E-3
312.834549E-3
314.098549E-3
313.501740E-3
314.542007E-3
314.402390E-3
314.625549E-3
315.581703E-3
314.886475E-3
315.221214E-3
313.225937E-3
310.731125E-3
307.836342E-3
303.301620E-3
300.539017E-3
296.798515E-3
294.195557E-3
292.656898E-3
290.658188E-3
291.058731E-3
290.727997E-3
291.283607E-3
292.583084E-3
292.843437E-3
294.798660E-3
295.363426E-3
295.996857E-3
296.987915E-3
297.204781E-3
299.405479E-3
300.309563E-3
301.657104E-3
303.239822E-3
303.176308E-3
304.488945E-3
304.135323E-3
303.807449E-3
303.911591E-3
302.548027E-3
302.891922E-3
301.957512E-3
301.701736E-3
302.170372E-3
301.720619E-3
303.344536E-3
303.773689E-3
304.687500E-3
306.084251E-3
306.142616E-3
307.950783E-3
308.377075E-3
309.217644E-3
310.665894E-3
310.562325E-3
311.929321E-3
312.023163E-3
312.201691E-3
312.895203E-3
312.260056E-3
313.390732E-3
313.157845E-3
313.153267E-3
313.604736E-3
312.731552E-3
313.673973E-3
313.113785E-3
312.991905E-3
313.755798E-3
313.090897E-3
314.162636E-3
314.060783E-3
314.250183E-3
315.044403E-3
314.570045E-3
315.828323E-3
315.757942E-3
315.857506E-3
316.684914E-3
316.407967E-3
317.948341E-3
318.026161E-3
317.885399E-3
317.436790E-3
314.483643E-3
312.371635E-3
308.457184E-3
304.819107E-3
302.000427E-3
298.394394E-3
297.201347E-3
295.539093E-3
294.744301E-3
295.182037E-3
294.701385E-3
296.150780E-3
296.478081E-3
297.288322E-3
298.821831E-3
298.793793E-3
300.436592E-3
300.647163E-3
301.574135E-3
303.783989E-3
304.559898E-3
307.016373E-3
307.878113E-3
308.593941E-3
309.413910E-3
308.570480E-3
308.835983E-3
307.724762E-3
306.591797E-3
306.451035E-3
305.219078E-3
305.987549E-3
305.778122E-3
306.150627E-3
307.456970E-3
307.551956E-3
309.136391E-3
309.491158E-3
310.322571E-3
311.713600E-3
311.659813E-3
313.048553E-3
313.108063E-3
313.169289E-3
313.960075E-3
313.134384E-3
313.978386E-3
313.570404E-3
313.488007E-3
314.299393E-3
313.630486E-3
314.576340E-3
314.116287E-3
313.788986E-3
314.223289E-3
313.368416E-3
314.176941E-3
313.829613E-3
313.818169E-3
314.745712E-3
314.193535E-3
315.220070E-3
315.091896E-3
315.006065E-3
316.010284E-3
315.526199E-3
316.736412E-3
316.741562E-3
316.945267E-3
318.061638E-3
317.533493E-3
318.078232E-3
316.695213E-3
314.261055E-3
311.829185E-3
307.329369E-3
304.182243E-3
300.094986E-3
296.827698E-3
295.293045E-3
293.008804E-3
293.002510E-3
292.640305E-3
292.638588E-3
293.916893E-3
293.899727E-3
295.539665E-3
296.201706E-3
296.946716E-3
298.588943E-3
298.727989E-3
300.787354E-3
302.023888E-3
303.619194E-3
306.068230E-3
306.804657E-3
308.678627E-3
308.907509E-3
308.680916E-3
308.846855E-3
307.327080E-3
307.329369E-3
306.255913E-3
305.551529E-3
306.102562E-3
305.454254E-3
306.508255E-3
306.807518E-3
307.368851E-3
308.739281E-3
308.775330E-3
310.311699E-3
310.628700E-3
311.034966E-3
312.382507E-3
312.273788E-3
313.603592E-3
313.863945E-3
314.204407E-3
315.257263E-3
314.626694E-3
315.474129E-3
315.110779E-3
314.657593E-3
315.379143E-3
314.627838E-3
315.218353E-3
314.965439E-3
314.606667E-3
315.422058E-3
314.798355E-3
315.611458E-3
315.438652E-3
315.308762E-3
316.164207E-3
315.546227E-3
316.495514E-3
316.637421E-3
316.823959E-3
318.041039E-3
317.861938E-3
319.077301E-3
319.318771E-3
319.388008E-3
319.925308E-3
318.058777E-3
316.419411E-3
313.158417E-3
309.209633E-3
306.236458E-3
302.087975E-3
299.943352E-3
297.700882E-3
296.008873E-3
296.115875E-3
295.592308E-3
296.915817E-3
297.790718E-3
298.566628E-3
300.415993E-3
300.652885E-3
302.067375E-3
302.519417E-3
303.053284E-3
305.035973E-3
305.836487E-3
308.000565E-3
309.086037E-3
309.700584E-3
310.924530E-3
310.210991E-3
310.616112E-3
309.904289E-3
309.071732E-3
309.498024E-3
308.452606E-3
308.835411E-3
308.478928E-3
308.282089E-3
309.241104E-3
308.754158E-3
309.671974E-3
310.035324E-3
310.261345E-3
311.928177E-3
312.041473E-3
313.470840E-3
313.940620E-3
314.171219E-3
315.494728E-3
315.180016E-3
316.060066E-3
315.983963E-3
315.765381E-3
316.633987E-3
316.041183E-3
316.713524E-3
316.672897E-3
316.365623E-3
317.155266E-3
316.585922E-3
317.292595E-3
317.229652E-3
316.819954E-3
317.725754E-3
317.059708E-3
317.627907E-3
317.483711E-3
317.468834E-3
318.664742E-3
318.522835E-3
319.548798E-3
319.874954E-3
319.729614E-3
320.806503E-3
320.457458E-3
321.335220E-3
320.881462E-3
319.072723E-3
317.338943E-3
313.351250E-3
310.387802E-3
306.745148E-3
303.298759E-3
301.643372E-3
299.066162E-3
298.428726E-3
297.789574E-3
297.273445E-3
298.430443E-3
298.448181E-3
299.934769E-3
300.787926E-3
301.273727E-3
302.684784E-3
302.588081E-3
304.344749E-3
305.650520E-3
306.712532E-3
309.025955E-3
309.473991E-3
310.762024E-3
310.838127E-3
310.224724E-3
310.635567E-3
309.221077E-3
309.293175E-3
308.892059E-3
308.355331E-3
309.383583E-3
308.856583E-3
309.750366E-3
310.083961E-3
310.098267E-3
311.615181E-3
311.559105E-3
313.130379E-3
314.067078E-3
314.499664E-3
316.159630E-3
315.884399E-3
316.880035E-3
317.276573E-3
317.013931E-3
317.896271E-3
317.130661E-3
317.838478E-3
317.772675E-3
317.496872E-3
318.490791E-3
317.765808E-3
318.423843E-3
318.592072E-3
318.274498E-3
319.327927E-3
318.566895E-3
319.281578E-3
319.460678E-3
319.084167E-3
320.023727E-3
319.367981E-3
320.098686E-3
320.549583E-3
320.617676E-3
322.007561E-3
321.671677E-3
322.721672E-3
322.882462E-3
321.835327E-3
321.137238E-3
317.664528E-3
315.001488E-3
311.596298E-3
307.739067E-3
305.854797E-3
302.679634E-3
301.672554E-3
301.062584E-3
300.731850E-3
302.271080E-3
302.189255E-3
303.730774E-3
304.777908E-3
305.104637E-3
306.687927E-3
306.514549E-3
307.899857E-3
308.887482E-3
309.590149E-3
311.603737E-3
311.445808E-3
312.233162E-3
312.428284E-3
311.860085E-3
312.459755E-3
311.301041E-3
311.593437E-3
311.672974E-3
311.396027E-3
312.633133E-3
312.446594E-3
313.430786E-3
314.342308E-3
314.578056E-3
316.051483E-3
315.894699E-3
316.827393E-3
317.632484E-3
317.789268E-3
319.270706E-3
319.133377E-3
319.887543E-3
320.353317E-3
320.047188E-3
321.209335E-3
320.554733E-3
321.202469E-3
321.543503E-3
321.177864E-3
322.182655E-3
321.441650E-3
321.859360E-3
322.209549E-3
321.652222E-3
322.736549E-3
322.194099E-3
322.760582E-3
323.060989E-3
322.624397E-3
323.678970E-3
323.267555E-3
324.062920E-3
324.572182E-3
324.224281E-3
325.452232E-3
325.217056E-3
326.051903E-3
326.275063E-3
324.672890E-3
323.618317E-3
319.908142E-3
316.900635E-3
313.315201E-3
309.177589E-3
306.993484E-3
