Notes :


2023-10-30 ¿ÀÈÄ 11:57:18
Volts
Ch : LED 2,
223.908234E-3
223.560333E-3
223.398972E-3
223.843002E-3
222.880554E-3
223.748589E-3
223.130035E-3
222.943497E-3
223.346901E-3
222.453690E-3
223.519135E-3
223.242760E-3
223.317146E-3
223.738289E-3
223.117447E-3
224.370003E-3
224.225235E-3
224.933624E-3
225.951004E-3
225.595093E-3
227.188683E-3
227.006721E-3
227.452469E-3
228.225517E-3
227.551460E-3
228.314781E-3
227.055359E-3
225.453186E-3
224.031830E-3
220.920181E-3
219.760895E-3
217.234039E-3
215.518570E-3
214.887428E-3
213.191414E-3
213.866043E-3
213.367653E-3
213.700104E-3
214.776421E-3
214.362144E-3
215.965462E-3
215.996933E-3
216.582298E-3
217.595673E-3
217.246628E-3
219.181252E-3
219.812393E-3
221.054077E-3
222.536659E-3
222.379875E-3
224.009514E-3
223.825264E-3
223.748589E-3
224.228096E-3
223.232460E-3
224.167442E-3
223.520851E-3
223.282242E-3
223.812675E-3
222.952080E-3
224.135399E-3
223.922539E-3
224.279022E-3
225.237465E-3
224.756241E-3
226.325226E-3
226.210213E-3
226.558113E-3
227.402115E-3
226.901436E-3
228.329659E-3
228.339958E-3
228.549385E-3
229.397964E-3
228.715897E-3
229.939842E-3
229.625130E-3
229.554176E-3
230.055428E-3
229.200554E-3
230.340958E-3
230.136108E-3
230.249405E-3
231.027603E-3
230.383873E-3
231.644440E-3
231.447601E-3
231.911659E-3
232.767677E-3
232.105064E-3
233.442307E-3
233.192825E-3
233.441162E-3
234.334946E-3
233.535004E-3
234.465981E-3
233.562469E-3
232.291603E-3
231.055641E-3
227.988625E-3
226.625061E-3
224.083900E-3
221.896935E-3
220.903015E-3
218.942642E-3
219.249916E-3
218.613625E-3
218.684578E-3
219.815254E-3
219.470215E-3
221.115875E-3
221.206284E-3
221.615982E-3
222.552681E-3
222.078323E-3
223.699951E-3
224.238968E-3
225.174522E-3
226.657104E-3
226.622772E-3
228.036118E-3
227.837563E-3
227.890778E-3
228.522491E-3
227.542305E-3
228.369713E-3
227.870750E-3
227.637291E-3
228.349113E-3
227.515411E-3
228.597450E-3
228.539085E-3
228.672981E-3
229.596519E-3
229.159927E-3
230.649376E-3
230.707169E-3
231.086540E-3
232.176590E-3
231.767464E-3
233.263779E-3
233.147049E-3
233.284950E-3
234.064865E-3
233.286095E-3
234.289742E-3
233.864594E-3
233.739281E-3
234.313774E-3
233.590508E-3
234.488297E-3
234.169006E-3
234.060860E-3
234.935760E-3
234.286880E-3
235.346603E-3
235.385513E-3
235.350609E-3
236.479568E-3
235.817528E-3
237.211418E-3
236.890984E-3
236.923027E-3
237.961006E-3
237.161064E-3
237.886620E-3
236.585426E-3
235.023308E-3
233.781624E-3
230.468559E-3
228.952789E-3
226.204491E-3
224.073601E-3
223.356628E-3
221.681786E-3
222.329521E-3
222.204781E-3
222.304344E-3
223.732567E-3
223.565483E-3
225.073242E-3
225.111008E-3
225.329018E-3
226.403618E-3
225.902367E-3
227.470779E-3
227.760887E-3
228.456688E-3
229.788780E-3
229.377937E-3
230.558968E-3
230.119514E-3
229.944992E-3
230.467415E-3
229.275513E-3
229.921532E-3
229.264641E-3
229.066658E-3
229.722404E-3
228.976822E-3
230.088043E-3
230.195045E-3
230.308914E-3
231.649590E-3
231.033325E-3
232.416344E-3
232.308197E-3
232.422066E-3
233.358765E-3
232.779694E-3
233.652306E-3
233.385658E-3
233.150482E-3
233.773613E-3
232.846069E-3
233.658028E-3
233.101273E-3
232.651520E-3
233.528137E-3
232.746506E-3
233.640289E-3
233.578491E-3
233.443451E-3
234.398460E-3
233.764458E-3
234.820747E-3
234.540367E-3
234.391022E-3
235.362625E-3
234.575844E-3
235.480499E-3
235.311699E-3
235.117149E-3
236.002350E-3
234.937477E-3
235.091400E-3
233.401680E-3
231.324577E-3
229.879761E-3
226.803017E-3
225.441742E-3
223.076820E-3
221.337891E-3
221.064949E-3
219.699097E-3
220.295906E-3
220.122528E-3
220.157433E-3
221.555901E-3
221.174812E-3
222.153854E-3
222.097206E-3
222.037697E-3
223.336029E-3
223.239326E-3
225.056076E-3
225.564766E-3
226.047134E-3
227.553177E-3
227.073669E-3
227.969170E-3
227.548027E-3
227.164078E-3
227.725983E-3
226.583290E-3
227.370071E-3
226.948357E-3
226.720619E-3
227.592659E-3
226.885986E-3
227.832413E-3
227.939415E-3
227.934265E-3
229.329300E-3
229.125023E-3
230.471420E-3
230.565262E-3
230.657959E-3
231.941986E-3
231.586647E-3
232.652092E-3
232.626343E-3
232.366562E-3
233.196259E-3
232.265854E-3
232.991409E-3
232.407761E-3
232.059860E-3
232.766533E-3
232.010651E-3
232.838631E-3
232.669830E-3
232.455254E-3
233.346176E-3
232.897568E-3
233.925819E-3
233.873177E-3
233.745575E-3
234.784126E-3
234.189606E-3
235.065651E-3
234.859085E-3
234.392166E-3
234.986115E-3
233.479500E-3
232.865524E-3
230.696869E-3
228.153419E-3
226.560402E-3
223.468781E-3
222.175026E-3
220.329666E-3
218.906021E-3
218.938065E-3
217.864609E-3
218.542099E-3
218.440819E-3
218.401909E-3
219.723129E-3
219.386673E-3
220.493317E-3
220.401192E-3
220.442963E-3
221.953011E-3
222.164726E-3
223.847580E-3
224.522781E-3
224.870682E-3
226.319504E-3
225.717545E-3
226.530075E-3
226.119804E-3
225.572205E-3
226.092339E-3
225.115585E-3
225.587082E-3
225.210571E-3
224.844933E-3
225.697517E-3
225.095558E-3
226.151276E-3
226.369286E-3
226.372147E-3
227.716255E-3
227.528000E-3
228.650665E-3
229.030609E-3
228.875542E-3
230.021667E-3
229.634857E-3
230.744362E-3
230.706596E-3
230.618477E-3
231.385803E-3
230.451393E-3
230.960655E-3
230.706024E-3
230.290031E-3
231.082535E-3
230.383873E-3
231.077385E-3
230.991554E-3
230.728340E-3
231.748009E-3
231.283951E-3
232.132530E-3
232.205772E-3
232.007217E-3
232.914734E-3
232.137680E-3
232.916451E-3
232.810593E-3
232.398033E-3
233.036613E-3
231.685066E-3
231.077957E-3
228.988838E-3
226.290321E-3
224.706459E-3
221.552467E-3
220.210648E-3
218.330383E-3
216.819763E-3
216.823769E-3
215.729141E-3
216.484451E-3
216.757393E-3
216.737938E-3
218.032837E-3
217.702103E-3
218.775558E-3
219.104576E-3
219.030190E-3
220.512199E-3
220.647240E-3
222.282600E-3
223.148918E-3
223.361206E-3
224.621201E-3
224.097633E-3
224.851227E-3
224.670410E-3
224.083328E-3
224.890709E-3
223.824120E-3
224.481583E-3
224.300766E-3
224.161720E-3
225.172234E-3
224.823761E-3
225.730705E-3
226.211929E-3
226.182175E-3
227.695084E-3
227.240181E-3
228.364563E-3
228.777695E-3
228.667831E-3
229.892921E-3
229.504967E-3
230.397034E-3
230.603600E-3
230.296898E-3
231.261635E-3
230.319786E-3
230.827904E-3
230.459404E-3
229.946136E-3
230.774689E-3
230.127525E-3
230.756950E-3
230.989265E-3
230.558395E-3
231.590652E-3
230.885124E-3
231.729126E-3
232.008934E-3
231.730270E-3
232.913017E-3
232.132530E-3
232.867241E-3
233.101273E-3
232.897568E-3
234.155846E-3
232.927322E-3
232.652664E-3
230.970383E-3
228.537941E-3
227.217293E-3
223.925400E-3
222.508621E-3
220.691299E-3
219.126320E-3
219.055367E-3
217.926979E-3
218.631935E-3
218.933487E-3
219.222450E-3
220.788002E-3
220.473862E-3
221.516991E-3
221.928978E-3
221.855736E-3
223.321724E-3
223.209000E-3
224.836349E-3
225.741005E-3
226.028824E-3
227.452469E-3
226.657104E-3
227.120018E-3
226.716614E-3
226.100922E-3
226.900291E-3
225.827980E-3
226.599312E-3
226.782990E-3
226.458549E-3
227.708817E-3
227.095985E-3
227.850151E-3
228.418350E-3
228.360558E-3
229.857445E-3
229.763603E-3
230.913734E-3
231.552887E-3
231.557465E-3
232.893562E-3
232.141113E-3
233.101845E-3
233.434296E-3
233.054352E-3
234.045410E-3
233.054924E-3
233.547592E-3
233.537865E-3
233.097839E-3
234.138680E-3
233.371925E-3
234.249115E-3
234.431076E-3
234.122658E-3
235.094261E-3
234.223366E-3
234.965515E-3
235.268784E-3
234.911156E-3
236.030388E-3
235.244751E-3
236.018372E-3
236.587143E-3
236.429214E-3
237.419701E-3
235.864449E-3
235.057068E-3
233.358192E-3
230.561256E-3
229.220009E-3
226.029968E-3
224.751663E-3
223.276520E-3
221.904373E-3
222.514915E-3
221.740723E-3
222.618484E-3
223.574066E-3
223.710251E-3
225.391388E-3
225.020027E-3
225.918961E-3
226.612473E-3
226.546669E-3
228.160286E-3
227.963448E-3
229.084969E-3
229.923820E-3
229.676628E-3
230.663681E-3
229.572487E-3
229.910660E-3
229.748154E-3
228.860664E-3
229.565048E-3
228.584862E-3
229.054070E-3
229.244614E-3
228.776550E-3
229.955292E-3
229.540443E-3
230.397034E-3
231.175804E-3
230.875969E-3
232.093048E-3
231.532288E-3
232.197189E-3
232.727051E-3
232.453537E-3
233.429146E-3
232.625771E-3
233.154488E-3
233.408546E-3
232.824326E-3
233.631706E-3
232.757378E-3
233.215714E-3
233.608818E-3
233.220863E-3
234.345818E-3
233.724403E-3
234.302902E-3
234.712601E-3
234.169579E-3
235.184669E-3
234.497452E-3
234.984970E-3
235.509109E-3
235.090828E-3
236.130524E-3
235.584068E-3
236.251259E-3
236.727333E-3
235.818100E-3
235.875893E-3
233.629990E-3
232.154846E-3
230.049133E-3
226.966667E-3
225.580215E-3
222.783279E-3
221.922112E-3
221.112442E-3
219.981194E-3
221.064949E-3
220.559692E-3
221.634865E-3
222.351265E-3
222.093773E-3
223.541451E-3
223.072243E-3
223.905373E-3
224.590302E-3
224.718475E-3
226.417351E-3
226.574135E-3
227.486229E-3
228.186035E-3
227.647018E-3
228.624344E-3
227.656174E-3
227.966309E-3
228.212929E-3
227.474213E-3
228.347969E-3
227.601242E-3
228.136253E-3
228.771973E-3
228.424644E-3
229.887199E-3
229.396820E-3
230.162430E-3
231.103134E-3
230.805016E-3
232.137680E-3
231.551170E-3
232.327080E-3
233.034325E-3
232.928467E-3
234.112358E-3
233.803940E-3
234.387016E-3
234.900856E-3
234.329224E-3
235.339737E-3
234.621048E-3
235.003853E-3
235.409546E-3
234.738350E-3
235.628700E-3
234.887123E-3
235.384941E-3
235.914803E-3
235.530853E-3
236.762238E-3
236.306190E-3
237.103844E-3
237.661171E-3
237.107277E-3
238.314056E-3
237.582207E-3
237.937546E-3
237.585068E-3
235.568047E-3
234.615898E-3
231.678200E-3
229.551888E-3
227.548027E-3
224.707031E-3
223.847580E-3
221.963310E-3
221.555901E-3
221.622849E-3
221.014595E-3
222.151566E-3
222.033119E-3
222.812462E-3
223.679352E-3
223.423004E-3
224.759102E-3
224.396324E-3
225.402260E-3
226.737785E-3
226.972961E-3
228.691864E-3
228.621483E-3
229.494667E-3
229.825401E-3
229.094124E-3
229.753304E-3
228.905869E-3
229.117584E-3
229.478073E-3
228.608322E-3
229.532433E-3
228.935051E-3
229.521561E-3
229.933548E-3
229.534721E-3
230.648804E-3
230.363846E-3
231.127739E-3
232.074165E-3
231.789780E-3
233.044052E-3
232.886696E-3
233.643723E-3
234.584999E-3
234.218216E-3
235.386658E-3
234.770393E-3
235.140038E-3
235.528564E-3
234.534645E-3
235.231018E-3
234.378433E-3
234.703445E-3
235.200119E-3
234.422493E-3
235.351181E-3
234.812164E-3
235.407257E-3
236.037254E-3
235.656738E-3
236.911011E-3
236.668396E-3
237.232018E-3
237.809372E-3
237.202263E-3
238.066864E-3
237.133026E-3
236.611748E-3
235.474777E-3
232.824326E-3
231.295395E-3
228.266144E-3
226.214218E-3
224.689293E-3
222.316933E-3
222.154999E-3
221.082115E-3
221.349907E-3
222.030258E-3
221.633720E-3
222.838211E-3
222.778702E-3
223.448181E-3
224.228096E-3
223.653030E-3
224.814606E-3
224.757385E-3
226.091194E-3
227.450752E-3
227.756882E-3
229.256630E-3
229.207420E-3
229.621124E-3
230.116081E-3
229.126167E-3
229.752159E-3
228.880692E-3
228.851509E-3
228.939629E-3
228.018951E-3
228.650665E-3
228.041267E-3
228.483009E-3
229.250336E-3
228.860092E-3
230.223083E-3
230.065727E-3
230.830193E-3
231.893349E-3
231.707382E-3
232.860374E-3
232.683563E-3
233.383942E-3
234.044838E-3
233.522415E-3
234.288597E-3
233.493233E-3
233.636856E-3
233.989906E-3
233.116722E-3
233.867455E-3
233.432579E-3
233.833122E-3
234.464836E-3
234.048271E-3
235.216141E-3
234.842491E-3
235.468483E-3
236.160278E-3
235.632706E-3
236.591148E-3
236.108780E-3
236.563110E-3
237.188530E-3
236.613464E-3
237.248039E-3
235.692215E-3
234.521484E-3
233.032036E-3
230.009079E-3
228.343964E-3
225.642586E-3
223.774338E-3
222.862244E-3
220.950508E-3
221.134186E-3
220.388603E-3
220.795441E-3
221.808815E-3
221.389389E-3
222.764397E-3
222.628212E-3
223.115158E-3
224.047279E-3
223.669052E-3
225.201988E-3
225.734711E-3
226.980972E-3
228.441238E-3
228.396034E-3
229.765892E-3
229.345322E-3
229.499817E-3
229.832840E-3
228.876114E-3
229.577065E-3
229.050064E-3
228.939056E-3
229.550171E-3
228.961945E-3
230.104637E-3
229.934120E-3
230.304909E-3
231.067085E-3
230.661392E-3
232.059288E-3
232.031822E-3
232.640076E-3
233.662033E-3
233.162498E-3
234.618187E-3
234.435081E-3
234.932899E-3
235.602379E-3
234.952927E-3
235.875893E-3
235.373497E-3
235.478210E-3
235.933685E-3
235.000992E-3
235.939980E-3
235.628128E-3
235.875893E-3
236.391449E-3
235.717392E-3
236.868668E-3
236.769676E-3
237.100410E-3
237.768745E-3
237.165642E-3
238.260841E-3
238.056564E-3
238.294029E-3
238.985825E-3
237.927818E-3
238.008499E-3
235.998344E-3
234.109497E-3
232.363129E-3
229.145622E-3
228.025818E-3
225.687218E-3
224.474144E-3
224.076462E-3
223.013878E-3
224.039841E-3
224.294472E-3
224.851799E-3
225.999069E-3
225.669479E-3
227.093124E-3
227.120018E-3
227.457619E-3
228.644943E-3
228.588295E-3
230.561256E-3
230.805016E-3
231.405258E-3
232.382584E-3
231.665611E-3
232.704163E-3
231.992912E-3
231.792068E-3
231.988907E-3
230.937195E-3
231.884766E-3
231.592369E-3
231.871033E-3
232.537079E-3
232.019806E-3
233.480644E-3
233.596230E-3
234.057426E-3
235.226440E-3
234.966087E-3
236.332512E-3
236.426353E-3
236.755371E-3
237.735558E-3
237.103844E-3
238.211060E-3
237.576485E-3
237.349319E-3
237.739563E-3
236.591148E-3
237.519836E-3
237.064362E-3
237.011147E-3
237.482071E-3
236.625481E-3
237.587929E-3
237.310982E-3
237.206268E-3
237.935257E-3
237.337303E-3
238.502884E-3
237.993622E-3
237.746429E-3
238.352394E-3
237.526131E-3
238.501167E-3
237.878609E-3
237.044334E-3
236.412621E-3
233.646584E-3
232.320213E-3
229.280663E-3
226.857376E-3
225.337601E-3
222.831917E-3
222.533798E-3
221.570206E-3
221.396255E-3
222.209930E-3
221.739006E-3
223.096275E-3
223.306847E-3
223.619270E-3
224.666977E-3
224.099922E-3
225.335884E-3
225.643730E-3
226.392746E-3
228.020668E-3
228.064156E-3
229.730415E-3
229.574776E-3
229.547882E-3
230.261421E-3
229.325867E-3
230.126953E-3
229.615974E-3
229.353333E-3
230.031967E-3
229.288101E-3
230.340385E-3
230.185890E-3
230.366135E-3
231.509972E-3
231.107712E-3
232.507896E-3
232.495308E-3
232.491875E-3
233.763885E-3
233.258629E-3
234.479713E-3
234.392738E-3
234.254265E-3
235.140610E-3
234.211349E-3
234.994125E-3
234.351540E-3
234.044266E-3
234.449387E-3
233.431435E-3
234.177589E-3
233.552170E-3
233.283234E-3
234.103203E-3
233.116722E-3
234.171867E-3
234.018517E-3
234.130096E-3
235.267067E-3
234.800720E-3
235.977745E-3
235.822678E-3
235.759163E-3
236.675835E-3
235.597229E-3
235.620689E-3
233.747292E-3
231.527710E-3
229.888916E-3
226.543808E-3
224.931908E-3
222.677994E-3
220.613480E-3
220.544243E-3
219.070816E-3
219.954300E-3
219.760895E-3
220.089340E-3
221.454048E-3
221.262932E-3
222.562981E-3
222.711182E-3
222.700310E-3
224.061584E-3
223.756027E-3
225.532150E-3
226.178169E-3
226.879120E-3
228.404617E-3
227.955437E-3
229.071808E-3
228.842354E-3
228.272438E-3
228.923035E-3
227.938843E-3
228.667831E-3
