Notes :


2023-10-30 ¿ÀÈÄ 11:35:06
Volts
Ch : LED 2,
128.450203E-3
129.339409E-3
129.677582E-3
129.936218E-3
131.186485E-3
131.038857E-3
132.050514E-3
131.895447E-3
131.710625E-3
132.460785E-3
131.876564E-3
132.510567E-3
132.322884E-3
132.037926E-3
132.902527E-3
132.273674E-3
133.019829E-3
132.948303E-3
132.701683E-3
133.585167E-3
132.999802E-3
133.751106E-3
133.885002E-3
133.771133E-3
134.606552E-3
133.895302E-3
134.533882E-3
134.269524E-3
133.737373E-3
133.874130E-3
132.244492E-3
131.789589E-3
130.571938E-3
129.076767E-3
128.950310E-3
127.365303E-3
127.380753E-3
127.005386E-3
126.331329E-3
127.205658E-3
126.492119E-3
127.349281E-3
127.551842E-3
127.479744E-3
128.490257E-3
127.843094E-3
128.632164E-3
128.973770E-3
129.100227E-3
130.375671E-3
130.043793E-3
130.989075E-3
131.419945E-3
131.202507E-3
132.276535E-3
131.433678E-3
131.832504E-3
131.732941E-3
131.165886E-3
132.123756E-3
131.243134E-3
131.497192E-3
131.711197E-3
131.388474E-3
132.419014E-3
131.640244E-3
132.205009E-3
132.429886E-3
132.127190E-3
133.150864E-3
132.553482E-3
133.293915E-3
133.799744E-3
133.523941E-3
134.501266E-3
133.778000E-3
134.401131E-3
134.693527E-3
134.236336E-3
135.138702E-3
134.432030E-3
134.729576E-3
134.985352E-3
134.510994E-3
135.261726E-3
134.386253E-3
134.720993E-3
135.074615E-3
134.555626E-3
135.463715E-3
134.681511E-3
135.217667E-3
135.544968E-3
135.063171E-3
136.028481E-3
135.158157E-3
135.407066E-3
135.082054E-3
133.612633E-3
133.341980E-3
131.411934E-3
130.707550E-3
129.808044E-3
128.197289E-3
128.326607E-3
127.023125E-3
127.063179E-3
127.302933E-3
126.804543E-3
127.837944E-3
127.344131E-3
127.981567E-3
128.671074E-3
128.271103E-3
129.473305E-3
129.125404E-3
129.854965E-3
130.783653E-3
130.719566E-3
132.074547E-3
131.869698E-3
132.738876E-3
133.244705E-3
132.768631E-3
133.499336E-3
132.833862E-3
132.963181E-3
133.174324E-3
132.439041E-3
133.027267E-3
132.480240E-3
132.855034E-3
133.315659E-3
132.899094E-3
133.895874E-3
133.415222E-3
133.835793E-3
134.228325E-3
133.849525E-3
134.601974E-3
134.300423E-3
134.727859E-3
135.363579E-3
135.039711E-3
135.999870E-3
135.506630E-3
135.915184E-3
136.273384E-3
135.621071E-3
136.230469E-3
135.681725E-3
135.972977E-3
136.422729E-3
135.782433E-3
136.652756E-3
136.323738E-3
136.630440E-3
137.109947E-3
136.584091E-3
137.478447E-3
137.042427E-3
137.405205E-3
137.862396E-3
137.324524E-3
138.107872E-3
137.370872E-3
137.216949E-3
136.816406E-3
134.969902E-3
134.551048E-3
132.711983E-3
131.769562E-3
131.403351E-3
129.995728E-3
130.204582E-3
129.519653E-3
129.484749E-3
130.042076E-3
129.396629E-3
130.440331E-3
130.150223E-3
130.405998E-3
131.166458E-3
130.930710E-3
131.875992E-3
131.847382E-3
132.538033E-3
133.730507E-3
133.648682E-3
135.016251E-3
134.925270E-3
135.345840E-3
135.991859E-3
135.229111E-3
135.839081E-3
135.299492E-3
135.127258E-3
135.442543E-3
134.651184E-3
135.502625E-3
135.017967E-3
134.944725E-3
135.539246E-3
134.886932E-3
135.956383E-3
135.832214E-3
136.043358E-3
136.648178E-3
136.122894E-3
137.198067E-3
137.037849E-3
137.270737E-3
138.015175E-3
137.383461E-3
138.487816E-3
138.269234E-3
138.331604E-3
138.829994E-3
137.923622E-3
138.953018E-3
138.388824E-3
138.228035E-3
138.610840E-3
137.770844E-3
138.622284E-3
138.413429E-3
138.269234E-3
138.945007E-3
138.301849E-3
139.442825E-3
139.056015E-3
139.001083E-3
139.606476E-3
138.804817E-3
139.773560E-3
139.231110E-3
138.669777E-3
138.489532E-3
136.772919E-3
136.422157E-3
135.029984E-3
133.781433E-3
133.535385E-3
131.981850E-3
132.385826E-3
131.735802E-3
131.350708E-3
132.135773E-3
131.498909E-3
132.568932E-3
132.453918E-3
132.602119E-3
133.700180E-3
133.142281E-3
134.270668E-3
134.145355E-3
134.506416E-3
135.588455E-3
135.195923E-3
136.339188E-3
136.512566E-3
136.456490E-3
137.184334E-3
136.376953E-3
137.238121E-3
136.783218E-3
136.426163E-3
137.004089E-3
136.172104E-3
136.921120E-3
136.557198E-3
136.453056E-3
137.163734E-3
136.467934E-3
137.287331E-3
137.017822E-3
136.853600E-3
137.850380E-3
137.358856E-3
138.300705E-3
138.239479E-3
138.189697E-3
139.068604E-3
138.483810E-3
139.238548E-3
139.031410E-3
138.664627E-3
139.390182E-3
138.526726E-3
139.240265E-3
138.972473E-3
138.807106E-3
139.754677E-3
139.191628E-3
139.930344E-3
139.757538E-3
139.592171E-3
140.351486E-3
139.746666E-3
140.507126E-3
140.273094E-3
140.084839E-3
140.760040E-3
139.948082E-3
140.555191E-3
139.948654E-3
138.921547E-3
138.733292E-3
136.949730E-3
136.503410E-3
135.158730E-3
133.586884E-3
133.473587E-3
132.098007E-3
132.304001E-3
131.869698E-3
131.613922E-3
132.444763E-3
132.022476E-3
132.854462E-3
133.026123E-3
132.914543E-3
133.796310E-3
133.190918E-3
134.039497E-3
134.105301E-3
134.171677E-3
135.270309E-3
135.011673E-3
136.077690E-3
136.395264E-3
135.853958E-3
136.641312E-3
135.922623E-3
136.273384E-3
136.050224E-3
135.512352E-3
136.126900E-3
135.367584E-3
136.022758E-3
135.885429E-3
135.461426E-3
136.439323E-3
135.772133E-3
136.445045E-3
136.650467E-3
136.503410E-3
137.536240E-3
137.092781E-3
137.742805E-3
138.044930E-3
137.837219E-3
138.775063E-3
138.111877E-3
138.835716E-3
138.879204E-3
138.575363E-3
139.441109E-3
138.624001E-3
139.328384E-3
139.391327E-3
139.171600E-3
140.000153E-3
139.141273E-3
139.768410E-3
139.920044E-3
139.480019E-3
140.351486E-3
139.685440E-3
140.269661E-3
140.428162E-3
140.115738E-3
141.014099E-3
140.163803E-3
140.487671E-3
139.991570E-3
138.698959E-3
138.672638E-3
136.463356E-3
135.754967E-3
134.612274E-3
133.320808E-3
133.511925E-3
132.151794E-3
132.384682E-3
132.547760E-3
132.122612E-3
133.195496E-3
132.528877E-3
133.115387E-3
133.646393E-3
133.485603E-3
134.512711E-3
133.840370E-3
134.675217E-3
135.183907E-3
135.306358E-3
136.787796E-3
136.361504E-3
137.070465E-3
137.541962E-3
137.055016E-3
137.944794E-3
137.031555E-3
137.395477E-3
137.505341E-3
136.955452E-3
137.737656E-3
136.789513E-3
137.119675E-3
137.423515E-3
137.024117E-3
137.847519E-3
137.151146E-3
137.731934E-3
138.195419E-3
137.755966E-3
138.801384E-3
138.236046E-3
138.866043E-3
139.248276E-3
138.896942E-3
139.911461E-3
139.234543E-3
139.624214E-3
139.835930E-3
139.284325E-3
139.978981E-3
139.029121E-3
139.401627E-3
139.667702E-3
139.121819E-3
139.953232E-3
139.118385E-3
139.676857E-3
140.063095E-3
139.636230E-3
140.578651E-3
139.801025E-3
140.344048E-3
140.776062E-3
140.064812E-3
140.880203E-3
140.241051E-3
140.505981E-3
140.258217E-3
138.877487E-3
138.632011E-3
136.792374E-3
135.821342E-3
134.924126E-3
133.256149E-3
133.383179E-3
132.142067E-3
132.237625E-3
132.376671E-3
131.772995E-3
132.773781E-3
132.239914E-3
132.848167E-3
133.499336E-3
133.047295E-3
134.008598E-3
133.741951E-3
134.377670E-3
135.273170E-3
135.155869E-3
136.433601E-3
136.293411E-3
137.182045E-3
137.870979E-3
137.395477E-3
138.220024E-3
137.557983E-3
137.745094E-3
137.889862E-3
137.016106E-3
137.705612E-3
137.040138E-3
137.410927E-3
137.842941E-3
137.394905E-3
138.289261E-3
137.861252E-3
138.336754E-3
138.923836E-3
138.491249E-3
139.454842E-3
139.080620E-3
139.621925E-3
140.141487E-3
139.625359E-3
140.569496E-3
140.153503E-3
140.587807E-3
141.122818E-3
140.487099E-3
141.258430E-3
140.776062E-3
141.065025E-3
141.522217E-3
140.800095E-3
141.590309E-3
141.011810E-3
141.303062E-3
141.812897E-3
141.010094E-3
141.845512E-3
141.420937E-3
141.794014E-3
142.363930E-3
141.850090E-3
142.502975E-3
141.972542E-3
142.192841E-3
142.424583E-3
141.091919E-3
141.075325E-3
139.576721E-3
138.452911E-3
137.772560E-3
136.065102E-3
136.099434E-3
135.001945E-3
134.669495E-3
134.840012E-3
134.056664E-3
134.866905E-3
134.757042E-3
134.956741E-3
135.758972E-3
135.304070E-3
136.352921E-3
136.195564E-3
136.525726E-3
137.372017E-3
137.028694E-3
138.332748E-3
138.466644E-3
138.893509E-3
139.581871E-3
138.903236E-3
139.841652E-3
139.340973E-3
139.236259E-3
139.686584E-3
138.750458E-3
139.600754E-3
139.160156E-3
139.128685E-3
139.621925E-3
138.892937E-3
139.755821E-3
139.479446E-3
139.609337E-3
140.211296E-3
139.453697E-3
140.554047E-3
140.335464E-3
140.472221E-3
141.161156E-3
140.610123E-3
141.850662E-3
141.697311E-3
141.788864E-3
142.264938E-3
141.414070E-3
142.471504E-3
142.001152E-3
141.844368E-3
142.255783E-3
141.441536E-3
142.389107E-3
142.076111E-3
142.076683E-3
142.666054E-3
141.910744E-3
142.918968E-3
142.588806E-3
142.536736E-3
143.253136E-3
142.477226E-3
143.371010E-3
143.132401E-3
143.052292E-3
143.407631E-3
142.090416E-3
142.119598E-3
140.773201E-3
139.387321E-3
138.879204E-3
136.937141E-3
136.866188E-3
136.013603E-3
135.296059E-3
135.714912E-3
134.918976E-3
135.894012E-3
135.736084E-3
136.009598E-3
136.922264E-3
136.454773E-3
137.546539E-3
137.274170E-3
137.333679E-3
138.300133E-3
138.028908E-3
139.198494E-3
139.188766E-3
139.295769E-3
140.223312E-3
139.489174E-3
140.288544E-3
139.973259E-3
139.602470E-3
140.083694E-3
139.123535E-3
139.843369E-3
139.346123E-3
138.923264E-3
139.666557E-3
138.745880E-3
139.566994E-3
139.395905E-3
139.195633E-3
140.025902E-3
139.504623E-3
140.389252E-3
140.156364E-3
140.003586E-3
140.935135E-3
140.234756E-3
141.072464E-3
140.972328E-3
140.654182E-3
141.315651E-3
140.531731E-3
141.203499E-3
140.805817E-3
140.559196E-3
141.345978E-3
140.608406E-3
141.423798E-3
141.330528E-3
141.100502E-3
141.984558E-3
141.435242E-3
142.276382E-3
142.117310E-3
141.914177E-3
142.644882E-3
142.080688E-3
142.585373E-3
142.411995E-3
142.002296E-3
142.129326E-3
140.770340E-3
140.540314E-3
139.274597E-3
137.814331E-3
137.423515E-3
135.841370E-3
135.697174E-3
135.061455E-3
134.355354E-3
134.957886E-3
134.260368E-3
134.933281E-3
134.977913E-3
134.870911E-3
135.817337E-3
135.284615E-3
136.124039E-3
136.219025E-3
136.265945E-3
137.383461E-3
137.226105E-3
138.298988E-3
138.501549E-3
138.348198E-3
139.287186E-3
138.582230E-3
139.109230E-3
138.938141E-3
138.487816E-3
139.106369E-3
138.421440E-3
138.859749E-3
138.706970E-3
138.294983E-3
139.072037E-3
138.496971E-3
139.070320E-3
139.244843E-3
139.084053E-3
140.006447E-3
139.406204E-3
140.208435E-3
140.256500E-3
140.003586E-3
140.884209E-3
140.092850E-3
140.718842E-3
140.685654E-3
140.278244E-3
141.251564E-3
140.401268E-3
140.903091E-3
140.944862E-3
140.365791E-3
141.246414E-3
140.367508E-3
140.884781E-3
140.835571E-3
140.495110E-3
141.366577E-3
140.544319E-3
141.230965E-3
141.515350E-3
141.183472E-3
142.212296E-3
141.358566E-3
141.777420E-3
141.716766E-3
141.045570E-3
141.415215E-3
139.663696E-3
139.161301E-3
138.205719E-3
136.673355E-3
136.659050E-3
135.016251E-3
134.611702E-3
134.358215E-3
133.641815E-3
134.330750E-3
133.436394E-3
134.076118E-3
134.490967E-3
134.297562E-3
135.514641E-3
134.849739E-3
135.552406E-3
135.939789E-3
135.740662E-3
136.976051E-3
136.545753E-3
137.492752E-3
138.088417E-3
137.878990E-3
138.938141E-3
138.275528E-3
138.508415E-3
138.673782E-3
138.042641E-3
138.638878E-3
137.598038E-3
138.047791E-3
138.050652E-3
137.599754E-3
138.521576E-3
137.784576E-3
138.184547E-3
138.764763E-3
138.336182E-3
139.443970E-3
138.874054E-3
139.429665E-3
139.886284E-3
139.605331E-3
140.620422E-3
140.159798E-3
140.632439E-3
141.049576E-3
140.587234E-3
141.545677E-3
140.723419E-3
141.263008E-3
141.479301E-3
140.741730E-3
141.613197E-3
140.801811E-3
141.443825E-3
141.612625E-3
141.120529E-3
142.009735E-3
141.513634E-3
141.818047E-3
142.308998E-3
141.879845E-3
142.782211E-3
142.030334E-3
142.339897E-3
142.652321E-3
141.806030E-3
142.174530E-3
140.841866E-3
140.214729E-3
139.456558E-3
137.581444E-3
137.362862E-3
135.703468E-3
135.448837E-3
135.202789E-3
134.235764E-3
134.956741E-3
134.280396E-3
134.858322E-3
135.525513E-3
135.097504E-3
136.193275E-3
135.946083E-3
136.619568E-3
137.226105E-3
136.977768E-3
138.162804E-3
137.943077E-3
138.808250E-3
139.519501E-3
139.249420E-3
140.215302E-3
139.634514E-3
139.977264E-3
140.287971E-3
139.503479E-3
140.133476E-3
139.426804E-3
139.625931E-3
139.882851E-3
139.321518E-3
140.025902E-3
139.601898E-3
139.955521E-3
140.457916E-3
139.944077E-3
140.996361E-3
140.568924E-3
141.046715E-3
141.562271E-3
140.955734E-3
141.812897E-3
141.390038E-3
141.753960E-3
142.216301E-3
141.598320E-3
142.286682E-3
141.835213E-3
142.104721E-3
142.636871E-3
142.016029E-3
142.960739E-3
142.369652E-3
142.651749E-3
143.151283E-3
142.487526E-3
143.072319E-3
142.588806E-3
142.868614E-3
143.406487E-3
142.902374E-3
143.719482E-3
143.195915E-3
143.367004E-3
144.011307E-3
143.201065E-3
143.670273E-3
142.608261E-3
141.955948E-3
141.465569E-3
139.708328E-3
139.270592E-3
137.798882E-3
137.234688E-3
137.149429E-3
136.058807E-3
136.725426E-3
136.477089E-3
136.825562E-3
137.582016E-3
137.127113E-3
138.331604E-3
138.208008E-3
138.491249E-3
139.334106E-3
138.809967E-3
140.055084E-3
140.076828E-3
140.564346E-3
141.289902E-3
140.785789E-3
141.840935E-3
141.451836E-3
141.451263E-3
141.776276E-3
140.939713E-3
141.783142E-3
141.252136E-3
141.117668E-3
141.537666E-3
140.593529E-3
141.588593E-3
141.333389E-3
141.281891E-3
141.887856E-3
141.350555E-3
142.490387E-3
142.240906E-3
142.318726E-3
143.032265E-3
142.294693E-3
143.357277E-3
143.076324E-3
142.969322E-3
143.539810E-3
142.723846E-3
143.666267E-3
143.272018E-3
143.195915E-3
143.660545E-3
142.802238E-3
143.712044E-3
143.368721E-3
143.162155E-3
143.649673E-3
142.912674E-3
143.706894E-3
143.545532E-3
143.520927E-3
144.122314E-3
143.425369E-3
144.355202E-3
143.911171E-3
143.865967E-3
144.252777E-3
143.242836E-3
143.524361E-3
142.358208E-3
141.126251E-3
140.412140E-3
138.425446E-3
138.149643E-3
136.810112E-3
135.777855E-3
135.962677E-3
134.989929E-3
135.818481E-3
135.597038E-3
135.778999E-3
136.691666E-3
136.292267E-3
137.418938E-3
137.124252E-3
137.066460E-3
137.915039E-3
137.339401E-3
138.593102E-3
138.713837E-3
138.880348E-3
139.869118E-3
139.356995E-3
140.266228E-3
139.884567E-3
139.465141E-3
140.100288E-3
139.189339E-3
139.926910E-3
139.459419E-3
139.189339E-3
139.914894E-3
139.199638E-3
139.962959E-3
139.752960E-3
139.537811E-3
140.481377E-3
139.811325E-3
140.606689E-3
140.562630E-3
140.324593E-3
141.176033E-3
140.575790E-3
141.391754E-3
141.071320E-3
140.793228E-3
141.565132E-3
140.841866E-3
141.353989E-3
141.074753E-3
140.663338E-3
141.329956E-3
140.487099E-3
141.027832E-3
140.698814E-3
140.393257E-3
141.255569E-3
140.634155E-3
141.177750E-3
141.112518E-3
140.787506E-3
141.658974E-3
141.010666E-3
141.647530E-3
141.371727E-3
141.172600E-3
141.821480E-3
140.781212E-3
140.776634E-3
139.823914E-3
138.350487E-3
137.880135E-3
136.234474E-3
135.843658E-3
134.815979E-3
133.834076E-3
134.319878E-3
133.327675E-3
133.924484E-3
133.895302E-3
133.749390E-3
134.671783E-3
134.159660E-3
134.906960E-3
135.055161E-3
134.939575E-3
135.924911E-3
