Notes :


2023-10-30 ¿ÀÈÄ 11:46:46
Volts
Ch : LED 2,
227.964592E-3
228.844070E-3
228.832054E-3
230.320930E-3
230.399323E-3
231.556320E-3
232.633781E-3
232.418633E-3
233.724976E-3
233.415413E-3
234.031105E-3
234.731483E-3
234.240532E-3
235.345459E-3
234.798431E-3
235.190964E-3
235.580635E-3
234.799004E-3
235.475349E-3
234.482002E-3
234.610176E-3
234.721756E-3
233.880043E-3
234.710312E-3
234.022522E-3
234.627342E-3
235.220146E-3
234.817886E-3
235.969162E-3
235.796356E-3
236.443520E-3
237.081528E-3
236.583710E-3
237.828827E-3
237.257767E-3
237.323570E-3
236.765671E-3
234.388733E-3
232.895279E-3
229.522133E-3
226.810455E-3
224.434662E-3
221.290398E-3
220.404625E-3
218.380165E-3
217.951012E-3
218.147278E-3
217.457771E-3
218.720055E-3
218.548393E-3
219.557762E-3
220.841789E-3
220.915604E-3
222.459412E-3
222.473717E-3
223.822975E-3
225.495529E-3
225.960159E-3
227.992630E-3
228.105927E-3
228.912163E-3
229.509544E-3
228.677559E-3
229.192543E-3
228.190041E-3
228.186035E-3
228.243828E-3
227.347183E-3
227.993774E-3
227.386093E-3
227.921104E-3
228.775406E-3
228.448677E-3
229.857445E-3
229.680634E-3
230.494881E-3
231.594086E-3
231.491661E-3
232.824898E-3
232.787132E-3
233.599663E-3
234.431648E-3
234.016228E-3
235.072517E-3
234.697151E-3
235.197258E-3
235.591507E-3
234.928894E-3
235.557175E-3
234.879112E-3
234.882545E-3
235.267639E-3
234.289169E-3
235.121727E-3
234.313202E-3
234.567261E-3
235.081673E-3
234.524345E-3
235.505104E-3
235.182381E-3
235.878181E-3
236.561394E-3
236.283302E-3
237.302971E-3
237.201691E-3
237.661743E-3
238.086891E-3
236.468697E-3
235.674477E-3
232.705307E-3
230.300331E-3
227.987480E-3
224.585152E-3
223.035622E-3
220.618629E-3
219.910812E-3
219.806671E-3
218.948936E-3
219.897079E-3
219.703102E-3
220.624352E-3
221.781921E-3
221.961021E-3
223.365211E-3
223.597527E-3
224.597168E-3
226.022530E-3
226.483154E-3
228.319359E-3
228.728485E-3
229.973030E-3
231.002426E-3
230.596733E-3
231.385803E-3
230.708313E-3
230.783844E-3
230.956650E-3
229.729843E-3
230.172729E-3
229.428291E-3
229.754448E-3
230.393028E-3
229.973030E-3
231.122589E-3
231.119728E-3
232.229805E-3
233.327293E-3
233.310699E-3
234.949493E-3
235.035324E-3
235.994911E-3
237.026596E-3
236.383438E-3
237.391090E-3
237.111282E-3
237.562752E-3
238.019371E-3
237.262344E-3
237.892914E-3
237.222862E-3
237.498093E-3
237.723541E-3
236.948204E-3
237.614822E-3
237.038040E-3
237.385368E-3
237.923241E-3
237.341309E-3
238.536072E-3
238.512611E-3
239.141464E-3
240.039253E-3
239.542580E-3
240.578842E-3
240.182304E-3
240.978241E-3
241.774178E-3
241.184807E-3
241.636276E-3
239.943123E-3
238.293457E-3
236.510468E-3
232.937622E-3
230.895424E-3
227.873611E-3
226.365852E-3
225.678062E-3
224.435806E-3
225.082397E-3
225.038910E-3
226.019669E-3
227.338600E-3
227.359772E-3
228.925323E-3
229.042053E-3
229.970169E-3
231.073380E-3
231.247902E-3
233.246040E-3
233.959579E-3
235.278511E-3
236.636925E-3
236.274719E-3
237.166214E-3
236.251831E-3
236.098480E-3
236.121368E-3
235.027313E-3
235.564041E-3
234.931183E-3
235.192108E-3
235.919380E-3
235.472488E-3
236.511612E-3
236.479568E-3
237.168503E-3
238.118362E-3
237.762451E-3
239.216423E-3
239.337158E-3
240.241241E-3
241.283798E-3
241.070938E-3
242.305183E-3
242.151833E-3
242.360115E-3
242.847633E-3
241.917801E-3
242.493439E-3
241.758156E-3
241.936111E-3
242.457962E-3
241.787910E-3
242.527199E-3
241.843987E-3
241.874313E-3
242.241669E-3
241.328430E-3
242.024231E-3
241.591072E-3
241.812515E-3
242.291451E-3
241.500092E-3
242.340088E-3
242.013931E-3
242.548943E-3
243.325996E-3
242.782974E-3
243.146896E-3
241.603661E-3
239.776039E-3
237.805367E-3
234.257698E-3
232.149124E-3
228.968239E-3
227.200127E-3
226.237679E-3
224.676132E-3
225.147629E-3
224.987984E-3
225.865746E-3
227.310562E-3
227.377510E-3
229.108429E-3
229.470062E-3
230.506897E-3
231.566048E-3
231.641006E-3
233.219719E-3
233.568192E-3
234.436798E-3
235.485649E-3
235.021019E-3
235.860443E-3
235.329437E-3
235.338593E-3
235.403252E-3
234.450531E-3
234.938622E-3
234.345818E-3
234.566689E-3
235.350037E-3
234.919739E-3
236.026382E-3
236.060715E-3
237.059212E-3
238.221359E-3
238.125801E-3
239.513969E-3
239.490509E-3
240.210915E-3
240.923309E-3
240.571404E-3
241.687202E-3
241.263771E-3
241.602516E-3
242.124367E-3
241.294670E-3
241.699791E-3
240.935898E-3
240.857506E-3
241.224289E-3
240.304184E-3
240.852928E-3
240.300751E-3
240.697861E-3
241.345024E-3
240.613747E-3
241.593933E-3
241.431999E-3
241.934395E-3
242.735481E-3
242.019081E-3
242.876816E-3
242.785263E-3
243.246460E-3
243.604088E-3
242.237091E-3
241.718102E-3
239.277077E-3
236.944771E-3
234.672546E-3
231.215286E-3
229.435730E-3
227.021599E-3
225.992203E-3
225.603676E-3
224.474716E-3
225.427437E-3
225.422287E-3
226.194763E-3
227.411270E-3
227.402687E-3
228.767967E-3
228.897858E-3
229.746437E-3
230.763817E-3
230.990410E-3
232.885551E-3
233.256912E-3
234.450531E-3
235.530853E-3
235.010719E-3
235.806656E-3
235.116577E-3
235.027885E-3
235.243034E-3
234.159279E-3
234.702873E-3
233.839417E-3
233.905792E-3
234.271431E-3
233.762169E-3
234.748077E-3
234.655380E-3
235.392380E-3
236.464119E-3
236.468697E-3
237.892342E-3
238.072014E-3
238.797569E-3
239.683914E-3
239.101410E-3
240.119934E-3
239.538574E-3
239.695358E-3
240.110207E-3
239.143753E-3
239.748001E-3
239.178658E-3
239.186096E-3
239.591789E-3
238.697433E-3
239.410400E-3
238.819885E-3
238.985252E-3
239.633560E-3
238.953781E-3
240.040398E-3
239.952278E-3
240.690994E-3
241.533852E-3
241.086960E-3
242.227936E-3
241.941261E-3
242.126083E-3
242.149544E-3
240.159988E-3
238.926888E-3
235.728836E-3
233.068657E-3
230.778694E-3
227.671623E-3
226.555824E-3
224.561691E-3
223.970032E-3
224.160004E-3
223.621559E-3
224.717903E-3
224.763107E-3
225.445175E-3
226.622772E-3
226.556396E-3
227.898216E-3
227.943993E-3
229.052353E-3
230.394745E-3
230.592728E-3
232.145691E-3
232.336235E-3
232.961655E-3
233.600807E-3
232.793427E-3
233.331299E-3
232.371712E-3
232.070160E-3
232.155418E-3
231.120872E-3
231.781197E-3
231.087112E-3
231.237030E-3
231.731415E-3
231.126595E-3
232.290459E-3
232.266998E-3
233.076096E-3
234.298897E-3
234.255409E-3
235.820961E-3
235.943413E-3
236.741638E-3
237.627983E-3
237.400818E-3
238.568115E-3
238.226509E-3
238.501740E-3
239.019012E-3
238.256264E-3
238.847923E-3
237.952423E-3
237.965012E-3
238.253975E-3
237.442589E-3
238.389015E-3
238.070869E-3
238.422775E-3
239.284515E-3
238.958359E-3
239.923668E-3
239.689636E-3
240.054131E-3
240.820885E-3
240.408325E-3
241.415977E-3
240.838051E-3
240.318489E-3
239.247894E-3
236.246109E-3
234.334946E-3
230.849648E-3
228.422928E-3
226.742363E-3
224.110794E-3
223.614693E-3
222.264290E-3
222.221375E-3
222.882271E-3
222.553253E-3
224.054718E-3
224.135399E-3
225.128746E-3
226.224518E-3
226.036835E-3
227.332878E-3
227.601242E-3
228.793144E-3
230.429077E-3
230.624771E-3
232.273293E-3
232.157707E-3
232.498169E-3
233.089828E-3
232.073593E-3
232.454109E-3
231.546593E-3
231.203842E-3
231.468201E-3
230.632782E-3
231.382942E-3
230.922318E-3
231.472778E-3
232.343674E-3
232.382011E-3
234.152985E-3
234.597015E-3
235.689354E-3
237.026024E-3
237.024879E-3
238.443375E-3
238.471985E-3
238.994408E-3
239.709091E-3
238.960648E-3
239.746857E-3
239.290810E-3
239.299393E-3
239.608955E-3
238.624763E-3
239.279938E-3
238.489151E-3
238.479996E-3
238.930321E-3
238.045120E-3
238.958931E-3
238.581276E-3
238.898277E-3
239.698792E-3
239.215279E-3
240.397453E-3
240.236092E-3
240.559959E-3
241.152763E-3
240.604019E-3
241.511536E-3
240.753937E-3
239.796066E-3
238.783264E-3
235.613823E-3
233.925247E-3
230.787849E-3
228.489876E-3
227.129173E-3
224.925041E-3
224.826050E-3
223.982620E-3
224.244118E-3
225.243187E-3
225.146484E-3
226.799583E-3
227.137756E-3
228.139114E-3
229.481506E-3
229.533577E-3
231.398392E-3
231.837845E-3
232.979965E-3
234.437943E-3
234.433365E-3
235.682487E-3
235.217285E-3
235.347176E-3
235.667610E-3
234.544373E-3
235.147476E-3
234.419060E-3
234.366989E-3
234.881973E-3
234.117508E-3
235.134888E-3
234.967232E-3
235.660172E-3
236.634636E-3
236.365128E-3
237.818527E-3
237.995911E-3
238.716888E-3
239.846420E-3
239.548302E-3
240.832329E-3
240.567398E-3
240.954781E-3
241.602516E-3
240.849495E-3
241.781044E-3
241.164780E-3
240.941048E-3
241.318130E-3
240.275002E-3
241.113853E-3
240.519905E-3
240.704155E-3
241.362190E-3
240.605164E-3
241.767883E-3
241.535568E-3
241.892052E-3
242.661095E-3
241.836548E-3
242.735481E-3
242.327499E-3
242.657089E-3
243.649292E-3
243.079948E-3
243.807220E-3
242.468262E-3
240.836906E-3
238.993835E-3
235.503960E-3
233.987045E-3
231.272507E-3
229.559326E-3
228.747368E-3
227.279663E-3
228.105354E-3
228.067017E-3
228.758240E-3
230.036545E-3
229.939842E-3
231.657028E-3
232.000351E-3
232.561111E-3
233.870888E-3
233.925819E-3
235.944557E-3
236.691856E-3
237.598801E-3
238.760948E-3
238.118362E-3
238.962936E-3
238.253975E-3
237.902069E-3
237.983894E-3
236.687279E-3
237.527847E-3
237.033463E-3
237.048912E-3
237.790489E-3
237.105560E-3
238.572121E-3
238.584709E-3
238.949776E-3
240.146255E-3
240.066147E-3
241.738129E-3
241.821098E-3
242.320633E-3
243.133736E-3
242.373848E-3
243.448448E-3
243.012428E-3
242.829895E-3
243.088531E-3
241.846275E-3
242.482567E-3
241.621399E-3
241.243744E-3
241.545868E-3
240.590286E-3
241.569328E-3
241.143608E-3
241.163063E-3
241.830254E-3
241.187668E-3
242.426491E-3
242.135811E-3
242.190742E-3
242.954636E-3
242.310333E-3
243.494797E-3
243.116570E-3
242.818451E-3
242.729187E-3
240.426636E-3
239.318275E-3
236.350822E-3
233.239174E-3
231.079102E-3
227.944565E-3
226.996422E-3
225.301552E-3
224.575996E-3
225.040054E-3
224.500465E-3
226.205063E-3
226.560402E-3
227.172089E-3
228.415489E-3
228.237534E-3
229.646873E-3
229.880333E-3
230.517769E-3
232.105637E-3
232.461548E-3
234.444809E-3
234.728622E-3
235.181236E-3
235.768890E-3
234.851646E-3
235.858727E-3
235.378647E-3
234.963226E-3
235.239029E-3
234.262276E-3
235.192108E-3
234.848785E-3
235.087395E-3
236.145973E-3
235.868454E-3
237.533569E-3
237.804794E-3
238.320351E-3
239.531136E-3
239.244461E-3
240.870094E-3
241.003990E-3
241.370201E-3
242.156410E-3
241.298676E-3
242.168999E-3
241.711235E-3
241.228294E-3
241.681480E-3
240.544510E-3
241.406822E-3
240.933037E-3
240.570259E-3
240.841484E-3
239.929390E-3
240.931320E-3
240.400887E-3
240.207481E-3
240.939331E-3
240.185165E-3
241.339302E-3
240.934181E-3
240.892410E-3
241.704941E-3
241.270638E-3
242.079163E-3
241.135025E-3
239.780617E-3
238.371849E-3
235.084534E-3
233.259773E-3
230.176735E-3
227.555466E-3
225.976753E-3
223.608971E-3
223.491096E-3
222.780418E-3
222.506905E-3
223.238182E-3
222.820473E-3
224.434662E-3
224.740219E-3
225.254059E-3
226.433945E-3
226.339531E-3
228.198051E-3
229.023170E-3
230.358124E-3
232.273865E-3
232.330513E-3
233.922958E-3
233.941269E-3
233.888626E-3
234.123230E-3
232.965088E-3
233.535004E-3
232.945061E-3
232.443237E-3
233.147621E-3
232.395172E-3
233.658028E-3
233.592796E-3
234.072304E-3
235.160637E-3
234.926033E-3
236.571693E-3
236.614037E-3
237.108421E-3
238.197327E-3
237.866592E-3
239.404678E-3
239.273071E-3
239.212990E-3
239.926529E-3
238.878250E-3
239.441299E-3
238.900566E-3
238.350105E-3
238.596153E-3
237.657738E-3
238.465118E-3
238.031960E-3
237.979317E-3
238.719749E-3
238.029671E-3
239.029312E-3
238.746071E-3
238.816452E-3
239.622688E-3
239.001274E-3
240.091324E-3
240.005493E-3
240.250397E-3
241.026306E-3
239.994049E-3
240.054131E-3
238.148689E-3
235.806084E-3
233.683777E-3
229.850006E-3
228.228378E-3
225.653458E-3
223.962021E-3
223.448753E-3
222.007942E-3
222.631073E-3
222.314644E-3
222.515488E-3
223.483658E-3
223.159218E-3
224.682426E-3
224.764824E-3
225.139046E-3
226.544380E-3
226.636505E-3
228.821182E-3
229.788208E-3
230.818176E-3
232.468414E-3
232.094765E-3
233.184814E-3
232.620621E-3
232.130814E-3
232.157707E-3
230.695152E-3
231.004143E-3
230.187607E-3
229.839706E-3
230.478287E-3
229.852867E-3
231.155777E-3
231.111145E-3
231.532288E-3
232.812309E-3
232.766533E-3
234.133530E-3
234.404182E-3
234.571838E-3
235.695076E-3
235.298538E-3
236.576843E-3
236.460686E-3
236.624336E-3
237.534142E-3
236.758232E-3
237.634277E-3
237.220001E-3
236.872101E-3
237.537003E-3
236.688423E-3
237.695503E-3
237.677193E-3
237.760735E-3
238.760376E-3
238.355827E-3
239.734268E-3
240.052986E-3
240.328789E-3
241.391373E-3
240.890121E-3
241.830826E-3
241.825676E-3
241.732407E-3
242.315483E-3
240.754509E-3
240.203476E-3
237.632561E-3
234.742355E-3
232.654953E-3
229.343033E-3
227.927971E-3
225.974464E-3
224.606895E-3
224.483299E-3
223.360634E-3
224.462128E-3
224.473000E-3
224.823189E-3
226.133537E-3
225.936127E-3
227.535439E-3
227.926254E-3
228.229523E-3
229.800797E-3
230.251122E-3
232.304764E-3
233.092117E-3
233.751297E-3
234.948921E-3
234.134102E-3
235.057068E-3
234.424782E-3
233.940125E-3
234.360695E-3
233.355904E-3
234.096909E-3
233.750153E-3
233.495522E-3
234.357834E-3
233.803940E-3
235.130310E-3
235.404968E-3
235.883331E-3
237.193108E-3
236.976242E-3
238.442230E-3
238.633919E-3
238.792992E-3
239.959145E-3
239.594078E-3
240.860939E-3
240.577698E-3
240.364265E-3
241.090965E-3
240.058136E-3
240.560532E-3
239.969444E-3
239.711952E-3
240.418625E-3
239.634705E-3
240.665817E-3
240.669250E-3
240.783119E-3
242.047691E-3
241.690636E-3
243.111992E-3
242.982674E-3
243.017578E-3
243.857002E-3
243.356323E-3
244.550514E-3
244.464111E-3
244.271851E-3
244.113922E-3
241.559601E-3
240.051842E-3
236.892128E-3
233.905220E-3
231.970024E-3
228.957367E-3
228.301620E-3
227.031898E-3
226.208496E-3
227.142334E-3
226.855659E-3
228.441238E-3
228.620338E-3
229.114723E-3
230.439377E-3
229.929543E-3
231.254768E-3
231.546021E-3
232.162857E-3
234.106064E-3
234.216499E-3
235.872459E-3
235.940552E-3
235.851860E-3
236.646652E-3
235.515404E-3
236.083031E-3
235.219002E-3
234.532356E-3
235.100555E-3
233.963013E-3
234.725761E-3
234.549522E-3
234.457397E-3
235.486794E-3
235.200691E-3
236.703873E-3
237.046051E-3
237.276649E-3
238.623047E-3
238.373566E-3
239.661026E-3
239.770317E-3
239.752007E-3
240.735626E-3
240.044403E-3
241.018295E-3
240.727615E-3
240.410042E-3
241.175652E-3
240.318489E-3
241.235733E-3
240.903282E-3
240.727043E-3
241.521835E-3
240.811157E-3
241.850853E-3
241.623116E-3
241.654587E-3
242.650795E-3
242.284584E-3
243.427849E-3
243.475342E-3
243.419838E-3
244.543076E-3
243.804359E-3
244.538498E-3
243.206978E-3
241.283798E-3
239.670181E-3
236.009216E-3
233.715248E-3
230.644226E-3
228.044701E-3
227.025032E-3
224.975395E-3
225.192261E-3
224.754524E-3
224.773407E-3
226.020813E-3
225.702095E-3
227.118874E-3
227.540016E-3
227.558327E-3
228.794289E-3
228.386307E-3
230.003357E-3
230.762100E-3
231.393242E-3
