Notes :


2023-10-30 ¿ÀÈÄ 11:31:05
Volts
Ch : LED 2,
96.557236E-3
95.782471E-3
96.271706E-3
96.305466E-3
95.928955E-3
96.756363E-3
96.061707E-3
96.759796E-3
96.907425E-3
96.612740E-3
97.505379E-3
96.800995E-3
97.535706E-3
97.773170E-3
97.444153E-3
98.429489E-3
97.700500E-3
98.391151E-3
98.556519E-3
98.242378E-3
99.156189E-3
98.291016E-3
98.753929E-3
98.847198E-3
98.433495E-3
99.332428E-3
98.629761E-3
99.373055E-3
99.890327E-3
99.947548E-3
101.245880E-3
100.645065E-3
101.039886E-3
100.758934E-3
99.625969E-3
99.404526E-3
97.521973E-3
97.152328E-3
96.412468E-3
95.520973E-3
96.032524E-3
95.067215E-3
95.277214E-3
95.599937E-3
95.177650E-3
96.275711E-3
95.785904E-3
96.474838E-3
97.048759E-3
96.776962E-3
97.900772E-3
97.703362E-3
98.544502E-3
99.335861E-3
99.323273E-3
100.396729E-3
99.846840E-3
100.279427E-3
100.494576E-3
99.951553E-3
100.754356E-3
100.056267E-3
100.213051E-3
100.503159E-3
99.983597E-3
100.867653E-3
100.254250E-3
100.817299E-3
101.266479E-3
100.989532E-3
102.007484E-3
101.427269E-3
102.125931E-3
102.437782E-3
101.939392E-3
102.722740E-3
102.012634E-3
102.600288E-3
102.977371E-3
102.522469E-3
103.718376E-3
103.107834E-3
103.776741E-3
104.310036E-3
103.871727E-3
104.859352E-3
104.297447E-3
104.578972E-3
105.011559E-3
104.525757E-3
105.417252E-3
104.839897E-3
105.529404E-3
106.071854E-3
105.411530E-3
105.697632E-3
104.205322E-3
103.241730E-3
102.105904E-3
99.992180E-3
99.556732E-3
97.966003E-3
97.740555E-3
97.928810E-3
97.457314E-3
98.396873E-3
98.101044E-3
98.856926E-3
99.728966E-3
99.425125E-3
100.376701E-3
99.884605E-3
100.427055E-3
101.206970E-3
100.968361E-3
102.206039E-3
102.344513E-3
103.276062E-3
104.011917E-3
103.643990E-3
104.417610E-3
103.852272E-3
103.932953E-3
104.142952E-3
103.244591E-3
103.714943E-3
103.191376E-3
103.396797E-3
103.820229E-3
103.276062E-3
104.201317E-3
103.858566E-3
104.323769E-3
104.761505E-3
104.152107E-3
105.041313E-3
104.910278E-3
105.326843E-3
106.117630E-3
105.709648E-3
106.566238E-3
106.105614E-3
106.398582E-3
106.639481E-3
105.774879E-3
106.166267E-3
105.331993E-3
105.459023E-3
105.976868E-3
105.142593E-3
105.760574E-3
105.527115E-3
105.916786E-3
106.536484E-3
106.217194E-3
107.246017E-3
106.868362E-3
107.036018E-3
107.023430E-3
105.335426E-3
104.932594E-3
103.218842E-3
102.223778E-3
101.513672E-3
100.103188E-3
100.159836E-3
99.225998E-3
99.045753E-3
99.358177E-3
98.771667E-3
99.572182E-3
99.274635E-3
99.716377E-3
100.647926E-3
100.262260E-3
101.392937E-3
101.431274E-3
102.321625E-3
103.268051E-3
103.241158E-3
104.423332E-3
104.433060E-3
104.907417E-3
105.446434E-3
104.725456E-3
105.458450E-3
104.921150E-3
104.843903E-3
105.095100E-3
104.228210E-3
104.968643E-3
104.618454E-3
104.815865E-3
105.509949E-3
104.953194E-3
106.035233E-3
105.885315E-3
106.094170E-3
106.772232E-3
106.406021E-3
107.679176E-3
107.569313E-3
107.783890E-3
108.416176E-3
107.834816E-3
108.725166E-3
108.407021E-3
108.285713E-3
108.724022E-3
107.762718E-3
108.572388E-3
108.121490E-3
108.015060E-3
108.451080E-3
107.718658E-3
108.988380E-3
108.861923E-3
109.127426E-3
109.873581E-3
109.229851E-3
110.383415E-3
110.063553E-3
109.719658E-3
109.573746E-3
107.806778E-3
107.467461E-3
105.915070E-3
104.641914E-3
104.194450E-3
102.584267E-3
103.096390E-3
102.440071E-3
102.127647E-3
102.659225E-3
101.925087E-3
102.983093E-3
102.861214E-3
102.990532E-3
103.955269E-3
103.638268E-3
104.743195E-3
104.787254E-3
105.110550E-3
106.192589E-3
105.913925E-3
107.169914E-3
107.175064E-3
107.209969E-3
107.806778E-3
106.973648E-3
107.729530E-3
107.216263E-3
106.968498E-3
107.320976E-3
106.493568E-3
107.240868E-3
106.733894E-3
106.677246E-3
107.370758E-3
106.789970E-3
107.925797E-3
107.723808E-3
107.964706E-3
109.050179E-3
108.687401E-3
109.878731E-3
109.812927E-3
110.018349E-3
110.967064E-3
110.342216E-3
111.130142E-3
110.769653E-3
110.402870E-3
110.888100E-3
110.018349E-3
110.820007E-3
110.357666E-3
109.969139E-3
110.695839E-3
109.883881E-3
110.750771E-3
110.592842E-3
110.347366E-3
111.205101E-3
110.618019E-3
111.390495E-3
111.253738E-3
111.112976E-3
111.888885E-3
110.881805E-3
111.028290E-3
109.654427E-3
108.202171E-3
107.636833E-3
105.989456E-3
105.776024E-3
104.867363E-3
104.161263E-3
104.450798E-3
103.768730E-3
104.492569E-3
104.483414E-3
104.732323E-3
105.798912E-3
105.542564E-3
106.588554E-3
106.509018E-3
106.589127E-3
107.738686E-3
107.522964E-3
108.558655E-3
108.843613E-3
108.703423E-3
109.509659E-3
108.879662E-3
109.431267E-3
109.168053E-3
108.711433E-3
109.366608E-3
108.637047E-3
109.113693E-3
108.904266E-3
108.463097E-3
109.350586E-3
108.782387E-3
109.419250E-3
109.412956E-3
109.368324E-3
110.366249E-3
110.020638E-3
110.886955E-3
110.979080E-3
110.797691E-3
111.685753E-3
111.266327E-3
111.924362E-3
111.847687E-3
111.517525E-3
112.323761E-3
111.638832E-3
112.455940E-3
112.306023E-3
111.886597E-3
112.684822E-3
112.029076E-3
112.458229E-3
112.394142E-3
111.955261E-3
112.692833E-3
112.074280E-3
112.553215E-3
112.368965E-3
112.070847E-3
112.928009E-3
112.173843E-3
112.508011E-3
111.887741E-3
110.700989E-3
110.351372E-3
108.369255E-3
107.773018E-3
106.702423E-3
105.401230E-3
105.523109E-3
104.384422E-3
104.698563E-3
104.720306E-3
104.437637E-3
105.501366E-3
105.116272E-3
105.905342E-3
106.106758E-3
105.872154E-3
106.981659E-3
106.400871E-3
107.193375E-3
107.622528E-3
107.647133E-3
108.555794E-3
107.909775E-3
108.382988E-3
108.331490E-3
107.839966E-3
108.594131E-3
107.497215E-3
107.742691E-3
107.720375E-3
107.089806E-3
107.932091E-3
106.947899E-3
107.546425E-3
107.565880E-3
107.334709E-3
108.538055E-3
107.945251E-3
108.671951E-3
109.075928E-3
108.955193E-3
110.062981E-3
109.371758E-3
109.954262E-3
110.273552E-3
109.916496E-3
110.783386E-3
110.038376E-3
110.406303E-3
110.360527E-3
109.895897E-3
110.654068E-3
109.762001E-3
110.172272E-3
110.337639E-3
110.065842E-3
110.914421E-3
110.159683E-3
110.824013E-3
111.110115E-3
110.805702E-3
111.998749E-3
111.429405E-3
111.862564E-3
112.089157E-3
111.332703E-3
111.815643E-3
110.152817E-3
109.427261E-3
108.503151E-3
106.649208E-3
106.392288E-3
104.707718E-3
104.490280E-3
104.142952E-3
103.388786E-3
104.158401E-3
103.355598E-3
104.053116E-3
104.728317E-3
104.394722E-3
105.632401E-3
105.260468E-3
105.923080E-3
106.550789E-3
106.409454E-3
107.708931E-3
107.396507E-3
108.013916E-3
108.602142E-3
108.062553E-3
108.861923E-3
107.966995E-3
108.125496E-3
108.210754E-3
107.442856E-3
108.108330E-3
107.351875E-3
107.528114E-3
107.777596E-3
107.164192E-3
107.999039E-3
107.414818E-3
107.929802E-3
108.534622E-3
108.180428E-3
109.243584E-3
108.686256E-3
109.181786E-3
109.677315E-3
109.290504E-3
110.081291E-3
109.586334E-3
109.969139E-3
110.370255E-3
109.768295E-3
110.454941E-3
109.664154E-3
110.010910E-3
110.319901E-3
109.779739E-3
110.477829E-3
109.864426E-3
109.977722E-3
110.335350E-3
109.866714E-3
110.612869E-3
110.242081E-3
110.662079E-3
111.205673E-3
110.666084E-3
111.655998E-3
111.194801E-3
111.262894E-3
111.015701E-3
109.423256E-3
108.982658E-3
107.148743E-3
106.214333E-3
105.583191E-3
104.092026E-3
104.372978E-3
103.482628E-3
103.443146E-3
103.991890E-3
103.457451E-3
104.331207E-3
104.025650E-3
104.697418E-3
105.481911E-3
105.221558E-3
106.167412E-3
106.095314E-3
106.717873E-3
107.702637E-3
107.384491E-3
108.358955E-3
107.818794E-3
107.982445E-3
108.565521E-3
107.645988E-3
108.182716E-3
107.470894E-3
107.348442E-3
107.757568E-3
106.878090E-3
107.349586E-3
106.610298E-3
106.763077E-3
107.247162E-3
106.700706E-3
107.715797E-3
107.557869E-3
107.985878E-3
108.924866E-3
108.559227E-3
109.778023E-3
109.537697E-3
109.867859E-3
110.438919E-3
109.814644E-3
110.572815E-3
110.048676E-3
110.084724E-3
110.537910E-3
109.650421E-3
110.388565E-3
110.007477E-3
109.977722E-3
110.275269E-3
109.635544E-3
110.444069E-3
110.153961E-3
110.240936E-3
110.688400E-3
110.144234E-3
111.193657E-3
111.009407E-3
111.025429E-3
111.559296E-3
110.710144E-3
111.673737E-3
110.993958E-3
110.280991E-3
109.841537E-3
108.083725E-3
107.652855E-3
106.122208E-3
105.133438E-3
104.717445E-3
103.276062E-3
103.838539E-3
103.340149E-3
103.348732E-3
103.956413E-3
103.599358E-3
104.798698E-3
104.754639E-3
105.150032E-3
105.845833E-3
105.329132E-3
106.567383E-3
106.658936E-3
107.129860E-3
108.285141E-3
107.995033E-3
108.982086E-3
108.852196E-3
108.611870E-3
109.030151E-3
107.979012E-3
108.684540E-3
108.102036E-3
107.823944E-3
108.364677E-3
107.647133E-3
108.465958E-3
108.293724E-3
108.341217E-3
109.263039E-3
108.669090E-3
109.705353E-3
109.823227E-3
109.733391E-3
110.606003E-3
109.978294E-3
110.935593E-3
110.585976E-3
110.664940E-3
111.357880E-3
110.662079E-3
111.550713E-3
111.233711E-3
111.008835E-3
111.831093E-3
111.043167E-3
112.096596E-3
111.910057E-3
111.696625E-3
112.412453E-3
111.765289E-3
112.574959E-3
112.316895E-3
112.201881E-3
113.134003E-3
112.562370E-3
113.563728E-3
113.504791E-3
113.417244E-3
114.421463E-3
113.727951E-3
114.142227E-3
113.171196E-3
112.060547E-3
111.666298E-3
109.837532E-3
109.457588E-3
108.309174E-3
107.395935E-3
107.547569E-3
106.637764E-3
107.114410E-3
106.766510E-3
106.572533E-3
107.459450E-3
107.027435E-3
107.997322E-3
108.207893E-3
108.142662E-3
109.211540E-3
109.093094E-3
110.314751E-3
110.634613E-3
110.637474E-3
111.614227E-3
111.067772E-3
111.686325E-3
111.344147E-3
110.686111E-3
111.260605E-3
110.430336E-3
110.941887E-3
110.646629E-3
110.266685E-3
111.000252E-3
110.494995E-3
111.183929E-3
111.084366E-3
110.855484E-3
112.011909E-3
111.551285E-3
112.388992E-3
112.600136E-3
112.741470E-3
113.793182E-3
113.386917E-3
114.106178E-3
114.384842E-3
113.992310E-3
114.893532E-3
114.345360E-3
114.900398E-3
114.559937E-3
114.013481E-3
114.548492E-3
113.897896E-3
114.470100E-3
114.295006E-3
113.991165E-3
114.906693E-3
114.530182E-3
115.188789E-3
115.331841E-3
115.045166E-3
115.662003E-3
114.787674E-3
115.302086E-3
115.201950E-3
114.584541E-3
114.852333E-3
113.498497E-3
113.033867E-3
111.917496E-3
110.408592E-3
110.163116E-3
108.463669E-3
108.188438E-3
107.522964E-3
106.874657E-3
107.651138E-3
107.015419E-3
108.018494E-3
108.190155E-3
108.094597E-3
109.244156E-3
108.560371E-3
109.248734E-3
109.487343E-3
109.331131E-3
110.399437E-3
109.849548E-3
110.624313E-3
110.793686E-3
110.586548E-3
111.379623E-3
110.445786E-3
110.754776E-3
110.663223E-3
110.022926E-3
110.652351E-3
109.628105E-3
110.171700E-3
110.288429E-3
110.057831E-3
111.058617E-3
110.327339E-3
111.005402E-3
111.318970E-3
111.077499E-3
112.302017E-3
111.647987E-3
112.278557E-3
112.589264E-3
112.401581E-3
113.561440E-3
112.915993E-3
113.404083E-3
113.586044E-3
113.089371E-3
113.802338E-3
112.822723E-3
113.138580E-3
113.144302E-3
112.570953E-3
113.449287E-3
112.538338E-3
113.087654E-3
113.211250E-3
112.945747E-3
113.920212E-3
113.333702E-3
113.875580E-3
114.181137E-3
113.758850E-3
114.710426E-3
113.829231E-3
113.806915E-3
113.204956E-3
111.678886E-3
111.310959E-3
109.267616E-3
108.536339E-3
107.864571E-3
106.371117E-3
106.617737E-3
105.420685E-3
105.515671E-3
105.925369E-3
105.584335E-3
106.680679E-3
106.388283E-3
107.021141E-3
107.632828E-3
107.494926E-3
108.526039E-3
108.404732E-3
109.328842E-3
110.139084E-3
109.899330E-3
111.009407E-3
110.356522E-3
110.757065E-3
110.902977E-3
110.091591E-3
110.592270E-3
109.826660E-3
109.922218E-3
110.140228E-3
109.598923E-3
110.312462E-3
109.558296E-3
110.033798E-3
110.587692E-3
110.227203E-3
111.096382E-3
110.666656E-3
111.098099E-3
111.511803E-3
111.015129E-3
111.966705E-3
111.602211E-3
111.954689E-3
112.283707E-3
111.697197E-3
112.469673E-3
111.673737E-3
111.958122E-3
112.206459E-3
111.571884E-3
112.160110E-3
111.391640E-3
111.626244E-3
112.010193E-3
111.428261E-3
112.258530E-3
111.771584E-3
112.286568E-3
112.768364E-3
112.263107E-3
112.948036E-3
112.469101E-3
112.719154E-3
112.737465E-3
111.258316E-3
110.973930E-3
109.328842E-3
108.429337E-3
107.593346E-3
105.952263E-3
105.976868E-3
104.794693E-3
104.640770E-3
104.804420E-3
104.121208E-3
104.903984E-3
104.592133E-3
105.282784E-3
106.024361E-3
105.724525E-3
106.797409E-3
106.608009E-3
107.235718E-3
108.106041E-3
108.018494E-3
109.099960E-3
108.789253E-3
109.186363E-3
109.731674E-3
109.114265E-3
109.643555E-3
109.016991E-3
109.051895E-3
109.395790E-3
108.602142E-3
109.100533E-3
108.464813E-3
108.524323E-3
108.932304E-3
108.384705E-3
109.097672E-3
108.956337E-3
109.262466E-3
109.852982E-3
109.325409E-3
110.251808E-3
109.854698E-3
110.316467E-3
110.955620E-3
110.377121E-3
111.072350E-3
110.647774E-3
110.715294E-3
111.104393E-3
110.325050E-3
111.003685E-3
110.694122E-3
110.765648E-3
111.242294E-3
110.428619E-3
111.263466E-3
110.959625E-3
111.084938E-3
111.663437E-3
111.118698E-3
111.974716E-3
111.570168E-3
111.811066E-3
112.245369E-3
111.514091E-3
112.248230E-3
111.237717E-3
110.436630E-3
109.749985E-3
107.730675E-3
107.503510E-3
106.127930E-3
105.287933E-3
104.940605E-3
103.821945E-3
104.483986E-3
104.061127E-3
104.112625E-3
104.870796E-3
104.382706E-3
105.537987E-3
105.615807E-3
105.804634E-3
106.610870E-3
106.185150E-3
107.444572E-3
107.556152E-3
108.007050E-3
108.762932E-3
108.150673E-3
109.088516E-3
108.571243E-3
108.301163E-3
108.605003E-3
107.727242E-3
108.428192E-3
107.936668E-3
107.796478E-3
108.150101E-3
107.450294E-3
108.386421E-3
108.266258E-3
108.336067E-3
109.110832E-3
108.586693E-3
109.646416E-3
109.739685E-3
109.850121E-3
110.643768E-3
110.061264E-3
111.147308E-3
110.900116E-3
110.913849E-3
111.375046E-3
110.511017E-3
111.160469E-3
110.849190E-3
110.662079E-3
111.093521E-3
110.223198E-3
110.960770E-3
110.679245E-3
110.623169E-3
111.419678E-3
110.817146E-3
111.923218E-3
111.731529E-3
111.792183E-3
112.593269E-3
112.034798E-3
112.819290E-3
112.513733E-3
112.217331E-3
112.552643E-3
111.058617E-3
110.997963E-3
109.568596E-3
108.050537E-3
107.416534E-3
105.697060E-3
105.949402E-3
105.281639E-3
104.851913E-3
105.588913E-3
104.991531E-3
105.905342E-3
105.989456E-3
106.040955E-3
107.141304E-3
106.860924E-3
107.948112E-3
107.950974E-3
108.313751E-3
109.446716E-3
109.359741E-3
110.552788E-3
110.686684E-3
110.608864E-3
111.289215E-3
110.573959E-3
111.125565E-3
110.701561E-3
110.238075E-3
110.825729E-3
110.008621E-3
110.560226E-3
110.273552E-3
109.890175E-3
110.575676E-3
109.963417E-3
110.783386E-3
110.664368E-3
110.406303E-3
111.229706E-3
110.938454E-3
111.919212E-3
112.166977E-3
112.130928E-3
113.104820E-3
112.530899E-3
113.186646E-3
112.986374E-3
112.478256E-3
112.968636E-3
112.316895E-3
112.837029E-3
112.843895E-3
112.517738E-3
113.386917E-3
112.845612E-3
113.683891E-3
113.559723E-3
113.392639E-3
