Notes :


2023-11-06 ¿ÀÈÄ 6:55:37
Volts
Ch : LED 2,
227.626991E-3
227.721977E-3
227.855873E-3
227.700806E-3
227.791214E-3
227.712822E-3
227.739143E-3
227.818680E-3
227.683640E-3
227.764893E-3
227.796936E-3
227.795792E-3
227.968025E-3
227.782631E-3
227.934265E-3
227.816963E-3
227.937698E-3
228.048134E-3
227.881050E-3
227.966881E-3
227.795792E-3
227.867889E-3
228.032112E-3
228.044128E-3
228.135109E-3
228.151131E-3
228.089333E-3
228.066444E-3
227.710533E-3
227.622414E-3
227.321434E-3
227.047920E-3
226.891708E-3
226.410484E-3
226.445961E-3
226.198769E-3
226.207924E-3
226.290894E-3
226.007080E-3
226.206779E-3
226.259995E-3
226.261711E-3
226.474571E-3
226.389885E-3
226.587296E-3
226.712608E-3
226.777840E-3
227.029037E-3
227.021599E-3
227.278519E-3
227.324867E-3
227.395248E-3
227.563477E-3
227.392960E-3
227.572060E-3
227.441597E-3
227.363777E-3
227.402687E-3
227.117157E-3
227.066803E-3
227.146339E-3
227.059364E-3
227.292252E-3
227.122307E-3
227.267075E-3
227.343750E-3
227.263069E-3
227.498817E-3
227.425575E-3
227.624130E-3
227.660179E-3
227.538872E-3
227.735138E-3
227.648163E-3
227.779198E-3
227.883911E-3
227.697945E-3
227.798080E-3
227.652168E-3
227.819824E-3
227.764893E-3
227.677345E-3
227.740860E-3
227.573776E-3
227.827835E-3
227.719688E-3
227.717400E-3
227.811813E-3
227.696228E-3
227.783775E-3
227.788925E-3
227.647591E-3
227.752304E-3
227.646446E-3
227.758598E-3
227.845001E-3
227.699089E-3
227.849007E-3
227.748871E-3
227.975464E-3
227.897644E-3
227.751160E-3
227.977180E-3
227.834702E-3
227.762604E-3
227.661896E-3
227.321434E-3
227.229881E-3
226.941490E-3
226.667976E-3
226.563263E-3
226.224518E-3
226.334381E-3
226.060295E-3
226.200485E-3
226.172447E-3
226.050568E-3
226.187325E-3
226.248550E-3
226.422501E-3
226.462555E-3
226.507759E-3
226.736641E-3
226.752663E-3
226.824188E-3
227.106285E-3
227.117729E-3
227.372932E-3
227.371216E-3
227.537727E-3
227.586365E-3
227.469635E-3
227.613831E-3
227.402115E-3
227.440453E-3
227.372932E-3
227.308846E-3
227.420425E-3
227.285957E-3
227.292252E-3
227.403831E-3
227.362061E-3
227.651024E-3
227.568054E-3
227.625847E-3
227.815819E-3
227.812958E-3
228.001213E-3
227.968597E-3
228.121948E-3
228.131104E-3
228.143120E-3
228.235245E-3
228.129387E-3
228.160286E-3
228.292465E-3
228.201485E-3
228.292465E-3
228.152847E-3
228.164291E-3
228.246117E-3
228.041267E-3
228.290749E-3
228.230667E-3
228.179169E-3
228.254700E-3
228.248405E-3
228.379440E-3
228.251266E-3
228.346825E-3
228.487587E-3
228.384018E-3
228.544807E-3
228.303337E-3
228.418922E-3
228.547668E-3
228.345108E-3
228.599167E-3
228.418350E-3
228.506470E-3
228.464127E-3
228.152847E-3
228.041840E-3
227.740288E-3
227.574921E-3
227.339172E-3
226.968956E-3
226.890564E-3
226.614189E-3
226.579285E-3
226.667976E-3
226.528931E-3
226.687431E-3
226.681137E-3
226.789856E-3
226.878548E-3
226.944351E-3
227.155495E-3
227.179527E-3
227.257347E-3
227.517700E-3
227.517128E-3
227.750015E-3
227.737427E-3
227.742004E-3
227.921104E-3
227.803802E-3
227.953720E-3
227.800369E-3
227.870178E-3
227.918243E-3
227.782631E-3
227.859306E-3
227.792358E-3
227.788925E-3
227.914238E-3
227.781487E-3
228.053856E-3
228.154564E-3
228.208351E-3
228.436089E-3
228.359985E-3
228.601456E-3
228.622055E-3
228.709030E-3
228.783989E-3
228.611755E-3
228.764534E-3
228.792572E-3
228.749657E-3
228.885269E-3
228.778839E-3
228.846931E-3
228.919601E-3
228.892136E-3
229.032326E-3
228.941917E-3
229.070663E-3
229.049492E-3
228.900146E-3
229.041481E-3
228.910446E-3
229.109573E-3
229.049492E-3
229.065514E-3
229.133606E-3
229.042053E-3
229.068947E-3
229.141045E-3
229.008865E-3
229.181099E-3
228.997993E-3
228.994560E-3
228.864098E-3
228.636360E-3
228.668404E-3
228.247261E-3
228.165436E-3
227.782631E-3
227.484512E-3
227.366638E-3
227.132607E-3
227.088547E-3
227.130318E-3
226.931190E-3
227.055359E-3
226.999855E-3
227.192116E-3
227.327728E-3
227.217865E-3
227.529716E-3
227.403831E-3
227.732849E-3
227.792358E-3
227.786636E-3
227.984047E-3
227.921677E-3
228.067589E-3
228.010941E-3
228.021240E-3
228.116798E-3
228.076172E-3
227.966309E-3
228.095055E-3
227.871323E-3
228.008080E-3
227.945137E-3
228.004646E-3
228.053284E-3
227.897072E-3
228.112793E-3
228.023529E-3
228.279877E-3
228.281021E-3
228.406334E-3
228.523636E-3
228.493309E-3
228.513336E-3
228.745651E-3
228.668976E-3
228.759384E-3
228.636360E-3
228.674698E-3
228.710747E-3
228.504181E-3
228.635788E-3
228.482437E-3
228.642082E-3
228.630066E-3
228.486443E-3
228.696442E-3
228.577995E-3
228.619194E-3
228.698158E-3
228.560257E-3
228.725052E-3
228.659821E-3
228.582573E-3
228.706741E-3
228.579140E-3
228.738213E-3
228.668404E-3
228.733063E-3
228.877258E-3
228.681564E-3
228.805733E-3
228.582001E-3
228.483582E-3
228.282738E-3
227.997780E-3
227.876472E-3
227.519417E-3
227.201843E-3
227.051353E-3
226.705170E-3
226.852798E-3
226.647377E-3
226.622772E-3
226.641655E-3
226.527214E-3
226.750946E-3
226.703453E-3
226.925468E-3
227.002716E-3
226.928902E-3
227.193832E-3
227.176666E-3
227.396393E-3
227.555466E-3
227.561188E-3
227.747726E-3
227.735138E-3
227.830124E-3
228.056145E-3
227.849579E-3
227.944565E-3
227.724266E-3
227.701950E-3
227.772331E-3
227.637291E-3
227.724838E-3
227.647591E-3
227.744293E-3
227.780342E-3
227.728844E-3
227.879906E-3
227.871323E-3
227.857590E-3
228.139114E-3
228.018379E-3
228.307343E-3
228.242683E-3
228.308487E-3
228.479004E-3
228.416634E-3
228.477859E-3
228.406906E-3
228.461838E-3
228.447533E-3
228.319931E-3
228.390312E-3
228.365707E-3
228.291893E-3
228.412628E-3
228.315353E-3
228.431511E-3
228.289032E-3
228.372574E-3
228.457832E-3
228.254700E-3
228.392601E-3
228.309059E-3
228.374863E-3
228.418922E-3
228.263283E-3
228.382301E-3
228.310204E-3
228.327370E-3
228.492165E-3
228.350830E-3
228.454399E-3
228.315353E-3
228.034973E-3
227.964592E-3
227.496529E-3
227.421570E-3
226.936340E-3
226.716614E-3
226.565552E-3
226.243973E-3
226.365852E-3
226.184464E-3
226.197624E-3
226.395607E-3
226.214790E-3
226.404190E-3
226.472282E-3
226.404762E-3
226.583290E-3
226.463127E-3
226.718330E-3
226.767540E-3
226.933479E-3
227.140617E-3
227.138329E-3
227.382088E-3
227.335739E-3
227.466202E-3
227.469063E-3
227.321434E-3
227.309418E-3
227.334595E-3
227.214432E-3
227.240181E-3
227.090263E-3
227.233315E-3
227.179527E-3
227.103424E-3
227.331734E-3
227.197266E-3
227.438164E-3
227.391815E-3
227.439308E-3
227.635002E-3
227.632141E-3
227.747726E-3
227.774048E-3
227.638435E-3
227.940559E-3
227.826118E-3
227.973175E-3
227.942848E-3
227.849579E-3
227.983475E-3
227.758598E-3
228.055573E-3
227.914238E-3
227.858734E-3
228.036690E-3
227.902794E-3
227.982330E-3
227.988052E-3
227.900505E-3
228.070450E-3
227.949142E-3
228.057289E-3
228.163147E-3
227.996635E-3
228.222656E-3
228.090477E-3
228.201485E-3
228.193474E-3
228.168869E-3
228.315926E-3
228.191185E-3
228.290749E-3
228.091049E-3
227.884483E-3
227.822113E-3
227.613831E-3
227.490807E-3
227.090263E-3
226.659393E-3
226.484299E-3
226.268578E-3
226.280594E-3
226.198196E-3
226.046562E-3
226.215363E-3
226.130104E-3
226.373863E-3
226.348114E-3
226.383018E-3
226.602745E-3
226.609039E-3
226.751518E-3
226.907158E-3
226.848793E-3
227.090836E-3
227.069664E-3
227.142906E-3
227.281952E-3
227.212143E-3
227.421570E-3
227.239609E-3
227.242470E-3
227.274513E-3
227.136612E-3
227.246475E-3
227.076530E-3
227.180672E-3
227.246475E-3
227.176666E-3
227.351761E-3
227.362633E-3
227.457619E-3
227.644730E-3
227.522850E-3
227.818680E-3
227.749443E-3
227.954292E-3
228.024673E-3
227.847290E-3
228.083611E-3
228.021240E-3
228.091621E-3
228.072739E-3
227.961731E-3
228.137970E-3
228.050423E-3
228.011513E-3
228.059578E-3
227.960014E-3
228.121948E-3
228.069878E-3
228.085899E-3
228.151131E-3
228.080750E-3
228.268433E-3
228.168869E-3
228.333664E-3
228.348541E-3
228.315926E-3
228.535652E-3
228.384590E-3
228.343391E-3
228.474998E-3
228.468132E-3
228.627777E-3
228.511620E-3
228.459549E-3
228.649521E-3
228.412628E-3
228.456688E-3
228.127670E-3
227.977180E-3
227.727127E-3
227.310562E-3
227.155495E-3
226.739502E-3
226.722908E-3
226.765251E-3
226.648521E-3
226.716614E-3
226.714897E-3
226.724625E-3
226.999283E-3
226.970673E-3
227.138329E-3
227.138329E-3
227.305412E-3
227.491379E-3
227.499962E-3
227.845573E-3
227.871323E-3
228.046417E-3
228.202057E-3
228.138542E-3
228.243256E-3
228.190041E-3
228.128242E-3
228.214073E-3
227.969742E-3
228.102493E-3
228.067589E-3
228.099632E-3
228.243828E-3
228.049850E-3
228.295326E-3
228.222084E-3
228.479576E-3
228.608894E-3
228.496170E-3
228.640366E-3
228.658104E-3
228.690720E-3
228.798866E-3
228.755951E-3
228.881836E-3
228.920174E-3
228.836060E-3
229.074669E-3
228.847504E-3
228.971100E-3
228.883553E-3
228.830338E-3
229.015160E-3
228.835487E-3
228.970528E-3
228.979683E-3
228.901863E-3
228.952217E-3
228.801727E-3
228.881836E-3
228.970528E-3
228.782845E-3
228.975105E-3
228.818321E-3
228.963661E-3
228.892708E-3
228.770828E-3
228.945923E-3
228.736496E-3
228.996849E-3
228.965950E-3
229.009438E-3
229.026031E-3
228.826332E-3
228.840637E-3
228.706741E-3
228.440666E-3
228.222084E-3
227.852440E-3
227.608109E-3
227.279091E-3
226.957512E-3
227.011871E-3
226.724052E-3
226.911736E-3
226.752663E-3
226.756668E-3
227.002144E-3
226.924896E-3
227.134895E-3
227.200699E-3
227.249908E-3
227.418709E-3
227.423286E-3
227.696228E-3
227.820969E-3
227.774620E-3
228.001785E-3
227.902794E-3
228.122520E-3
228.096771E-3
228.015518E-3
228.100204E-3
227.906799E-3
228.035545E-3
227.936554E-3
227.929687E-3
228.007507E-3
227.996635E-3
228.077316E-3
228.163719E-3
228.026390E-3
228.223228E-3
228.231812E-3
228.417778E-3
228.495598E-3
228.396606E-3
228.632927E-3
228.550529E-3
228.701019E-3
228.672409E-3
228.564262E-3
228.774834E-3
228.604317E-3
228.737068E-3
228.740501E-3
228.611755E-3
228.695869E-3
228.570557E-3
228.669548E-3
228.692436E-3
228.550529E-3
228.747940E-3
228.603745E-3
228.762817E-3
228.717041E-3
228.577995E-3
228.773117E-3
228.622627E-3
228.670120E-3
228.711319E-3
228.596306E-3
228.671837E-3
228.721046E-3
228.663254E-3
228.825188E-3
228.738213E-3
228.899574E-3
228.652382E-3
228.606033E-3
228.586578E-3
228.269005E-3
228.199196E-3
227.774048E-3
227.556610E-3
227.206421E-3
226.899719E-3
226.884842E-3
226.640511E-3
226.591301E-3
226.550102E-3
226.459694E-3
226.562691E-3
226.550674E-3
226.696014E-3
226.885986E-3
226.805305E-3
227.051926E-3
227.010155E-3
227.290535E-3
227.519989E-3
227.475357E-3
227.811813E-3
227.650452E-3
227.819824E-3
227.903366E-3
227.915955E-3
228.072739E-3
227.896500E-3
227.878761E-3
227.821541E-3
227.711678E-3
227.890205E-3
227.748299E-3
227.790642E-3
227.972603E-3
227.898788E-3
228.105927E-3
227.886772E-3
228.055000E-3
228.190041E-3
228.194046E-3
228.433228E-3
228.453827E-3
228.475571E-3
228.594589E-3
228.564262E-3
228.769684E-3
228.661537E-3
228.616333E-3
228.826332E-3
228.642654E-3
228.812027E-3
228.646660E-3
228.661537E-3
228.753662E-3
228.603745E-3
228.748512E-3
228.656960E-3
228.860664E-3
228.923607E-3
228.815460E-3
228.900719E-3
228.806305E-3
228.841782E-3
228.878403E-3
228.762817E-3
229.000282E-3
228.833199E-3
228.877831E-3
229.012871E-3
228.936768E-3
229.183960E-3
229.029465E-3
229.114723E-3
229.216003E-3
228.961372E-3
228.956223E-3
228.705597E-3
228.472137E-3
228.222084E-3
227.783203E-3
227.621841E-3
227.405548E-3
227.151489E-3
227.168655E-3
227.018738E-3
227.026176E-3
226.907158E-3
226.966095E-3
227.087402E-3
226.967239E-3
227.193260E-3
227.150345E-3
227.335739E-3
227.444458E-3
227.499962E-3
227.705383E-3
227.822113E-3
227.878761E-3
228.073311E-3
228.010941E-3
228.225517E-3
228.164291E-3
228.143120E-3
228.244972E-3
228.056145E-3
228.161430E-3
228.047562E-3
227.943993E-3
228.090477E-3
227.918816E-3
228.004646E-3
228.028679E-3
228.001785E-3
228.163719E-3
228.084755E-3
228.214073E-3
228.319931E-3
228.241539E-3
228.422928E-3
228.338814E-3
228.650093E-3
228.543663E-3
228.480148E-3
228.627205E-3
228.443527E-3
228.617477E-3
228.616333E-3
228.577995E-3
228.654671E-3
228.442955E-3
228.518486E-3
228.587151E-3
228.527641E-3
228.651237E-3
228.528214E-3
228.709602E-3
228.648949E-3
228.610039E-3
228.751373E-3
228.601456E-3
228.750801E-3
228.688431E-3
228.710175E-3
228.824043E-3
228.710175E-3
228.812599E-3
228.854942E-3
228.760529E-3
229.060364E-3
228.883553E-3
228.991699E-3
229.064941E-3
228.790283E-3
228.932762E-3
228.583717E-3
228.524780E-3
228.137970E-3
227.800369E-3
227.672195E-3
227.288818E-3
227.230453E-3
226.996422E-3
226.953506E-3
226.991272E-3
226.915741E-3
226.965523E-3
227.114296E-3
227.030754E-3
227.398109E-3
227.285957E-3
227.528572E-3
227.626419E-3
227.613831E-3
227.889061E-3
227.911377E-3
228.164864E-3
228.121376E-3
228.106499E-3
228.259277E-3
228.215218E-3
228.326797E-3
228.256989E-3
228.073883E-3
228.186607E-3
228.049278E-3
228.062439E-3
228.116798E-3
227.990913E-3
228.213501E-3
228.064156E-3
228.238106E-3
228.310204E-3
228.282166E-3
228.511620E-3
228.492165E-3
228.726768E-3
228.759956E-3
228.903580E-3
229.100990E-3
228.989983E-3
228.920174E-3
229.011726E-3
228.955078E-3
229.119873E-3
229.011726E-3
229.063797E-3
229.088402E-3
228.987694E-3
229.165649E-3
229.043198E-3
229.121017E-3
229.131317E-3
229.160500E-3
229.283524E-3
229.149628E-3
229.165649E-3
229.306412E-3
229.194260E-3
229.408264E-3
229.344749E-3
229.379082E-3
229.574203E-3
229.266930E-3
229.573059E-3
229.355621E-3
229.539299E-3
229.555893E-3
229.502678E-3
229.629135E-3
229.365921E-3
229.377937E-3
229.302406E-3
229.006577E-3
228.924751E-3
228.440094E-3
228.153419E-3
227.977180E-3
227.685356E-3
227.806664E-3
227.527428E-3
227.568626E-3
227.697945E-3
227.691078E-3
227.969742E-3
227.868462E-3
228.012085E-3
228.118515E-3
228.167725E-3
228.345680E-3
228.368568E-3
228.496742E-3
228.750229E-3
228.702164E-3
228.860664E-3
228.715324E-3
228.842926E-3
228.948784E-3
228.736496E-3
228.880119E-3
228.619766E-3
228.726768E-3
228.709030E-3
228.618622E-3
228.749657E-3
228.627777E-3
228.697014E-3
228.874969E-3
228.721046E-3
228.971100E-3
228.936768E-3
228.956223E-3
229.221725E-3
229.023743E-3
229.295540E-3
229.085541E-3
229.222870E-3
229.349327E-3
229.221725E-3
229.335594E-3
229.188538E-3
229.214859E-3
229.310417E-3
229.119301E-3
229.233742E-3
229.155350E-3
229.124451E-3
229.352188E-3
229.146767E-3
229.265213E-3
229.117012E-3
229.095268E-3
229.242897E-3
229.092407E-3
229.257774E-3
229.221725E-3
229.235458E-3
229.244614E-3
229.052353E-3
229.106140E-3
229.134750E-3
229.129601E-3
229.372215E-3
229.241753E-3
229.273224E-3
229.174805E-3
229.079247E-3
229.045486E-3
228.656387E-3
228.575706E-3
228.148842E-3
227.777481E-3
227.620697E-3
227.301979E-3
227.388382E-3
227.181816E-3
227.101135E-3
227.180672E-3
227.114868E-3
