Notes :


2023-11-06 ¿ÀÈÄ 7:12:35
Volts
Ch : LED 2,
192.034721E-3
191.764069E-3
191.829872E-3
191.751480E-3
191.673660E-3
191.933441E-3
191.881943E-3
192.190361E-3
192.240715E-3
192.222404E-3
192.525673E-3
192.511368E-3
192.697334E-3
192.905617E-3
192.906761E-3
193.310738E-3
193.446922E-3
193.713570E-3
193.842316E-3
193.861771E-3
194.003677E-3
193.890381E-3
194.062042E-3
194.032860E-3
193.973923E-3
194.153595E-3
194.044304E-3
194.059181E-3
194.046593E-3
193.940735E-3
194.158745E-3
194.175911E-3
194.330406E-3
194.431686E-3
194.442558E-3
194.760704E-3
194.730377E-3
194.827080E-3
194.958687E-3
194.880295E-3
195.119476E-3
195.024490E-3
195.161247E-3
195.260239E-3
195.223618E-3
195.379829E-3
195.320892E-3
195.406723E-3
195.401001E-3
195.394707E-3
195.649910E-3
195.418167E-3
195.475960E-3
195.476532E-3
195.435905E-3
195.671082E-3
195.549202E-3
195.566940E-3
195.602989E-3
195.509148E-3
195.762634E-3
195.728302E-3
195.837021E-3
195.861626E-3
195.849037E-3
196.009827E-3
195.933723E-3
195.934868E-3
195.826149E-3
195.490265E-3
195.299721E-3
194.760704E-3
194.214249E-3
193.773079E-3
193.131638E-3
192.950821E-3
192.444992E-3
192.261887E-3
192.137718E-3
192.035294E-3
192.246437E-3
192.174911E-3
192.351723E-3
192.590332E-3
192.634964E-3
192.866135E-3
192.890167E-3
192.984009E-3
193.196297E-3
193.250084E-3
193.644333E-3
193.862343E-3
194.040298E-3
194.233704E-3
194.223404E-3
194.379044E-3
194.340134E-3
194.376183E-3
194.452286E-3
194.297791E-3
194.418526E-3
194.261742E-3
194.355583E-3
194.435692E-3
194.342422E-3
194.463730E-3
194.429398E-3
194.480324E-3
194.704628E-3
194.645691E-3
194.827652E-3
194.794464E-3
194.946671E-3
195.140076E-3
195.039940E-3
195.185280E-3
195.231056E-3
195.246506E-3
195.366096E-3
195.272827E-3
195.458221E-3
195.402718E-3
195.455933E-3
195.570374E-3
195.423889E-3
195.513153E-3
195.484543E-3
195.518303E-3
195.621872E-3
195.497131E-3
195.598412E-3
195.571518E-3
195.630455E-3
195.731163E-3
195.640182E-3
195.795822E-3
195.739174E-3
195.846748E-3
195.926285E-3
195.831871E-3
195.946312E-3
195.851326E-3
195.961189E-3
196.063042E-3
195.807838E-3
195.669937E-3
195.249939E-3
194.740105E-3
194.377899E-3
193.667793E-3
193.396568E-3
192.816353E-3
192.477608E-3
192.421532E-3
192.195511E-3
192.426682E-3
192.455864E-3
192.606926E-3
192.817497E-3
192.883873E-3
193.175697E-3
193.283272E-3
193.411446E-3
193.585396E-3
193.635178E-3
193.888664E-3
194.116402E-3
194.192505E-3
194.438553E-3
194.355583E-3
194.590759E-3
194.480896E-3
194.392776E-3
194.494629E-3
194.319534E-3
194.435692E-3
194.384193E-3
194.285774E-3
194.393921E-3
194.203377E-3
194.311523E-3
194.357872E-3
194.237137E-3
194.542694E-3
194.474030E-3
194.641685E-3
194.748688E-3
194.700623E-3
194.911766E-3
194.804192E-3
195.011902E-3
195.042801E-3
194.907188E-3
195.154953E-3
194.970703E-3
195.181274E-3
195.224190E-3
195.041656E-3
195.209885E-3
195.087433E-3
195.239639E-3
195.136070E-3
195.065117E-3
195.230484E-3
195.085716E-3
195.198441E-3
195.186996E-3
195.034790E-3
195.263100E-3
195.199585E-3
195.356941E-3
195.372391E-3
195.189285E-3
195.417023E-3
195.347786E-3
195.482826E-3
195.584106E-3
195.554352E-3
195.648766E-3
195.369530E-3
195.205879E-3
194.791603E-3
194.161606E-3
193.800545E-3
193.203163E-3
192.818069E-3
192.466164E-3
191.957474E-3
191.913986E-3
191.657066E-3
191.770363E-3
191.926575E-3
191.899109E-3
192.216110E-3
192.245865E-3
192.460442E-3
192.589188E-3
192.679596E-3
192.994881E-3
193.020630E-3
193.242645E-3
193.356514E-3
193.441200E-3
193.740463E-3
193.762779E-3
193.878937E-3
193.951035E-3
193.876076E-3
193.922997E-3
193.789101E-3
193.854904E-3
193.820572E-3
193.759346E-3
193.946457E-3
193.768501E-3
193.889809E-3
193.933296E-3
193.846321E-3
194.064331E-3
194.034576E-3
194.185066E-3
194.328690E-3
194.305801E-3
194.569016E-3
194.515228E-3
194.724083E-3
194.784737E-3
194.780159E-3
194.922638E-3
194.821358E-3
194.899178E-3
194.975281E-3
194.872284E-3
195.085144E-3
195.008469E-3
195.027924E-3
195.129204E-3
194.995880E-3
195.125198E-3
194.978142E-3
195.033073E-3
195.124626E-3
195.036507E-3
195.184708E-3
195.082855E-3
195.150948E-3
195.258522E-3
195.170403E-3
195.437050E-3
195.251656E-3
195.348930E-3
195.391846E-3
195.347214E-3
195.510292E-3
195.407295E-3
195.591545E-3
195.662498E-3
195.518303E-3
195.513725E-3
195.047951E-3
194.468307E-3
193.864632E-3
193.124199E-3
192.682457E-3
192.031860E-3
191.701126E-3
191.619873E-3
191.466522E-3
191.617012E-3
191.510010E-3
191.659927E-3
191.972351E-3
191.994095E-3
192.238426E-3
192.327690E-3
192.383194E-3
192.561722E-3
192.547989E-3
192.795181E-3
192.933083E-3
193.094444E-3
193.415451E-3
193.394279E-3
193.596840E-3
193.634605E-3
193.593979E-3
193.693542E-3
193.437767E-3
193.560219E-3
193.432045E-3
193.444061E-3
193.539047E-3
193.378258E-3
193.472099E-3
193.454361E-3
193.527031E-3
193.698692E-3
193.641472E-3
193.859482E-3
193.807411E-3
193.935013E-3
194.157028E-3
194.108963E-3
194.262314E-3
194.222832E-3
194.317245E-3
194.518661E-3
194.429398E-3
194.565582E-3
194.534683E-3
194.566154E-3
194.692039E-3
194.516373E-3
194.602203E-3
194.586754E-3
194.575310E-3
194.709778E-3
194.561577E-3
194.692612E-3
194.615936E-3
194.655991E-3
194.773865E-3
194.581604E-3
194.786453E-3
194.776154E-3
194.753838E-3
194.925499E-3
194.804764E-3
194.940948E-3
194.899750E-3
194.944382E-3
195.047951E-3
194.958115E-3
195.077133E-3
195.049667E-3
194.986153E-3
194.932938E-3
194.427109E-3
194.104958E-3
193.567657E-3
193.011475E-3
192.537117E-3
191.918564E-3
191.616440E-3
191.366386E-3
191.287994E-3
191.299438E-3
191.286850E-3
191.454506E-3
191.585541E-3
191.705132E-3
191.888809E-3
191.905975E-3
192.169762E-3
192.226410E-3
192.241287E-3
192.517662E-3
192.490768E-3
192.835808E-3
193.004036E-3
193.074989E-3
193.299866E-3
193.224335E-3
193.370819E-3
193.320465E-3
193.264961E-3
193.349075E-3
193.181419E-3
193.250084E-3
193.204880E-3
193.224907E-3
193.314743E-3
193.156242E-3
193.329620E-3
193.421173E-3
193.418312E-3
193.587685E-3
193.572807E-3
193.749046E-3
193.854332E-3
193.742180E-3
194.010544E-3
193.925858E-3
194.196510E-3
194.146729E-3
194.129562E-3
194.240570E-3
194.203377E-3
194.432831E-3
194.420815E-3
194.320679E-3
194.451714E-3
194.294930E-3
194.476318E-3
194.420815E-3
194.268608E-3
194.436264E-3
194.295502E-3
194.410515E-3
194.385910E-3
194.252014E-3
194.474602E-3
194.456863E-3
194.597054E-3
194.641113E-3
194.482040E-3
194.618225E-3
194.550133E-3
194.710350E-3
194.712639E-3
194.653702E-3
194.835091E-3
194.685173E-3
194.787598E-3
194.700623E-3
194.445992E-3
194.289207E-3
193.725014E-3
193.291283E-3
192.731667E-3
192.136574E-3
191.818428E-3
191.357231E-3
191.146660E-3
191.106033E-3
191.041374E-3
191.221619E-3
191.218185E-3
191.421318E-3
191.589546E-3
191.653061E-3
191.967773E-3
191.935158E-3
192.125130E-3
192.254448E-3
192.310524E-3
192.672729E-3
192.733383E-3
192.915916E-3
193.088150E-3
193.068123E-3
193.274689E-3
193.097305E-3
193.161964E-3
193.140221E-3
193.038940E-3
193.091011E-3
192.965698E-3
193.004036E-3
192.982864E-3
192.936516E-3
193.129349E-3
193.061256E-3
193.172836E-3
193.359375E-3
193.398285E-3
193.615150E-3
193.631744E-3
193.675232E-3
193.802834E-3
193.825150E-3
194.027710E-3
193.910980E-3
194.064331E-3
194.062042E-3
194.052315E-3
194.270325E-3
194.146729E-3
194.186211E-3
194.267464E-3
194.107246E-3
194.386482E-3
194.213104E-3
194.229698E-3
194.348145E-3
194.247437E-3
194.507217E-3
194.363022E-3
194.370461E-3
194.510078E-3
194.382477E-3
194.622803E-3
194.607925E-3
194.664574E-3
194.685173E-3
194.645119E-3
194.831657E-3
194.704056E-3
194.710350E-3
194.792747E-3
194.654274E-3
194.651413E-3
194.274902E-3
193.914413E-3
193.556786E-3
192.891884E-3
192.535973E-3
191.989517E-3
191.633034E-3
191.488266E-3
191.277122E-3
191.332054E-3
191.262245E-3
191.448784E-3
191.648483E-3
191.744041E-3
192.054176E-3
192.137718E-3
192.294502E-3
192.545128E-3
192.527390E-3
192.770004E-3
192.796898E-3
192.981148E-3
193.210602E-3
193.176270E-3
193.367958E-3
193.270683E-3
193.266678E-3
193.294716E-3
193.145943E-3
193.317604E-3
193.183708E-3
193.230057E-3
193.284416E-3
193.109894E-3
193.261528E-3
193.204308E-3
193.226624E-3
193.449211E-3
193.354225E-3
193.634605E-3
193.597412E-3
193.676376E-3
193.888092E-3
193.884087E-3
193.985939E-3
193.983078E-3
194.076920E-3
194.166756E-3
194.194221E-3
194.466591E-3
194.484329E-3
194.674301E-3
194.893456E-3
194.750977E-3
194.889450E-3
194.754982E-3
194.646263E-3
194.687462E-3
194.455147E-3
194.538689E-3
194.394493E-3
194.356728E-3
194.485474E-3
194.405937E-3
194.575882E-3
194.547844E-3
194.587326E-3
194.724655E-3
194.617653E-3
194.776154E-3
194.713211E-3
194.694328E-3
194.828796E-3
194.564438E-3
194.496346E-3
194.155312E-3
193.679237E-3
193.329048E-3
192.684174E-3
192.293930E-3
191.859627E-3
191.426468E-3
191.262245E-3
191.040802E-3
191.176414E-3
191.195297E-3
191.286850E-3
191.543198E-3
191.627312E-3
191.947746E-3
192.023849E-3
192.045593E-3
192.218399E-3
192.196655E-3
192.428398E-3
192.508507E-3
192.551422E-3
192.890739E-3
192.881012E-3
193.085861E-3
193.143654E-3
193.097305E-3
193.167686E-3
193.093300E-3
193.199730E-3
193.185997E-3
193.057823E-3
193.073845E-3
192.974854E-3
192.994881E-3
193.012047E-3
193.026924E-3
193.195724E-3
193.176270E-3
193.422318E-3
193.484116E-3
193.520737E-3
193.707275E-3
193.644333E-3
193.817139E-3
193.882370E-3
193.801689E-3
193.987656E-3
193.937302E-3
194.135857E-3
194.145012E-3
194.073486E-3
194.224548E-3
194.217110E-3
194.306374E-3
194.227982E-3
194.086075E-3
194.209099E-3
194.086647E-3
194.169617E-3
194.175339E-3
194.085503E-3
194.210815E-3
194.202232E-3
194.292641E-3
194.294357E-3
194.260025E-3
194.454002E-3
194.399643E-3
194.481468E-3
194.504356E-3
194.410515E-3
194.558144E-3
194.427109E-3
194.318390E-3
193.914986E-3
193.322182E-3
192.933083E-3
192.332840E-3
191.863060E-3
191.366386E-3
190.896606E-3
190.815353E-3
190.610504E-3
190.633392E-3
190.744400E-3
190.758705E-3
191.141510E-3
191.091156E-3
191.270256E-3
191.389275E-3
191.392708E-3
191.663361E-3
191.639900E-3
191.797256E-3
191.991234E-3
192.094231E-3
192.487907E-3
192.519379E-3
192.629814E-3
192.745399E-3
192.699051E-3
192.847252E-3
192.691040E-3
192.751122E-3
192.756844E-3
192.646408E-3
192.739105E-3
192.604065E-3
192.602348E-3
192.654991E-3
192.640114E-3
192.831802E-3
192.705345E-3
192.828941E-3
193.040657E-3
193.033218E-3
193.305016E-3
193.168831E-3
193.296432E-3
193.611717E-3
193.628883E-3
193.960190E-3
194.036865E-3
194.173050E-3
194.211960E-3
193.973923E-3
194.130135E-3
193.922997E-3
193.858910E-3
193.919563E-3
193.714714E-3
193.860054E-3
193.664360E-3
193.650627E-3
193.743896E-3
193.632889E-3
193.755913E-3
193.669510E-3
193.683815E-3
193.804550E-3
193.738747E-3
193.944740E-3
193.880081E-3
193.906403E-3
194.084930E-3
193.961334E-3
194.097519E-3
193.966484E-3
193.816566E-3
193.664932E-3
193.243790E-3
192.926788E-3
192.330551E-3
191.710854E-3
191.294289E-3
190.716362E-3
190.548706E-3
190.300369E-3
190.224838E-3
190.358734E-3
190.270615E-3
190.400505E-3
190.484619E-3
190.664291E-3
190.987015E-3
190.901756E-3
191.071129E-3
191.061974E-3
191.175842E-3
191.424751E-3
191.432190E-3
191.802979E-3
191.930008E-3
192.077637E-3
192.289925E-3
192.236137E-3
192.387772E-3
192.353439E-3
192.277336E-3
192.353439E-3
192.172050E-3
192.242432E-3
192.163467E-3
192.240715E-3
192.371178E-3
192.254448E-3
192.358589E-3
192.306519E-3
192.331696E-3
192.620659E-3
192.508507E-3
192.729378E-3
192.798042E-3
192.868423E-3
193.086433E-3
193.030930E-3
193.152237E-3
193.111610E-3
193.115616E-3
193.271255E-3
193.228340E-3
193.299294E-3
193.277550E-3
193.293571E-3
193.358231E-3
193.252373E-3
193.386269E-3
193.369102E-3
193.292999E-3
193.503571E-3
193.432617E-3
193.541336E-3
193.541336E-3
193.427467E-3
193.593407E-3
193.526459E-3
193.722153E-3
193.734741E-3
193.723297E-3
193.869209E-3
193.738174E-3
193.881798E-3
193.866920E-3
193.832016E-3
193.872070E-3
193.597984E-3
193.425751E-3
193.013763E-3
192.478752E-3
192.143440E-3
191.459084E-3
191.092873E-3
190.688324E-3
190.349579E-3
190.263176E-3
190.002251E-3
190.172195E-3
190.158463E-3
190.250587E-3
190.514946E-3
190.563011E-3
190.840530E-3
190.924644E-3
190.906334E-3
191.183281E-3
191.186142E-3
191.478539E-3
191.629028E-3
191.697121E-3
191.995811E-3
191.958618E-3
192.161179E-3
192.172623E-3
192.052460E-3
192.213821E-3
192.045021E-3
192.160606E-3
192.106247E-3
192.009544E-3
192.198944E-3
192.067337E-3
192.236137E-3
192.307663E-3
192.271614E-3
192.423248E-3
192.407227E-3
192.619514E-3
192.749405E-3
192.715073E-3
192.917061E-3
192.887878E-3
193.056679E-3
193.126488E-3
193.063545E-3
193.271828E-3
193.232346E-3
193.314171E-3
193.331909E-3
193.260956E-3
193.413162E-3
193.329620E-3
193.382263E-3
193.413734E-3
193.307304E-3
193.489838E-3
193.360519E-3
193.476105E-3
193.480682E-3
193.363380E-3
193.564796E-3
193.488121E-3
193.612862E-3
193.679237E-3
193.611717E-3
193.780518E-3
193.668938E-3
193.798828E-3
193.837738E-3
193.759346E-3
193.935585E-3
193.776512E-3
193.640327E-3
193.367958E-3
192.875290E-3
192.521095E-3
191.877365E-3
191.320038E-3
190.826225E-3
190.320969E-3
190.284348E-3
190.062904E-3
190.085793E-3
190.152740E-3
190.139580E-3
190.518379E-3
190.553856E-3
190.765572E-3
190.906334E-3
190.983582E-3
191.251945E-3
191.156960E-3
191.301727E-3
191.590118E-3
191.642189E-3
191.947174E-3
191.963196E-3
192.130280E-3
192.165756E-3
192.095947E-3
192.216110E-3
192.082787E-3
192.033005E-3
192.063332E-3
191.971779E-3
192.136574E-3
191.978645E-3
192.031288E-3
192.166901E-3
192.173767E-3
192.355156E-3
192.396927E-3
192.446136E-3
192.662430E-3
192.659569E-3
192.996597E-3
192.933655E-3
192.934227E-3
193.088150E-3
192.948532E-3
193.151665E-3
193.148232E-3
193.208313E-3
193.314743E-3
193.171692E-3
193.359375E-3
193.275833E-3
193.332481E-3
193.525314E-3
193.453789E-3
193.492699E-3
193.335342E-3
193.335915E-3
193.482399E-3
193.401718E-3
193.537903E-3
193.528175E-3
193.541908E-3
193.752480E-3
193.710136E-3
193.884087E-3
193.820572E-3
193.820000E-3
193.960190E-3
193.862915E-3
193.975639E-3
193.920135E-3
193.620300E-3
193.370247E-3
192.826653E-3
192.421532E-3
191.830444E-3
191.318893E-3
190.941238E-3
190.534973E-3
190.354156E-3
190.168190E-3
190.102386E-3
190.288353E-3
190.263748E-3
190.481186E-3
190.601349E-3
190.732956E-3
190.941811E-3
190.921211E-3
191.167259E-3
191.156387E-3
191.303444E-3
191.687393E-3
191.734314E-3
192.002678E-3
192.085075E-3
192.249870E-3
192.423820E-3
192.261314E-3
192.448997E-3
192.402649E-3
192.292213E-3
192.418098E-3
192.224121E-3
192.333412E-3
192.384338E-3
192.318535E-3
192.481041E-3
192.386055E-3
192.587471E-3
192.640686E-3
192.725945E-3
193.004608E-3
193.015480E-3
193.190575E-3
193.266678E-3
