Notes :


2023-12-11 ¿ÀÈÄ 10:26:42
Volts
Ch : LED 2,
625.143242E-3
624.851990E-3
625.693130E-3
625.389290E-3
625.360680E-3
625.756645E-3
625.100899E-3
625.824165E-3
625.853348E-3
625.970078E-3
626.196671E-3
626.204681E-3
626.783180E-3
625.995827E-3
626.412964E-3
627.295303E-3
627.475548E-3
628.486061E-3
628.438568E-3
628.946114E-3
629.905128E-3
630.419540E-3
631.483269E-3
631.617737E-3
632.517242E-3
633.538055E-3
633.402443E-3
634.420395E-3
634.442711E-3
634.575462E-3
635.077858E-3
633.395576E-3
631.514168E-3
626.455879E-3
620.004845E-3
612.772751E-3
604.258347E-3
596.791077E-3
589.494324E-3
584.691238E-3
582.057953E-3
580.410004E-3
582.107162E-3
584.444618E-3
587.592316E-3
592.020035E-3
595.174599E-3
599.281311E-3
601.516342E-3
603.888130E-3
605.853653E-3
606.389809E-3
607.741928E-3
607.359123E-3
607.457542E-3
607.693291E-3
608.116150E-3
609.607887E-3
610.971451E-3
612.297249E-3
614.118004E-3
614.262199E-3
614.638138E-3
613.699722E-3
612.510109E-3
611.192894E-3
608.929253E-3
608.412552E-3
606.714249E-3
605.828476E-3
606.202698E-3
606.503105E-3
607.481003E-3
608.789635E-3
610.402107E-3
612.561035E-3
613.977814E-3
616.282654E-3
617.676544E-3
619.499588E-3
621.368980E-3
622.006989E-3
623.589134E-3
624.057770E-3
624.932671E-3
626.371193E-3
626.048470E-3
626.947975E-3
626.686478E-3
626.870155E-3
627.513885E-3
627.040100E-3
627.145958E-3
626.829529E-3
626.600075E-3
627.215195E-3
626.175499E-3
626.388359E-3
626.122856E-3
625.999832E-3
626.501083E-3
625.708008E-3
626.364326E-3
626.303673E-3
626.532555E-3
627.366829E-3
626.802635E-3
627.739906E-3
628.042603E-3
628.603935E-3
629.178429E-3
629.139519E-3
630.267906E-3
630.718231E-3
631.268692E-3
632.399368E-3
632.321548E-3
633.629608E-3
634.132576E-3
634.527969E-3
635.674667E-3
634.964561E-3
635.933876E-3
635.536766E-3
634.849548E-3
633.534622E-3
628.671455E-3
623.387718E-3
615.609741E-3
606.727982E-3
598.355484E-3
589.610481E-3
584.095573E-3
579.514503E-3
577.836227E-3
578.204155E-3
579.488182E-3
582.813835E-3
586.404991E-3
589.871407E-3
593.721771E-3
596.122169E-3
598.772621E-3
600.202560E-3
601.118660E-3
602.219009E-3
601.312637E-3
601.630211E-3
601.108932E-3
600.876617E-3
601.676559E-3
601.792145E-3
603.642082E-3
605.470848E-3
607.279015E-3
609.019089E-3
609.044838E-3
609.678268E-3
608.826256E-3
608.061790E-3
607.451248E-3
605.933762E-3
605.652809E-3
605.228806E-3
604.803658E-3
605.665398E-3
606.038475E-3
607.528496E-3
608.660889E-3
609.931755E-3
612.249184E-3
613.169289E-3
615.440369E-3
616.660309E-3
617.691422E-3
619.549370E-3
619.967079E-3
621.607590E-3
622.404099E-3
622.871590E-3
623.981094E-3
623.842621E-3
624.743271E-3
624.870872E-3
624.989319E-3
625.597572E-3
624.942398E-3
625.815010E-3
625.806999E-3
625.593567E-3
625.788689E-3
625.437355E-3
626.121140E-3
626.355743E-3
625.800133E-3
626.271629E-3
626.071930E-3
627.072144E-3
626.939392E-3
626.811218E-3
627.933884E-3
627.357101E-3
628.448868E-3
628.771019E-3
629.070282E-3
629.986382E-3
629.532051E-3
631.056404E-3
631.103897E-3
632.001114E-3
633.171844E-3
633.179855E-3
634.344864E-3
635.107040E-3
635.383987E-3
636.495781E-3
636.117554E-3
636.997604E-3
637.212753E-3
637.166977E-3
637.010765E-3
634.628105E-3
631.763649E-3
626.156044E-3
618.638992E-3
610.698509E-3
601.732063E-3
594.689369E-3
588.083267E-3
583.728790E-3
582.453918E-3
582.048798E-3
584.625435E-3
587.660980E-3
590.832710E-3
595.383453E-3
598.289680E-3
602.380371E-3
605.035400E-3
606.561470E-3
608.186531E-3
608.403397E-3
609.237671E-3
609.288025E-3
608.768463E-3
609.305763E-3
609.325790E-3
611.112213E-3
612.721825E-3
614.033318E-3
615.741348E-3
615.957642E-3
616.094398E-3
615.200043E-3
613.371849E-3
612.344170E-3
610.175514E-3
609.567833E-3
608.350182E-3
607.811737E-3
608.528137E-3
608.731270E-3
610.559464E-3
611.650658E-3
613.343811E-3
615.100479E-3
616.410255E-3
618.656158E-3
620.215416E-3
621.339798E-3
622.765732E-3
623.373413E-3
624.509811E-3
625.558662E-3
625.921440E-3
626.895905E-3
626.493645E-3
627.389145E-3
627.602005E-3
627.813148E-3
628.355026E-3
627.947044E-3
628.246307E-3
628.191376E-3
628.042030E-3
628.532410E-3
627.719307E-3
627.973366E-3
628.076935E-3
627.465820E-3
627.607155E-3
627.155685E-3
627.605438E-3
627.847481E-3
627.480125E-3
628.191376E-3
627.703857E-3
628.511810E-3
629.059982E-3
629.597855E-3
630.908775E-3
630.937386E-3
631.981087E-3
632.732391E-3
633.288574E-3
634.402657E-3
634.431267E-3
635.393715E-3
635.797119E-3
635.871506E-3
636.240578E-3
635.242653E-3
633.451653E-3
630.493927E-3
624.482346E-3
618.260765E-3
609.542084E-3
602.058220E-3
594.966316E-3
588.577652E-3
585.693741E-3
583.785439E-3
584.918404E-3
586.375237E-3
589.371300E-3
593.642235E-3
596.911812E-3
600.715256E-3
603.808594E-3
606.131744E-3
608.442879E-3
609.410477E-3
610.683632E-3
610.887337E-3
611.038399E-3
612.141037E-3
612.248611E-3
614.136887E-3
616.016006E-3
616.851425E-3
618.252754E-3
618.069077E-3
617.984962E-3
616.995621E-3
615.235519E-3
614.061928E-3
611.504745E-3
610.302544E-3
608.892059E-3
607.849503E-3
608.641434E-3
608.400536E-3
609.831619E-3
610.937691E-3
612.242889E-3
614.507675E-3
615.844345E-3
618.355179E-3
620.155907E-3
621.248817E-3
623.135948E-3
623.643494E-3
625.189590E-3
626.111412E-3
626.304245E-3
627.403450E-3
627.449226E-3
627.847481E-3
628.080368E-3
628.032303E-3
628.649712E-3
628.466606E-3
628.550148E-3
628.510094E-3
628.040314E-3
628.472900E-3
627.850342E-3
627.979660E-3
627.555656E-3
627.226067E-3
628.067207E-3
627.607727E-3
627.816582E-3
628.084373E-3
627.752495E-3
628.676605E-3
628.252029E-3
628.978157E-3
629.297447E-3
629.208755E-3
630.320549E-3
630.383492E-3
631.010628E-3
631.927299E-3
631.955910E-3
633.094597E-3
633.625031E-3
634.370613E-3
635.333633E-3
635.200310E-3
636.204529E-3
636.126709E-3
636.108398E-3
635.032654E-3
631.987953E-3
627.965927E-3
620.974159E-3
613.090324E-3
603.803444E-3
594.752884E-3
587.927055E-3
581.730652E-3
578.137207E-3
577.030563E-3
577.925491E-3
581.042862E-3
583.907890E-3
587.594032E-3
591.574287E-3
594.568062E-3
598.539162E-3
600.358200E-3
602.174377E-3
603.171158E-3
603.180313E-3
603.925896E-3
603.073883E-3
603.104782E-3
602.999496E-3
602.981186E-3
604.879189E-3
605.853081E-3
608.018303E-3
609.448242E-3
610.018158E-3
611.321640E-3
610.532570E-3
610.339165E-3
609.123802E-3
607.613182E-3
607.506180E-3
605.976677E-3
605.899429E-3
605.987549E-3
605.738640E-3
607.130814E-3
607.661247E-3
609.356689E-3
611.254692E-3
612.266922E-3
614.636421E-3
615.696716E-3
617.296028E-3
618.885040E-3
619.771957E-3
621.277428E-3
621.612167E-3
622.267342E-3
623.312759E-3
623.339081E-3
624.360466E-3
624.283791E-3
624.550438E-3
625.165558E-3
624.827385E-3
625.706863E-3
625.142097E-3
624.785042E-3
625.431633E-3
625.067139E-3
625.611305E-3
625.272560E-3
625.623894E-3
625.922012E-3
625.191307E-3
625.797844E-3
625.900269E-3
626.261330E-3
626.875877E-3
626.858711E-3
627.905273E-3
627.652359E-3
628.260040E-3
628.674316E-3
628.914642E-3
630.203819E-3
629.992676E-3
630.934525E-3
631.983948E-3
632.143593E-3
633.377266E-3
633.653641E-3
634.620094E-3
635.656357E-3
635.941315E-3
636.736107E-3
636.155319E-3
636.333847E-3
635.355949E-3
632.200813E-3
628.771019E-3
621.924591E-3
613.746071E-3
605.316925E-3
596.142197E-3
589.015961E-3
582.916260E-3
579.832077E-3
579.304504E-3
579.742241E-3
582.806969E-3
585.705185E-3
589.800453E-3
594.108009E-3
597.376442E-3
601.091766E-3
602.711678E-3
604.585075E-3
606.059074E-3
606.202126E-3
606.861305E-3
606.253052E-3
606.200981E-3
606.545448E-3
606.665611E-3
608.480644E-3
609.542656E-3
611.130524E-3
612.714386E-3
612.849998E-3
613.417053E-3
612.411690E-3
611.605453E-3
610.612106E-3
609.203911E-3
608.694649E-3
607.366562E-3
607.055283E-3
607.991409E-3
608.306694E-3
609.972382E-3
610.715675E-3
612.297821E-3
613.857651E-3
615.047264E-3
617.078590E-3
618.369484E-3
619.842911E-3
621.483421E-3
622.463036E-3
623.892975E-3
624.291801E-3
625.287437E-3
626.224709E-3
626.198387E-3
627.124786E-3
627.270126E-3
627.760506E-3
628.117561E-3
627.641487E-3
628.459740E-3
627.933311E-3
628.393936E-3
628.622818E-3
627.996826E-3
628.526115E-3
627.935028E-3
628.015137E-3
628.526688E-3
628.036308E-3
629.023361E-3
628.382492E-3
628.857422E-3
629.532051E-3
629.264259E-3
629.918861E-3
630.098534E-3
630.489349E-3
631.697273E-3
631.893539E-3
633.133507E-3
633.257675E-3
634.271622E-3
635.619164E-3
635.746193E-3
636.459732E-3
636.723518E-3
637.338066E-3
638.257599E-3
637.866211E-3
638.634682E-3
637.965202E-3
637.015343E-3
634.779167E-3
629.813576E-3
624.124718E-3
615.761375E-3
607.818031E-3
600.575638E-3
593.499756E-3
589.744377E-3
587.015533E-3
587.173462E-3
589.335823E-3
591.451263E-3
595.606613E-3
598.916245E-3
602.435303E-3
606.514549E-3
609.109497E-3
611.531639E-3
612.532997E-3
613.651085E-3
614.649582E-3
614.369774E-3
615.305328E-3
615.806580E-3
617.242241E-3
619.226074E-3
620.050049E-3
621.154976E-3
621.024513E-3
620.503807E-3
619.765663E-3
617.800140E-3
616.097832E-3
613.942337E-3
612.308693E-3
610.854721E-3
609.613609E-3
610.079956E-3
609.995270E-3
610.959435E-3
612.809372E-3
613.888550E-3
616.104698E-3
617.725754E-3
619.464684E-3
621.553802E-3
622.670746E-3
624.697495E-3
625.467682E-3
626.566315E-3
628.007126E-3
627.947044E-3
629.116631E-3
629.090881E-3
629.313469E-3
630.297089E-3
629.496574E-3
630.091667E-3
629.774666E-3
629.983521E-3
630.495071E-3
629.658508E-3
630.080223E-3
629.610443E-3
629.821014E-3
630.341721E-3
629.560089E-3
629.695129E-3
629.315186E-3
629.490852E-3
630.032730E-3
629.237938E-3
629.984093E-3
630.039024E-3
630.255890E-3
631.071281E-3
630.876732E-3
631.715012E-3
632.284927E-3
633.076286E-3
634.226418E-3
634.338570E-3
635.612297E-3
636.177635E-3
636.561012E-3
637.481117E-3
637.407303E-3
638.000679E-3
637.438774E-3
636.284065E-3
634.050179E-3
628.760147E-3
622.772598E-3
614.247894E-3
605.165863E-3
597.398186E-3
589.735222E-3
584.933853E-3
581.976700E-3
581.484604E-3
583.204079E-3
584.905815E-3
588.835716E-3
592.560768E-3
596.091843E-3
600.251770E-3
602.121735E-3
604.705811E-3
606.043053E-3
607.122231E-3
607.956505E-3
607.143402E-3
607.493019E-3
606.973457E-3
607.307053E-3
608.829689E-3
609.630775E-3
611.889839E-3
613.401604E-3
614.414406E-3
615.257263E-3
614.270210E-3
614.214706E-3
612.743568E-3
611.430359E-3
610.381508E-3
608.433723E-3
608.134460E-3
607.729340E-3
607.842636E-3
609.083176E-3
609.903145E-3
611.715317E-3
613.117218E-3
614.471626E-3
616.697502E-3
617.874527E-3
620.390511E-3
621.739769E-3
622.684479E-3
624.048615E-3
624.277496E-3
625.641060E-3
626.126289E-3
626.521683E-3
627.422905E-3
627.274132E-3
627.889824E-3
628.330994E-3
627.725601E-3
628.242874E-3
627.626038E-3
628.630257E-3
628.636551E-3
628.647995E-3
628.464317E-3
627.413750E-3
628.367615E-3
629.003906E-3
629.209328E-3
629.691124E-3
628.895760E-3
629.437065E-3
629.508591E-3
630.197525E-3
631.201744E-3
630.960274E-3
631.525612E-3
632.057190E-3
632.676315E-3
633.665085E-3
633.875656E-3
635.042381E-3
635.510445E-3
635.872650E-3
637.153244E-3
637.359238E-3
638.509369E-3
638.623238E-3
638.794327E-3
639.042664E-3
637.829590E-3
636.704063E-3
633.259392E-3
627.968216E-3
620.619965E-3
611.282730E-3
602.592659E-3
593.871689E-3
587.266159E-3
583.490753E-3
580.816841E-3
581.841087E-3
583.582306E-3
586.246490E-3
590.373230E-3
593.780708E-3
597.713470E-3
600.835991E-3
602.875900E-3
604.815102E-3
604.993057E-3
606.087112E-3
606.135178E-3
605.461121E-3
604.977036E-3
603.979111E-3
604.664040E-3
605.337524E-3
606.625557E-3
608.821678E-3
610.106277E-3
612.035751E-3
612.301826E-3
612.137604E-3
612.078667E-3
610.460472E-3
609.816170E-3
608.884048E-3
607.947922E-3
607.971382E-3
607.505035E-3
608.193970E-3
609.062004E-3
610.207558E-3
611.894989E-3
612.792206E-3
614.944267E-3
616.540146E-3
617.616463E-3
619.975662E-3
620.760727E-3
622.520256E-3
623.328209E-3
623.670387E-3
624.984741E-3
625.036812E-3
626.167488E-3
626.531410E-3
626.735687E-3
627.292442E-3
626.527405E-3
627.247238E-3
627.215767E-3
626.917076E-3
627.733040E-3
627.318192E-3
627.722168E-3
627.180862E-3
627.054405E-3
627.329636E-3
626.645851E-3
627.230072E-3
627.493286E-3
627.371407E-3
628.013992E-3
627.872086E-3
629.140091E-3
629.543495E-3
630.066490E-3
631.369400E-3
631.851196E-3
632.869148E-3
633.939743E-3
634.441566E-3
635.212326E-3
634.961700E-3
635.366821E-3
634.786606E-3
632.629967E-3
629.819298E-3
624.060059E-3
617.791557E-3
610.066223E-3
601.242828E-3
594.421005E-3
588.502693E-3
585.111809E-3
583.830643E-3
583.783722E-3
585.832214E-3
588.218307E-3
591.786575E-3
595.127678E-3
598.305702E-3
601.247978E-3
602.497673E-3
604.438591E-3
605.399895E-3
605.392456E-3
606.239319E-3
605.364418E-3
605.894852E-3
606.247902E-3
607.125092E-3
609.393883E-3
610.542297E-3
613.007927E-3
614.386940E-3
614.564896E-3
614.984894E-3
613.776970E-3
613.146973E-3
611.974525E-3
610.779190E-3
610.039330E-3
609.018517E-3
609.108925E-3
609.289169E-3
609.827614E-3
611.547661E-3
612.040329E-3
614.245033E-3
615.653801E-3
616.746140E-3
618.802071E-3
619.944191E-3
621.766663E-3
622.858429E-3
623.612022E-3
625.162697E-3
625.142097E-3
626.062775E-3
626.559448E-3
626.676750E-3
627.696419E-3
627.396584E-3
628.218842E-3
628.239441E-3
627.770805E-3
628.655434E-3
628.310394E-3
628.784752E-3
628.610802E-3
628.081512E-3
628.792763E-3
628.195953E-3
628.542709E-3
628.941536E-3
628.482628E-3
629.324913E-3
629.061699E-3
629.671097E-3
630.315399E-3
631.010628E-3
632.399368E-3
632.870293E-3
633.873940E-3
634.988594E-3
634.961700E-3
636.052322E-3
636.108971E-3
636.177635E-3
636.300087E-3
635.207748E-3
633.579826E-3
629.160690E-3
623.381424E-3
616.339874E-3
608.119011E-3
601.235390E-3
594.580078E-3
590.404701E-3
588.194275E-3
587.071037E-3
589.085197E-3
590.954590E-3
594.567490E-3
597.942352E-3
601.071739E-3
604.589653E-3
606.689072E-3
608.592796E-3
610.070229E-3
610.750580E-3
611.210060E-3
610.934830E-3
611.577415E-3
612.272644E-3
613.261986E-3
615.258408E-3
616.849709E-3
618.491936E-3
619.155693E-3
619.138527E-3
619.160271E-3
617.691422E-3
616.706657E-3
614.974022E-3
613.124657E-3
612.621689E-3
611.727905E-3
612.032890E-3
612.733269E-3
613.445663E-3
615.172577E-3
616.052628E-3
617.627335E-3
619.729042E-3
620.947838E-3
622.994041E-3
623.882103E-3
625.313187E-3
626.464462E-3
627.056694E-3
628.791618E-3
628.792763E-3
629.842758E-3
630.009270E-3
630.254173E-3
631.265259E-3
630.729675E-3
631.254387E-3
631.547928E-3
631.055260E-3
631.977081E-3
631.289864E-3
631.595993E-3
631.696701E-3
631.225777E-3
631.939888E-3
631.169701E-3
631.266975E-3
631.014061E-3
630.991745E-3
631.769371E-3
631.418610E-3
631.950760E-3
632.219124E-3
632.609367E-3
634.315109E-3
