Notes :


2023-12-11 ¿ÀÈÄ 10:31:42
Volts
Ch : LED 2,
537.985039E-3
538.146973E-3
538.096046E-3
538.261986E-3
538.453674E-3
538.602448E-3
538.993835E-3
539.083672E-3
539.588356E-3
539.575195E-3
539.956856E-3
540.360260E-3
540.342522E-3
540.614319E-3
540.796280E-3
541.231728E-3
541.805077E-3
541.870308E-3
542.539787E-3
542.710876E-3
543.367767E-3
544.003487E-3
544.220352E-3
544.858360E-3
544.884109E-3
545.313835E-3
545.515823E-3
545.272636E-3
545.009422E-3
544.052124E-3
542.057991E-3
538.742065E-3
534.079170E-3
529.058647E-3
523.789787E-3
519.026756E-3
515.172958E-3
512.335968E-3
511.086273E-3
510.726357E-3
511.498833E-3
512.896156E-3
514.344978E-3
516.414642E-3
518.031120E-3
519.843292E-3
521.358490E-3
522.048569E-3
522.760391E-3
523.071671E-3
522.983551E-3
523.296547E-3
523.068810E-3
523.026466E-3
523.402405E-3
523.802948E-3
525.184250E-3
526.267433E-3
527.726555E-3
528.684998E-3
529.099846E-3
529.436874E-3
528.847504E-3
528.259277E-3
527.750015E-3
527.332306E-3
527.120590E-3
526.855087E-3
527.170944E-3
527.320862E-3
527.610970E-3
528.353691E-3
529.133034E-3
530.369568E-3
530.992126E-3
531.679344E-3
532.615471E-3
533.188820E-3
534.046555E-3
534.409332E-3
535.155487E-3
535.716248E-3
536.097908E-3
536.798286E-3
537.018585E-3
537.122154E-3
537.578773E-3
537.353897E-3
537.775040E-3
537.844849E-3
537.970734E-3
538.348961E-3
538.050842E-3
538.279152E-3
538.295746E-3
538.748932E-3
538.922310E-3
538.664246E-3
538.958359E-3
538.888550E-3
538.805580E-3
539.128876E-3
539.080811E-3
539.499092E-3
539.703941E-3
539.929390E-3
540.271568E-3
540.467834E-3
540.910721E-3
541.053772E-3
541.243172E-3
541.806793E-3
541.960716E-3
542.408180E-3
543.010139E-3
543.221855E-3
543.741417E-3
544.115639E-3
544.489288E-3
544.675827E-3
544.762230E-3
545.232582E-3
545.046616E-3
545.102119E-3
545.055771E-3
543.840408E-3
541.876030E-3
538.130951E-3
533.835983E-3
528.904724E-3
523.888206E-3
519.434738E-3
515.651894E-3
513.704681E-3
512.775993E-3
512.665558E-3
513.718987E-3
514.783287E-3
516.666412E-3
518.637085E-3
520.517921E-3
522.316360E-3
523.473930E-3
524.569130E-3
525.168800E-3
525.454330E-3
525.647163E-3
525.596237E-3
525.960732E-3
526.672554E-3
527.565193E-3
528.909874E-3
529.876328E-3
530.980110E-3
531.590652E-3
531.269073E-3
530.917168E-3
529.772758E-3
528.945351E-3
528.135681E-3
527.299690E-3
527.000427E-3
526.495743E-3
526.580429E-3
526.793861E-3
527.276802E-3
528.205490E-3
528.880692E-3
530.106354E-3
531.176949E-3
531.968307E-3
532.904434E-3
533.444023E-3
534.358406E-3
535.070229E-3
535.719109E-3
536.577988E-3
536.888695E-3
537.308693E-3
537.744713E-3
537.913513E-3
538.286018E-3
538.150406E-3
538.423347E-3
538.308907E-3
538.423920E-3
538.640785E-3
538.340378E-3
538.796997E-3
538.792992E-3
538.639641E-3
538.841629E-3
538.930893E-3
539.097977E-3
539.078522E-3
538.928032E-3
539.463043E-3
539.487648E-3
539.612961E-3
539.954567E-3
539.861298E-3
540.391159E-3
540.415764E-3
540.819740E-3
541.275787E-3
541.545868E-3
542.059135E-3
542.404175E-3
542.863655E-3
543.419838E-3
543.609810E-3
544.070435E-3
544.402313E-3
544.968224E-3
545.265198E-3
545.506096E-3
545.548439E-3
544.767380E-3
543.624115E-3
540.809441E-3
536.698723E-3
531.920815E-3
526.445389E-3
521.417999E-3
516.564560E-3
512.521362E-3
509.857178E-3
508.244705E-3
508.267021E-3
509.191704E-3
510.546112E-3
512.322807E-3
514.079475E-3
515.739441E-3
517.317009E-3
518.356133E-3
519.645309E-3
520.117950E-3
520.445251E-3
520.658112E-3
520.289040E-3
520.636940E-3
520.635796E-3
521.140480E-3
521.878624E-3
522.968102E-3
524.291039E-3
525.405121E-3
526.499176E-3
526.947784E-3
526.835060E-3
526.930046E-3
526.162148E-3
525.881195E-3
525.552177E-3
524.850655E-3
524.863243E-3
524.630356E-3
525.140762E-3
525.667191E-3
526.194191E-3
527.212143E-3
527.845573E-3
528.901291E-3
529.834557E-3
530.341530E-3
531.374931E-3
531.760597E-3
532.592010E-3
533.494377E-3
533.897209E-3
534.639359E-3
534.750938E-3
535.094833E-3
535.415840E-3
535.475349E-3
535.906792E-3
535.968018E-3
536.161423E-3
536.507607E-3
536.551094E-3
536.941910E-3
536.837196E-3
536.864090E-3
537.035179E-3
536.909866E-3
536.972809E-3
536.930466E-3
537.014008E-3
537.507248E-3
537.318420E-3
537.945557E-3
538.049698E-3
538.039398E-3
538.651657E-3
538.546371E-3
539.134026E-3
539.177513E-3
539.390373E-3
539.830971E-3
539.679337E-3
540.313911E-3
540.452385E-3
540.894699E-3
541.322708E-3
541.636848E-3
542.002487E-3
542.314911E-3
542.900848E-3
543.312263E-3
543.422127E-3
544.363976E-3
544.291878E-3
544.460106E-3
544.516754E-3
544.004059E-3
543.545151E-3
541.544151E-3
538.348389E-3
534.100342E-3
528.524780E-3
523.055649E-3
517.478371E-3
512.749672E-3
509.592247E-3
507.278252E-3
506.736946E-3
506.897736E-3
508.084488E-3
509.800529E-3
511.590385E-3
513.721848E-3
515.122604E-3
516.656685E-3
517.815399E-3
518.540955E-3
519.311142E-3
519.446182E-3
519.806099E-3
519.565773E-3
519.327164E-3
519.501686E-3
519.802094E-3
520.815468E-3
521.994781E-3
523.174667E-3
524.685860E-3
524.995995E-3
525.556183E-3
525.647736E-3
525.021744E-3
524.770546E-3
524.098778E-3
523.646164E-3
523.664474E-3
523.569489E-3
523.669624E-3
523.878479E-3
524.689865E-3
525.558472E-3
526.273727E-3
527.023315E-3
527.779198E-3
528.742790E-3
529.606819E-3
530.196762E-3
531.140327E-3
531.562042E-3
532.039261E-3
532.815742E-3
533.070374E-3
533.715820E-3
534.325790E-3
534.593010E-3
534.986115E-3
535.135460E-3
535.235596E-3
535.240746E-3
535.538864E-3
535.692215E-3
535.720825E-3
536.057854E-3
535.978317E-3
536.000633E-3
536.341095E-3
536.234665E-3
536.568260E-3
536.509895E-3
536.527634E-3
536.936760E-3
537.025452E-3
537.287521E-3
537.443161E-3
537.595940E-3
537.908363E-3
538.024521E-3
538.463402E-3
538.484001E-3
538.709450E-3
539.354324E-3
539.579201E-3
540.080452E-3
540.290451E-3
540.489578E-3
540.900421E-3
540.912437E-3
541.481209E-3
541.857147E-3
542.115211E-3
542.655945E-3
542.675400E-3
543.039322E-3
542.974091E-3
543.031883E-3
542.900276E-3
541.771889E-3
540.194321E-3
536.765671E-3
532.551956E-3
527.497673E-3
522.056580E-3
517.398262E-3
513.235474E-3
510.775566E-3
509.606552E-3
509.216881E-3
510.116959E-3
511.322594E-3
513.092422E-3
515.351486E-3
516.944504E-3
518.929482E-3
520.442390E-3
521.641731E-3
522.626495E-3
522.918892E-3
523.277092E-3
523.439026E-3
523.783493E-3
524.514771E-3
524.829483E-3
526.062584E-3
527.120590E-3
528.145981E-3
528.945351E-3
528.757095E-3
528.426361E-3
527.697945E-3
526.479149E-3
525.586510E-3
524.445534E-3
523.903084E-3
523.590660E-3
523.622704E-3
523.814964E-3
524.266434E-3
524.953651E-3
525.843430E-3
526.666832E-3
527.808952E-3
528.361702E-3
529.828835E-3
530.854225E-3
531.501961E-3
532.193756E-3
532.581711E-3
533.309555E-3
533.900642E-3
534.317780E-3
534.603310E-3
534.638786E-3
534.891701E-3
535.012436E-3
535.126305E-3
535.574341E-3
535.389519E-3
535.675621E-3
535.777473E-3
535.592651E-3
535.839844E-3
535.546303E-3
535.746574E-3
535.814667E-3
535.899925E-3
536.067009E-3
535.883331E-3
536.207771E-3
536.320496E-3
536.172295E-3
536.642647E-3
536.565971E-3
537.017441E-3
537.256050E-3
537.544441E-3
537.889481E-3
538.128662E-3
538.611603E-3
538.943481E-3
539.186096E-3
539.706802E-3
539.820099E-3
540.399742E-3
540.815735E-3
541.291237E-3
541.700363E-3
541.851425E-3
542.325783E-3
542.234230E-3
542.242241E-3
541.992760E-3
540.611458E-3
538.520622E-3
534.947205E-3
530.268860E-3
525.070381E-3
518.919182E-3
514.199066E-3
510.164452E-3
507.285118E-3
505.717278E-3
505.058670E-3
505.835724E-3
506.985283E-3
508.816338E-3
510.951805E-3
512.609482E-3
514.796448E-3
515.981483E-3
517.057228E-3
518.001366E-3
518.454552E-3
519.174385E-3
519.350624E-3
519.077110E-3
519.419289E-3
519.594383E-3
520.323944E-3
521.616554E-3
522.455406E-3
523.837852E-3
524.454689E-3
524.986839E-3
524.998856E-3
524.356270E-3
524.011230E-3
523.211861E-3
522.710609E-3
522.306633E-3
521.953011E-3
522.157288E-3
522.090912E-3
522.717476E-3
523.330879E-3
524.136543E-3
525.311852E-3
526.054573E-3
527.207565E-3
527.909088E-3
528.492737E-3
529.327583E-3
529.983330E-3
530.864525E-3
531.604385E-3
531.895638E-3
532.369995E-3
532.501030E-3
533.061790E-3
533.568192E-3
533.738136E-3
534.237099E-3
534.142113E-3
534.233093E-3
534.472275E-3
534.162140E-3
534.395027E-3
534.426498E-3
534.531784E-3
534.599304E-3
534.527206E-3
534.548950E-3
534.322929E-3
534.742355E-3
534.906006E-3
535.064507E-3
535.328865E-3
535.673332E-3
536.148262E-3
536.405182E-3
536.492157E-3
537.142181E-3
537.099838E-3
537.517548E-3
537.583923E-3
537.754440E-3
538.034248E-3
538.212776E-3
538.424492E-3
538.763237E-3
538.904572E-3
539.360046E-3
539.540863E-3
540.042686E-3
540.348816E-3
540.751076E-3
541.370201E-3
541.506958E-3
541.888618E-3
542.057991E-3
542.018509E-3
541.986465E-3
540.851784E-3
538.932037E-3
535.687065E-3
531.044769E-3
525.774765E-3
519.767189E-3
514.330101E-3
509.819984E-3
506.103516E-3
504.165459E-3
503.268814E-3
503.434753E-3
504.610062E-3
506.010818E-3
508.339691E-3
509.934998E-3
511.921120E-3
513.337898E-3
514.182472E-3
515.349770E-3
515.639877E-3
516.058731E-3
516.099930E-3
515.667915E-3
515.525436E-3
515.413857E-3
516.003799E-3
516.769981E-3
517.964172E-3
519.492531E-3
520.520210E-3
521.664047E-3
522.277451E-3
522.099495E-3
521.953011E-3
521.292686E-3
520.785141E-3
520.356560E-3
519.948578E-3
520.176888E-3
520.054436E-3
520.302200E-3
520.786285E-3
521.448326E-3
522.220802E-3
523.124313E-3
523.885918E-3
525.163078E-3
525.723839E-3
526.633644E-3
527.158928E-3
527.981186E-3
528.719902E-3
529.126740E-3
529.783630E-3
529.958153E-3
530.387878E-3
530.850792E-3
530.937767E-3
531.333733E-3
531.246758E-3
531.415558E-3
531.885338E-3
531.501389E-3
531.881332E-3
531.710815E-3
531.916237E-3
531.976891E-3
531.735420E-3
532.336235E-3
532.139397E-3
532.215500E-3
532.599449E-3
532.571983E-3
533.235741E-3
533.318138E-3
533.751297E-3
533.908653E-3
534.230232E-3
534.813881E-3
534.584999E-3
534.972382E-3
535.114861E-3
535.302544E-3
535.858154E-3
535.950851E-3
536.345673E-3
536.774254E-3
536.857224E-3
537.541580E-3
537.439728E-3
537.930107E-3
538.335800E-3
538.375854E-3
539.011002E-3
539.159203E-3
539.636421E-3
539.893341E-3
540.042114E-3
540.377426E-3
540.430069E-3
540.326500E-3
539.402390E-3
537.435150E-3
534.622765E-3
530.167007E-3
525.411415E-3
520.246124E-3
515.024185E-3
510.999870E-3
507.710838E-3
505.736732E-3
505.263519E-3
505.605698E-3
507.077408E-3
508.582878E-3
510.554123E-3
512.794876E-3
514.546394E-3
516.341400E-3
517.297554E-3
518.191910E-3
518.959236E-3
518.989563E-3
519.338608E-3
519.219589E-3
519.441032E-3
520.097351E-3
520.895004E-3
522.053146E-3
523.189545E-3
523.927689E-3
524.505615E-3
524.201775E-3
523.896217E-3
522.794151E-3
521.972466E-3
521.183968E-3
520.224380E-3
519.769478E-3
519.011879E-3
519.151497E-3
519.624710E-3
519.838715E-3
520.902443E-3
521.550751E-3
522.726059E-3
523.811531E-3
524.687004E-3
525.656891E-3
526.390457E-3
527.205849E-3
527.986336E-3
528.311348E-3
528.949356E-3
529.224586E-3
529.601097E-3
529.867172E-3
529.924965E-3
530.263138E-3
530.496597E-3
530.576134E-3
530.740929E-3
530.877113E-3
531.107712E-3
531.086540E-3
531.101418E-3
531.219292E-3
531.184959E-3
531.339455E-3
530.966949E-3
531.097412E-3
531.259346E-3
531.268501E-3
531.538010E-3
531.755447E-3
531.911087E-3
532.378578E-3
532.335663E-3
532.284164E-3
532.470703E-3
532.676125E-3
533.151627E-3
533.248329E-3
533.754158E-3
534.029388E-3
534.333801E-3
534.897423E-3
534.979248E-3
535.568619E-3
535.788918E-3
536.253548E-3
536.349678E-3
536.553383E-3
537.072372E-3
537.319565E-3
537.527275E-3
537.865448E-3
537.507820E-3
537.227440E-3
535.487938E-3
532.495308E-3
528.580284E-3
523.488808E-3
518.399620E-3
512.865829E-3
508.481026E-3
505.129051E-3
502.873421E-3
501.960182E-3
501.721001E-3
502.691460E-3
504.362297E-3
506.313515E-3
508.455276E-3
510.262299E-3
511.723137E-3
513.025475E-3
514.086342E-3
515.106010E-3
515.134048E-3
515.392685E-3
515.555191E-3
515.545464E-3
515.714264E-3
516.159439E-3
517.067528E-3
518.508339E-3
519.562340E-3
520.549965E-3
520.869255E-3
520.912170E-3
520.393753E-3
519.556046E-3
518.888283E-3
517.972755E-3
517.319870E-3
516.928482E-3
516.481590E-3
516.528511E-3
516.741371E-3
517.433739E-3
518.386459E-3
519.345474E-3
520.454407E-3
521.276093E-3
522.218513E-3
523.042488E-3
523.612404E-3
524.582291E-3
525.092125E-3
525.838280E-3
526.458549E-3
526.617050E-3
527.212715E-3
527.487946E-3
527.786636E-3
528.376579E-3
528.350830E-3
528.689003E-3
528.619194E-3
528.781128E-3
529.001999E-3
528.865242E-3
528.995132E-3
529.017448E-3
529.035187E-3
529.014587E-3
528.711319E-3
529.112434E-3
529.150772E-3
529.260635E-3
529.224014E-3
529.602242E-3
530.145264E-3
530.566406E-3
530.655098E-3
531.045914E-3
530.996704E-3
531.421280E-3
531.614685E-3
531.848717E-3
532.410049E-3
532.527924E-3
532.826614E-3
532.804298E-3
533.022881E-3
533.506393E-3
533.630562E-3
534.008789E-3
534.064865E-3
534.319496E-3
534.713173E-3
535.079384E-3
535.583496E-3
536.060715E-3
536.405182E-3
536.757660E-3
536.730194E-3
536.860657E-3
535.885620E-3
534.238243E-3
531.302834E-3
526.869965E-3
521.835709E-3
516.027832E-3
510.480309E-3
505.716705E-3
501.865196E-3
499.718285E-3
498.414803E-3
498.259735E-3
499.278831E-3
500.499916E-3
502.523232E-3
504.160309E-3
506.044579E-3
507.908821E-3
508.785439E-3
509.798813E-3
510.465431E-3
510.413361E-3
510.533524E-3
510.266876E-3
510.124969E-3
509.967041E-3
509.847450E-3
510.575867E-3
511.215019E-3
512.742805E-3
513.997078E-3
515.245628E-3
515.797806E-3
515.595245E-3
515.837860E-3
515.365219E-3
514.827919E-3
514.479446E-3
513.961029E-3
513.773918E-3
513.636017E-3
513.557053E-3
514.119530E-3
514.616203E-3
515.528870E-3
516.383743E-3
517.280388E-3
518.112373E-3
518.762970E-3
519.645309E-3
520.416069E-3
520.904160E-3
521.666908E-3
522.073174E-3
522.790718E-3
523.223305E-3
523.569489E-3
524.055290E-3
524.222374E-3
524.644661E-3
524.778557E-3
524.768829E-3
525.080681E-3
524.854660E-3
525.220871E-3
525.485229E-3
525.052643E-3
525.425720E-3
525.410843E-3
525.601387E-3
525.678062E-3
525.531006E-3
525.965881E-3
525.859451E-3
526.285744E-3
526.524353E-3
526.799011E-3
527.097702E-3
527.300262E-3
527.820969E-3
528.050995E-3
528.106499E-3
528.508186E-3
528.666115E-3
529.150200E-3
529.123878E-3
529.297829E-3
529.521561E-3
529.597092E-3
530.034256E-3
530.194473E-3
530.867386E-3
531.259918E-3
531.088257E-3
531.637573E-3
532.026672E-3
532.224655E-3
532.625198E-3
532.554245E-3
532.932472E-3
533.029747E-3
532.784843E-3
533.215141E-3
532.902145E-3
531.941986E-3
529.852867E-3
525.939560E-3
521.488380E-3
516.093063E-3
511.011314E-3
506.013107E-3
502.345276E-3
500.004959E-3
498.687744E-3
