Notes :


2023-12-11 ¿ÀÈÄ 10:32:29
Volts
Ch : LED 2,
565.493774E-3
566.429329E-3
567.530251E-3
567.998886E-3
568.900681E-3
569.603348E-3
570.454216E-3
571.287346E-3
571.560860E-3
571.984863E-3
572.196579E-3
572.459793E-3
572.884369E-3
573.231697E-3
573.688316E-3
573.489189E-3
573.682594E-3
573.878288E-3
573.857117E-3
574.203873E-3
574.319458E-3
574.312592E-3
574.404144E-3
574.531746E-3
574.761772E-3
574.542046E-3
574.798393E-3
575.153160E-3
575.070763E-3
575.656128E-3
575.683594E-3
576.136208E-3
576.415443E-3
576.506424E-3
577.010536E-3
577.142143E-3
577.764130E-3
578.106880E-3
578.272820E-3
578.660774E-3
579.023552E-3
579.723358E-3
580.388260E-3
580.625725E-3
581.226540E-3
581.670570E-3
582.184410E-3
582.429314E-3
582.075691E-3
581.402779E-3
579.685593E-3
576.707840E-3
572.313309E-3
566.385269E-3
560.403442E-3
554.427338E-3
549.526978E-3
546.237946E-3
543.917084E-3
543.464470E-3
543.686485E-3
544.826317E-3
546.646500E-3
548.493576E-3
550.830460E-3
552.404594E-3
554.407310E-3
555.893898E-3
556.869507E-3
557.638550E-3
557.461739E-3
557.515526E-3
557.484627E-3
557.077217E-3
557.179070E-3
557.648277E-3
558.782387E-3
559.950829E-3
561.116409E-3
562.749481E-3
563.315964E-3
563.903046E-3
563.912201E-3
563.174629E-3
562.885666E-3
562.337494E-3
561.859703E-3
561.717796E-3
561.428261E-3
562.123489E-3
562.505150E-3
563.117409E-3
563.924789E-3
564.608002E-3
565.829086E-3
566.709709E-3
567.391777E-3
568.249512E-3
568.695259E-3
569.494057E-3
570.224762E-3
570.803261E-3
571.846962E-3
572.257805E-3
572.819138E-3
573.102379E-3
573.350716E-3
573.803329E-3
573.867989E-3
574.301147E-3
574.401855E-3
574.721146E-3
574.754906E-3
574.668503E-3
575.063324E-3
575.146294E-3
574.852753E-3
575.272179E-3
575.169182E-3
575.577736E-3
575.688171E-3
575.824356E-3
576.289558E-3
576.433182E-3
576.673508E-3
576.641464E-3
576.866913E-3
577.112389E-3
577.078629E-3
577.920341E-3
578.431320E-3
579.044724E-3
579.539108E-3
579.753685E-3
580.529594E-3
580.712700E-3
581.104660E-3
581.649971E-3
581.913185E-3
582.335472E-3
582.492256E-3
582.701683E-3
582.944298E-3
582.603836E-3
582.330894E-3
580.640602E-3
577.732086E-3
573.391914E-3
567.687035E-3
562.071991E-3
556.621742E-3
552.307892E-3
549.483490E-3
547.722244E-3
547.600365E-3
548.506165E-3
550.070572E-3
552.321053E-3
554.319191E-3
556.836319E-3
558.791542E-3
560.428047E-3
561.856270E-3
562.656784E-3
563.335991E-3
563.531685E-3
563.595200E-3
563.999176E-3
564.055252E-3
564.976501E-3
565.935516E-3
567.185783E-3
568.594551E-3
569.239426E-3
569.400787E-3
568.940735E-3
568.085861E-3
566.990089E-3
565.809059E-3
565.251160E-3
564.676094E-3
564.264679E-3
564.274406E-3
564.338493E-3
564.835167E-3
565.689468E-3
566.515160E-3
567.808342E-3
568.627739E-3
569.795609E-3
570.731163E-3
571.299362E-3
572.228622E-3
572.640038E-3
573.491478E-3
574.044800E-3
574.373817E-3
575.075340E-3
575.177193E-3
575.408936E-3
575.513649E-3
575.602341E-3
575.954819E-3
576.005745E-3
576.302719E-3
576.428032E-3
576.449776E-3
576.838875E-3
576.660919E-3
576.727295E-3
576.718712E-3
576.623726E-3
576.868629E-3
576.695824E-3
577.062607E-3
577.018547E-3
577.198219E-3
577.598763E-3
577.542114E-3
577.767563E-3
578.057671E-3
578.332329E-3
578.854179E-3
579.229546E-3
579.934502E-3
580.206299E-3
580.897522E-3
581.656265E-3
582.025337E-3
582.625008E-3
583.015823E-3
583.201218E-3
583.511925E-3
583.209229E-3
582.340050E-3
580.200005E-3
576.637459E-3
572.241211E-3
566.328621E-3
560.662079E-3
555.698204E-3
551.364899E-3
548.641205E-3
546.821594E-3
546.869659E-3
547.695923E-3
549.109840E-3
551.079941E-3
553.130150E-3
555.364037E-3
557.091522E-3
558.762360E-3
560.320473E-3
561.083794E-3
561.619377E-3
561.931801E-3
561.809349E-3
562.104034E-3
562.302589E-3
562.746048E-3
563.646126E-3
564.577103E-3
566.221046E-3
567.161751E-3
568.062973E-3
567.880440E-3
567.513657E-3
567.152596E-3
566.183281E-3
565.613365E-3
564.966774E-3
564.403152E-3
564.405441E-3
564.156532E-3
564.811134E-3
565.558434E-3
566.400146E-3
567.691612E-3
568.668365E-3
569.583893E-3
570.379257E-3
571.196365E-3
572.168541E-3
572.685814E-3
573.337555E-3
574.051666E-3
574.785233E-3
575.545692E-3
576.019478E-3
576.309586E-3
576.605415E-3
576.750183E-3
576.956749E-3
577.183342E-3
577.542686E-3
577.853394E-3
577.644539E-3
577.908897E-3
577.793312E-3
577.935791E-3
578.055954E-3
578.105736E-3
578.384399E-3
578.228188E-3
578.292847E-3
578.284836E-3
578.377533E-3
579.025841E-3
579.122543E-3
579.295921E-3
579.508209E-3
579.713058E-3
580.319023E-3
580.120468E-3
580.615425E-3
581.474876E-3
581.896019E-3
582.598114E-3
582.944298E-3
583.474159E-3
584.057236E-3
584.140778E-3
584.861183E-3
585.027695E-3
585.236549E-3
584.894371E-3
583.828926E-3
582.080269E-3
578.215599E-3
573.039436E-3
567.051315E-3
560.636902E-3
555.398941E-3
551.019859E-3
548.091316E-3
546.841621E-3
546.625328E-3
547.689056E-3
548.918152E-3
550.883102E-3
552.894402E-3
554.874802E-3
556.887817E-3
558.323479E-3
559.166336E-3
560.193443E-3
560.504150E-3
560.975075E-3
560.809135E-3
560.738754E-3
560.668945E-3
560.599136E-3
561.353302E-3
562.066841E-3
563.745689E-3
565.215683E-3
566.172409E-3
566.975212E-3
566.982079E-3
567.080498E-3
566.897392E-3
566.126633E-3
565.762711E-3
565.331268E-3
565.267754E-3
565.375900E-3
565.224266E-3
565.734673E-3
566.469955E-3
567.507362E-3
568.488121E-3
569.218254E-3
570.497131E-3
571.010971E-3
571.797180E-3
572.538757E-3
573.108101E-3
573.988724E-3
574.379539E-3
575.120544E-3
575.935364E-3
576.378250E-3
577.103233E-3
577.337265E-3
577.434540E-3
577.759552E-3
577.669716E-3
577.731514E-3
577.851105E-3
578.275108E-3
578.586388E-3
578.473091E-3
578.823280E-3
578.806114E-3
579.111671E-3
579.335976E-3
579.228401E-3
579.678154E-3
579.700470E-3
579.696465E-3
580.066109E-3
580.112457E-3
580.374527E-3
580.593681E-3
581.043434E-3
581.625938E-3
581.878853E-3
582.543755E-3
582.740593E-3
583.286476E-3
583.869553E-3
584.237480E-3
585.144997E-3
585.437393E-3
585.877991E-3
586.194420E-3
586.174965E-3
586.672783E-3
586.529160E-3
586.515427E-3
585.716057E-3
583.477592E-3
580.075264E-3
575.031281E-3
569.301796E-3
563.650131E-3
558.346367E-3
554.770088E-3
552.204895E-3
551.041031E-3
551.622963E-3
552.323341E-3
554.281998E-3
556.258392E-3
558.665085E-3
560.935020E-3
562.601852E-3
564.278412E-3
565.144730E-3
566.061401E-3
566.223335E-3
566.376686E-3
566.640472E-3
566.662788E-3
567.334557E-3
567.969131E-3
568.714714E-3
570.253944E-3
571.410370E-3
572.204590E-3
572.334480E-3
571.655273E-3
571.076202E-3
569.916344E-3
568.812561E-3
567.988014E-3
567.139435E-3
567.227554E-3
567.103958E-3
567.362022E-3
568.055534E-3
568.814278E-3
570.027924E-3
571.151733E-3
572.292709E-3
573.342133E-3
573.952675E-3
574.902534E-3
575.603485E-3
576.527596E-3
577.365303E-3
577.337265E-3
577.964973E-3
578.334045E-3
578.613853E-3
579.064751E-3
578.940582E-3
579.306793E-3
579.209518E-3
579.572296E-3
579.792595E-3
579.531670E-3
579.679871E-3
579.908752E-3
579.838371E-3
580.210876E-3
580.115318E-3
580.332184E-3
580.251503E-3
580.143929E-3
580.244064E-3
580.468369E-3
580.912399E-3
580.886650E-3
581.044006E-3
581.569290E-3
581.636238E-3
582.075119E-3
582.186699E-3
582.935715E-3
583.526230E-3
583.720779E-3
584.545326E-3
585.142708E-3
585.218811E-3
586.197853E-3
586.159515E-3
586.804962E-3
586.888504E-3
586.313438E-3
585.453415E-3
582.673645E-3
579.117966E-3
573.993301E-3
568.301582E-3
562.755203E-3
557.648277E-3
553.669739E-3
551.060486E-3
549.987030E-3
550.056267E-3
550.905418E-3
552.902985E-3
554.866791E-3
556.988525E-3
559.182930E-3
560.728455E-3
562.607574E-3
563.769722E-3
564.709854E-3
565.413666E-3
565.268898E-3
565.538979E-3
565.419388E-3
565.897179E-3
566.575813E-3
567.161179E-3
568.874931E-3
570.118332E-3
571.022415E-3
571.630669E-3
571.517944E-3
571.221542E-3
570.371819E-3
569.668579E-3
568.990517E-3
568.104744E-3
567.797470E-3
567.693901E-3
567.953682E-3
568.548775E-3
569.169044E-3
570.209885E-3
571.184921E-3
571.960831E-3
573.399353E-3
574.085999E-3
575.250435E-3
575.889587E-3
576.539040E-3
577.304077E-3
577.962112E-3
578.767776E-3
579.316521E-3
579.607773E-3
580.184555E-3
580.368233E-3
580.713844E-3
580.907822E-3
580.861473E-3
581.128693E-3
580.864334E-3
581.328964E-3
581.206512E-3
581.124687E-3
581.484604E-3
581.134415E-3
581.649971E-3
581.661415E-3
581.876564E-3
582.104301E-3
582.184982E-3
582.241058E-3
582.738876E-3
582.767487E-3
582.985497E-3
583.145714E-3
583.688164E-3
583.748245E-3
584.005165E-3
584.667778E-3
584.943581E-3
585.443687E-3
585.685158E-3
585.936928E-3
586.685371E-3
587.143707E-3
587.713051E-3
588.173676E-3
588.519859E-3
588.971901E-3
589.001083E-3
589.195633E-3
588.996506E-3
587.672997E-3
585.049438E-3
580.542183E-3
574.832726E-3
568.469810E-3
562.259674E-3
557.143593E-3
552.880096E-3
550.709152E-3
549.707222E-3
549.706078E-3
550.981522E-3
552.588272E-3
554.769516E-3
557.082939E-3
559.082222E-3
560.791397E-3
561.920929E-3
563.048172E-3
563.790894E-3
564.062691E-3
564.268684E-3
564.012909E-3
564.089584E-3
564.051819E-3
564.119911E-3
565.044594E-3
566.046524E-3
567.602921E-3
569.165039E-3
570.256233E-3
571.083641E-3
570.945168E-3
570.751190E-3
570.616722E-3
569.903755E-3
569.581032E-3
569.023132E-3
568.824577E-3
568.835449E-3
569.102669E-3
570.216179E-3
570.652771E-3
571.796036E-3
572.758484E-3
573.689461E-3
574.844170E-3
575.468445E-3
576.343918E-3
577.072906E-3
577.981567E-3
579.020691E-3
579.491043E-3
579.911613E-3
580.412292E-3
580.585098E-3
581.389618E-3
581.470871E-3
581.867409E-3
582.246208E-3
582.039642E-3
582.353783E-3
582.465935E-3
582.879639E-3
582.979774E-3
583.072472E-3
583.306503E-3
583.315659E-3
583.407784E-3
583.721924E-3
583.642960E-3
584.219742E-3
584.319878E-3
584.536743E-3
584.693527E-3
584.458351E-3
584.947586E-3
585.085487E-3
585.457420E-3
585.926056E-3
586.106873E-3
586.906242E-3
587.046432E-3
587.505913E-3
587.949371E-3
588.401985E-3
589.050293E-3
589.389610E-3
590.106583E-3
590.587807E-3
590.693665E-3
590.768623E-3
591.074753E-3
591.419792E-3
591.424370E-3
590.901947E-3
589.618492E-3
586.301994E-3
581.996727E-3
576.560211E-3
570.502853E-3
565.370750E-3
560.596848E-3
557.550430E-3
555.714226E-3
554.869080E-3
555.976295E-3
556.916428E-3
559.025574E-3
561.462593E-3
563.971710E-3
566.348076E-3
568.151093E-3
569.651985E-3
570.768356E-3
571.276474E-3
571.676445E-3
571.355438E-3
571.325684E-3
571.595764E-3
572.094154E-3
573.451996E-3
574.647903E-3
576.139641E-3
576.961899E-3
577.223969E-3
577.596474E-3
576.520729E-3
575.837517E-3
574.947739E-3
573.947525E-3
573.536110E-3
572.588539E-3
572.565079E-3
572.676659E-3
572.830582E-3
573.786163E-3
574.540901E-3
575.771141E-3
576.800537E-3
577.747536E-3
578.916550E-3
579.452705E-3
580.415154E-3
581.257439E-3
581.639099E-3
582.698250E-3
583.179474E-3
583.444405E-3
583.794022E-3
584.037209E-3
584.422874E-3
584.351349E-3
584.691238E-3
584.732437E-3
584.925270E-3
585.353279E-3
585.391045E-3
585.716629E-3
585.716629E-3
585.483170E-3
585.797310E-3
585.483742E-3
585.614777E-3
585.595894E-3
585.545540E-3
586.000443E-3
585.843086E-3
586.152649E-3
586.278534E-3
586.598969E-3
586.909676E-3
587.211800E-3
587.507629E-3
587.829208E-3
587.991714E-3
588.764191E-3
589.067459E-3
589.637947E-3
590.613556E-3
590.662193E-3
591.497040E-3
591.481018E-3
591.911888E-3
592.194557E-3
591.900444E-3
591.376877E-3
589.901733E-3
587.139130E-3
583.031845E-3
577.626801E-3
571.837807E-3
566.201019E-3
561.661148E-3
558.440208E-3
556.273842E-3
555.853844E-3
556.030655E-3
557.354736E-3
559.263039E-3
561.239433E-3
563.489914E-3
565.513802E-3
567.609215E-3
569.155884E-3
570.102882E-3
570.970345E-3
571.134567E-3
571.453285E-3
571.527672E-3
571.587753E-3
572.123909E-3
572.690392E-3
574.015045E-3
575.418663E-3
576.500130E-3
577.309799E-3
577.542114E-3
577.326393E-3
576.787949E-3
575.793457E-3
575.100517E-3
573.979568E-3
573.518372E-3
573.292923E-3
573.284912E-3
573.900032E-3
574.342918E-3
575.008965E-3
575.979996E-3
576.936722E-3
578.004456E-3
578.875923E-3
579.882431E-3
580.915260E-3
581.470871E-3
582.530022E-3
583.214378E-3
583.836937E-3
584.558487E-3
584.746742E-3
585.245705E-3
585.355568E-3
585.560989E-3
585.843658E-3
585.850525E-3
586.562920E-3
586.480522E-3
586.894226E-3
587.057877E-3
586.812401E-3
586.874771E-3
586.728859E-3
586.679649E-3
586.875343E-3
586.874199E-3
587.327957E-3
587.289619E-3
587.382317E-3
587.729645E-3
587.686157E-3
587.877274E-3
588.011742E-3
588.278389E-3
588.670921E-3
588.844872E-3
589.432526E-3
589.787865E-3
590.200424E-3
590.906525E-3
591.108513E-3
591.803741E-3
592.081833E-3
592.643166E-3
592.993927E-3
593.199921E-3
593.944359E-3
593.911743E-3
594.023323E-3
593.527794E-3
591.700745E-3
588.609695E-3
583.702469E-3
577.593613E-3
571.638107E-3
565.592766E-3
561.118698E-3
557.639122E-3
555.835533E-3
555.521965E-3
555.614662E-3
557.054329E-3
558.610153E-3
560.670662E-3
562.846184E-3
564.555359E-3
566.372681E-3
567.610931E-3
568.586540E-3
569.402504E-3
569.244576E-3
569.452858E-3
569.206238E-3
568.745041E-3
569.060898E-3
569.673729E-3
570.695114E-3
571.911621E-3
573.193359E-3
574.641037E-3
575.389481E-3
575.974846E-3
575.790024E-3
575.553131E-3
575.388336E-3
574.621582E-3
574.260521E-3
573.665428E-3
573.674583E-3
573.980713E-3
574.245071E-3
575.297356E-3
576.110458E-3
576.763916E-3
577.420807E-3
577.968407E-3
579.133415E-3
579.973984E-3
580.796242E-3
581.581879E-3
582.218742E-3
583.169174E-3
583.741379E-3
584.519005E-3
585.016251E-3
585.282326E-3
585.639954E-3
585.980415E-3
586.056519E-3
586.193275E-3
586.316299E-3
586.930847E-3
587.175179E-3
587.271309E-3
587.480164E-3
587.274742E-3
587.457275E-3
587.373734E-3
587.555122E-3
587.763977E-3
587.593460E-3
588.191986E-3
588.177681E-3
588.511848E-3
589.090347E-3
588.985634E-3
589.258575E-3
589.397049E-3
589.544678E-3
590.075111E-3
590.135765E-3
590.703964E-3
591.209793E-3
591.617775E-3
592.283249E-3
592.505836E-3
593.058014E-3
593.423653E-3
593.738365E-3
594.380379E-3
594.299126E-3
594.935989E-3
595.151138E-3
595.454979E-3
595.471573E-3
594.663048E-3
593.283463E-3
589.860535E-3
585.291481E-3
579.580307E-3
573.607063E-3
568.364525E-3
563.956833E-3
560.838318E-3
559.416962E-3
558.754921E-3
560.081291E-3
561.578178E-3
563.539124E-3
565.936089E-3
567.879868E-3
569.970131E-3
571.784592E-3
573.020554E-3
574.151230E-3
574.368095E-3
574.786949E-3
574.607849E-3
574.510574E-3
574.755478E-3
575.092506E-3
576.140213E-3
577.261162E-3
578.387260E-3
579.569435E-3
579.976273E-3
580.135345E-3
579.426956E-3
578.537750E-3
578.059387E-3
577.132416E-3
576.838303E-3
576.085854E-3
576.164818E-3
576.591110E-3
576.664352E-3
577.549553E-3
578.483391E-3
579.137421E-3
580.463219E-3
