Notes :


2023-12-11 ¿ÀÈÄ 10:23:53
Volts
Ch : LED 2,
496.987724E-3
490.235138E-3
485.889244E-3
481.748199E-3
480.182648E-3
479.915428E-3
481.026077E-3
483.491707E-3
485.576248E-3
488.735962E-3
491.185570E-3
493.065834E-3
495.275688E-3
496.510506E-3
497.584534E-3
498.039436E-3
497.399139E-3
497.551346E-3
496.690750E-3
496.876144E-3
496.972275E-3
497.226334E-3
498.934364E-3
499.999237E-3
501.728439E-3
503.017044E-3
503.516006E-3
504.093361E-3
503.431320E-3
502.887726E-3
502.421379E-3
501.198006E-3
500.836372E-3
500.151443E-3
500.270462E-3
500.584602E-3
500.803185E-3
502.028847E-3
502.596474E-3
504.249001E-3
505.181694E-3
505.837440E-3
507.548332E-3
508.165741E-3
508.992577E-3
510.194206E-3
510.895157E-3
512.045288E-3
512.166595E-3
512.741089E-3
513.484383E-3
513.619423E-3
514.192772E-3
513.993073E-3
514.628792E-3
515.005302E-3
514.551544E-3
515.233040E-3
514.926338E-3
515.287399E-3
515.302277E-3
514.944649E-3
515.583801E-3
515.415573E-3
515.329170E-3
515.408134E-3
515.364647E-3
516.360855E-3
516.105080E-3
516.249275E-3
516.602898E-3
516.129112E-3
517.092133E-3
517.168236E-3
517.613983E-3
518.144417E-3
518.096924E-3
518.966675E-3
519.263649E-3
520.289612E-3
520.946503E-3
521.048355E-3
522.367859E-3
522.437096E-3
523.046494E-3
523.654175E-3
523.443031E-3
524.157715E-3
523.505974E-3
523.807526E-3
522.330093E-3
519.085693E-3
515.447617E-3
509.456062E-3
503.318596E-3
497.324753E-3
491.524887E-3
488.122559E-3
485.260963E-3
484.740829E-3
485.611153E-3
486.793327E-3
489.677238E-3
491.847038E-3
494.527245E-3
497.432899E-3
498.936653E-3
500.897598E-3
501.444054E-3
502.135849E-3
502.756691E-3
502.290344E-3
502.790451E-3
502.516365E-3
503.460503E-3
504.571152E-3
505.724144E-3
507.882500E-3
508.350563E-3
508.889580E-3
508.930779E-3
507.781219E-3
507.320595E-3
505.351639E-3
503.982925E-3
502.979279E-3
501.739311E-3
501.610565E-3
501.193428E-3
501.833153E-3
503.057098E-3
503.911972E-3
505.583382E-3
506.288910E-3
507.772064E-3
509.346199E-3
509.574509E-3
511.278534E-3
511.854744E-3
512.913895E-3
513.590240E-3
513.478661E-3
514.604187E-3
514.722633E-3
514.966965E-3
515.328026E-3
515.315437E-3
516.011810E-3
515.970612E-3
516.341400E-3
516.129112E-3
515.631294E-3
516.516495E-3
516.108513E-3
516.403770E-3
516.631508E-3
516.009521E-3
516.820908E-3
516.344261E-3
516.617203E-3
516.434097E-3
515.972900E-3
516.692734E-3
516.740227E-3
516.747093E-3
517.243767E-3
517.260933E-3
518.499184E-3
518.461418E-3
519.550323E-3
519.529724E-3
519.866753E-3
521.355629E-3
521.795082E-3
522.485733E-3
522.960663E-3
522.878265E-3
523.700523E-3
523.365784E-3
523.472214E-3
522.204781E-3
519.648170E-3
516.203499E-3
510.637093E-3
504.602051E-3
498.144722E-3
491.593552E-3
487.047386E-3
483.285141E-3
481.566811E-3
481.511307E-3
482.070351E-3
484.567451E-3
486.243439E-3
488.790894E-3
491.638184E-3
493.378830E-3
495.748329E-3
496.481895E-3
497.301292E-3
497.962189E-3
497.507286E-3
497.972488E-3
497.366524E-3
497.573662E-3
498.202515E-3
498.516083E-3
500.602913E-3
501.825142E-3
503.744888E-3
504.608917E-3
504.511070E-3
504.952812E-3
503.708839E-3
502.806473E-3
502.117538E-3
500.675011E-3
500.803185E-3
499.459076E-3
499.764061E-3
500.175476E-3
500.477028E-3
502.257729E-3
502.697754E-3
504.003525E-3
505.355644E-3
505.953026E-3
507.846451E-3
508.379745E-3
509.479523E-3
510.636520E-3
510.766983E-3
512.019539E-3
511.870193E-3
512.710762E-3
513.181114E-3
513.132477E-3
514.197350E-3
514.025688E-3
514.293480E-3
514.475441E-3
514.066887E-3
514.737511E-3
514.140701E-3
514.264297E-3
514.375877E-3
513.982201E-3
514.728928E-3
514.250565E-3
514.573860E-3
514.684868E-3
514.685440E-3
515.573502E-3
515.301132E-3
515.887070E-3
516.007233E-3
516.058731E-3
516.657829E-3
516.842079E-3
517.279816E-3
517.581367E-3
517.669487E-3
518.872833E-3
518.803024E-3
519.613266E-3
520.507622E-3
520.553970E-3
521.874046E-3
521.392822E-3
521.858597E-3
522.646523E-3
522.646523E-3
523.340607E-3
522.334671E-3
522.494888E-3
521.108437E-3
517.889214E-3
514.256859E-3
507.672501E-3
501.306152E-3
494.355583E-3
488.077354E-3
484.137154E-3
480.529976E-3
479.648781E-3
480.032158E-3
480.666733E-3
483.286858E-3
485.486984E-3
488.170052E-3
490.884590E-3
492.462158E-3
494.641113E-3
495.165825E-3
495.701981E-3
496.187210E-3
495.869064E-3
496.130562E-3
495.461655E-3
495.300865E-3
495.997238E-3
496.712494E-3
498.802185E-3
499.782944E-3
501.508713E-3
502.720070E-3
502.935219E-3
503.693390E-3
502.766418E-3
501.794243E-3
501.107597E-3
500.240135E-3
500.217247E-3
499.308014E-3
499.338913E-3
500.066185E-3
500.497055E-3
502.244568E-3
502.869987E-3
504.205513E-3
505.446625E-3
506.177330E-3
507.704544E-3
508.554268E-3
509.830284E-3
510.598183E-3
511.125183E-3
512.433815E-3
512.874985E-3
513.392258E-3
513.650894E-3
513.831139E-3
515.002441E-3
514.426804E-3
515.081978E-3
515.222740E-3
514.897728E-3
515.897369E-3
515.024185E-3
515.111160E-3
515.269089E-3
514.852524E-3
515.685654E-3
515.552902E-3
515.494537E-3
516.142273E-3
516.010094E-3
517.018890E-3
516.081047E-3
516.819763E-3
516.844940E-3
517.010880E-3
517.924118E-3
517.902946E-3
518.270302E-3
518.831635E-3
518.782997E-3
520.027542E-3
520.274734E-3
521.117592E-3
521.955299E-3
521.970177E-3
523.161507E-3
523.262215E-3
523.739433E-3
524.575996E-3
524.426079E-3
525.114441E-3
524.925041E-3
525.005150E-3
524.462700E-3
522.913742E-3
520.844650E-3
516.233826E-3
510.951233E-3
504.877853E-3
498.052597E-3
493.068695E-3
488.476181E-3
486.080360E-3
485.244370E-3
485.385704E-3
487.410164E-3
489.461517E-3
492.444992E-3
495.154953E-3
497.294426E-3
499.952316E-3
501.033783E-3
502.137566E-3
502.817345E-3
502.737236E-3
503.363800E-3
502.863121E-3
503.287125E-3
503.731728E-3
504.495621E-3
506.253433E-3
507.712555E-3
508.971405E-3
509.713554E-3
509.212303E-3
509.501839E-3
507.918549E-3
506.686592E-3
505.272102E-3
503.741455E-3
503.542900E-3
502.359581E-3
502.658272E-3
503.641891E-3
504.072189E-3
505.660057E-3
506.617928E-3
507.993507E-3
509.389687E-3
510.233116E-3
511.889076E-3
512.723923E-3
513.911819E-3
514.377022E-3
514.599609E-3
515.900230E-3
515.970612E-3
516.265869E-3
516.432953E-3
516.475868E-3
517.440033E-3
516.781425E-3
517.471504E-3
517.674637E-3
517.268372E-3
518.213081E-3
517.503548E-3
517.684364E-3
517.502975E-3
516.893005E-3
517.762184E-3
517.532730E-3
517.805672E-3
517.676353E-3
517.251205E-3
518.073463E-3
517.478371E-3
518.110657E-3
518.371582E-3
518.247986E-3
519.009590E-3
518.708038E-3
519.635582E-3
520.354271E-3
520.470428E-3
521.616554E-3
521.689796E-3
522.499466E-3
523.323441E-3
523.589516E-3
524.811172E-3
524.624062E-3
524.993706E-3
525.047493E-3
524.805450E-3
525.216293E-3
523.346901E-3
520.907593E-3
516.930199E-3
511.248207E-3
505.661774E-3
498.635674E-3
493.087006E-3
487.719154E-3
484.229279E-3
483.325195E-3
483.153534E-3
484.791756E-3
486.772728E-3
489.116478E-3
492.503357E-3
494.258308E-3
496.424103E-3
498.206520E-3
499.456215E-3
500.465012E-3
500.448990E-3
500.628090E-3
500.649834E-3
500.203514E-3
501.316452E-3
501.494408E-3
502.594185E-3
504.560852E-3
505.714989E-3
507.538605E-3
507.670784E-3
507.774353E-3
507.156944E-3
505.585670E-3
504.873276E-3
503.241348E-3
502.480888E-3
502.012253E-3
501.295853E-3
502.111244E-3
502.528954E-3
503.442764E-3
504.730225E-3
505.502701E-3
507.536888E-3
508.492470E-3
509.924698E-3
511.083984E-3
511.688805E-3
513.280678E-3
513.427734E-3
514.286041E-3
514.765549E-3
515.009308E-3
516.031265E-3
516.149712E-3
516.394615E-3
516.756821E-3
516.643524E-3
517.270660E-3
516.931343E-3
517.065811E-3
516.911888E-3
517.055511E-3
517.422867E-3
517.065239E-3
517.222595E-3
517.187691E-3
517.053795E-3
517.844582E-3
517.799950E-3
517.853737E-3
518.091202E-3
517.994499E-3
519.112015E-3
519.098854E-3
519.536591E-3
519.567490E-3
519.734573E-3
520.953369E-3
520.838356E-3
521.534729E-3
521.760750E-3
521.670914E-3
522.930908E-3
522.886848E-3
523.474503E-3
524.020386E-3
524.054146E-3
525.411987E-3
525.711823E-3
526.066017E-3
526.424217E-3
525.947571E-3
526.212502E-3
524.795723E-3
522.969246E-3
519.416428E-3
513.860321E-3
508.062172E-3
500.545120E-3
494.041443E-3
488.510513E-3
484.040451E-3
482.842827E-3
481.644058E-3
482.549858E-3
484.514809E-3
486.514091E-3
489.910126E-3
492.244720E-3
494.610786E-3
496.087646E-3
496.803474E-3
498.382759E-3
498.205948E-3
498.289490E-3
498.183632E-3
497.545052E-3
498.015976E-3
497.369957E-3
498.018837E-3
499.441910E-3
500.739098E-3
503.289986E-3
504.477310E-3
505.562782E-3
506.429100E-3
505.861473E-3
505.985641E-3
504.776001E-3
504.156303E-3
503.300285E-3
502.383041E-3
502.926636E-3
502.606201E-3
502.869415E-3
503.785515E-3
504.494476E-3
506.384468E-3
506.875992E-3
508.521080E-3
509.588242E-3
510.282898E-3
511.804390E-3
512.258148E-3
513.384247E-3
514.474297E-3
514.620209E-3
515.665627E-3
515.458488E-3
516.284180E-3
516.682434E-3
516.862679E-3
517.798233E-3
517.696381E-3
517.975616E-3
518.313789E-3
517.793083E-3
518.693733E-3
518.441963E-3
518.425941E-3
518.845367E-3
518.324089E-3
518.962097E-3
518.744087E-3
518.959808E-3
519.185257E-3
519.371223E-3
520.318222E-3
520.306206E-3
520.717621E-3
521.100426E-3
521.056938E-3
522.172165E-3
521.871758E-3
522.631073E-3
522.901726E-3
522.724915E-3
523.568344E-3
523.694229E-3
524.122810E-3
525.020599E-3
524.933624E-3
525.768471E-3
525.779915E-3
526.670265E-3
527.006149E-3
526.808739E-3
527.949715E-3
528.075027E-3
528.609467E-3
528.629494E-3
528.217506E-3
528.619194E-3
526.829338E-3
524.282455E-3
520.555115E-3
514.680862E-3
509.487534E-3
502.208519E-3
496.351433E-3
491.408730E-3
487.861061E-3
487.122917E-3
487.072563E-3
488.822365E-3
491.312027E-3
493.822289E-3
497.383690E-3
499.489403E-3
502.055740E-3
503.997803E-3
504.854393E-3
505.805969E-3
505.434608E-3
505.537605E-3
504.959679E-3
504.801178E-3
505.757904E-3
506.094360E-3
507.230759E-3
508.766556E-3
510.115814E-3
511.720848E-3
512.129402E-3
512.289047E-3
511.255074E-3
509.949303E-3
509.399414E-3
507.492828E-3
506.528091E-3
505.860329E-3
505.465508E-3
506.798744E-3
506.656837E-3
508.023262E-3
508.974266E-3
510.048866E-3
511.998940E-3
512.845230E-3
513.970184E-3
514.990997E-3
515.718269E-3
517.206001E-3
517.239761E-3
517.704391E-3
518.506622E-3
518.670845E-3
519.632149E-3
519.368935E-3
519.723129E-3
520.160294E-3
519.823837E-3
520.598602E-3
520.137405E-3
520.390320E-3
520.552254E-3
519.927979E-3
520.871544E-3
520.517921E-3
520.627213E-3
520.691299E-3
520.379448E-3
520.935631E-3
520.812607E-3
521.143341E-3
521.148491E-3
521.112442E-3
521.820831E-3
521.749306E-3
522.204781E-3
522.628212E-3
522.485733E-3
523.612404E-3
523.495674E-3
523.885918E-3
524.285889E-3
524.974251E-3
526.038551E-3
525.880623E-3
526.819038E-3
527.665901E-3
527.760315E-3
528.173447E-3
528.350258E-3
528.339958E-3
528.808594E-3
528.178024E-3
528.020668E-3
525.252342E-3
521.516418E-3
516.597176E-3
510.093498E-3
504.261589E-3
497.816277E-3
492.763138E-3
489.195442E-3
486.585617E-3
486.974716E-3
487.669373E-3
490.043449E-3
492.959976E-3
495.065117E-3
498.254585E-3
500.195503E-3
502.451706E-3
503.406715E-3
504.115105E-3
505.076981E-3
504.801750E-3
504.935074E-3
505.258369E-3
504.755402E-3
505.670357E-3
506.287193E-3
508.055878E-3
509.809113E-3
510.810471E-3
512.104225E-3
511.903381E-3
511.257935E-3
510.758400E-3
509.069252E-3
508.287621E-3
506.530380E-3
505.726433E-3
505.558205E-3
505.365944E-3
506.347275E-3
506.940651E-3
508.288193E-3
509.267235E-3
510.456848E-3
512.139130E-3
512.550545E-3
513.704681E-3
515.305138E-3
516.431808E-3
517.707825E-3
517.703819E-3
518.904877E-3
519.531441E-3
519.585228E-3
520.466423E-3
520.269585E-3
520.401764E-3
520.837212E-3
520.474434E-3
521.208000E-3
520.891571E-3
521.315575E-3
521.719551E-3
521.157074E-3
521.712112E-3
520.924759E-3
521.116447E-3
521.745300E-3
521.056938E-3
521.634293E-3
521.362495E-3
521.658325E-3
522.434807E-3
522.161293E-3
523.020744E-3
522.915459E-3
523.360634E-3
523.703384E-3
523.797798E-3
524.664688E-3
524.307060E-3
525.015450E-3
525.764465E-3
525.640869E-3
526.553535E-3
526.191902E-3
527.013016E-3
527.810669E-3
527.852440E-3
528.827477E-3
528.892708E-3
529.886627E-3
530.037117E-3
529.899788E-3
530.558395E-3
530.018806E-3
529.657173E-3
528.153419E-3
524.961662E-3
521.286392E-3
514.648247E-3
507.657623E-3
501.092720E-3
494.161606E-3
489.738464E-3
486.047173E-3
485.064125E-3
485.640335E-3
486.718941E-3
489.380264E-3
491.720009E-3
494.313240E-3
496.981430E-3
498.825645E-3
501.191139E-3
501.814270E-3
502.666283E-3
503.010750E-3
502.293205E-3
502.753258E-3
501.754189E-3
501.647186E-3
502.079201E-3
502.734947E-3
504.809189E-3
505.511284E-3
507.359505E-3
509.017754E-3
509.592247E-3
509.960747E-3
509.144783E-3
509.011459E-3
508.490181E-3
507.245064E-3
507.052231E-3
506.172180E-3
505.797386E-3
506.336403E-3
506.533241E-3
507.898521E-3
508.779716E-3
509.791946E-3
511.152649E-3
511.826706E-3
514.042854E-3
514.538956E-3
515.571785E-3
517.006302E-3
517.302132E-3
518.914604E-3
518.705750E-3
519.768906E-3
520.414352E-3
520.351982E-3
521.159363E-3
521.217728E-3
521.207428E-3
521.475792E-3
521.226883E-3
521.893501E-3
521.759605E-3
522.336960E-3
522.716904E-3
522.245407E-3
522.775841E-3
522.240829E-3
522.603607E-3
523.085976E-3
522.775269E-3
523.333168E-3
523.239326E-3
523.706818E-3
524.269295E-3
524.381447E-3
524.914169E-3
524.899864E-3
525.620270E-3
525.889778E-3
525.842285E-3
526.764107E-3
526.558113E-3
526.992989E-3
528.059006E-3
527.751732E-3
528.916168E-3
528.893852E-3
529.360771E-3
530.181313E-3
529.920959E-3
530.890274E-3
530.814171E-3
531.269073E-3
532.125664E-3
531.903076E-3
532.630920E-3
532.127380E-3
531.856728E-3
531.521416E-3
528.636360E-3
525.395966E-3
519.720268E-3
513.241768E-3
506.798172E-3
500.370598E-3
495.866203E-3
492.260742E-3
490.724373E-3
491.205025E-3
492.247009E-3
495.105743E-3
497.257805E-3
500.751114E-3
503.701401E-3
505.777359E-3
507.722855E-3
508.886719E-3
509.735298E-3
510.627365E-3
510.397911E-3
510.722923E-3
510.161018E-3
510.306358E-3
511.294556E-3
511.787796E-3
513.577652E-3
514.385605E-3
515.854454E-3
516.550827E-3
515.993500E-3
515.816116E-3
514.108086E-3
513.336182E-3
512.331390E-3
510.532951E-3
510.410500E-3
509.517860E-3
509.981346E-3
510.770416E-3
511.047935E-3
512.668991E-3
513.480377E-3
515.023613E-3
516.772842E-3
517.398262E-3
518.414497E-3
519.408417E-3
520.371437E-3
521.623421E-3
521.756172E-3
522.842789E-3
522.760963E-3
522.997284E-3
523.640442E-3
523.624420E-3
524.019814E-3
523.999214E-3
524.632072E-3
525.171089E-3
524.747658E-3
525.135612E-3
524.511337E-3
525.012589E-3
524.804878E-3
524.254990E-3
524.835777E-3
524.444389E-3
524.701881E-3
525.069809E-3
524.909019E-3
525.467491E-3
525.234032E-3
