Notes :


2023-12-10 ¿ÀÈÄ 9:58:56
Volts
Ch : LED 2,Ch : LED 3,
454.662895E-3,551.315117E-3
454.398537E-3,551.581192E-3
453.873253E-3,551.459312E-3
453.855515E-3,551.605225E-3
453.097343E-3,550.952911E-3
452.620125E-3,550.749207E-3
452.602959E-3,550.626755E-3
452.313995E-3,550.501442E-3
452.529716E-3,550.647926E-3
452.640152E-3,550.550652E-3
453.128815E-3,550.855637E-3
453.781128E-3,551.314545E-3
454.044914E-3,551.573753E-3
455.160141E-3,551.989174E-3
455.783844E-3,552.128792E-3
456.439590E-3,552.532768E-3
457.232094E-3,553.162193E-3
457.696152E-3,553.030586E-3
458.445740E-3,553.420830E-3
458.721542E-3,553.424835E-3
458.952713E-3,553.574181E-3
459.395027E-3,553.914070E-3
459.923172E-3,553.756714E-3
460.620117E-3,554.518318E-3
460.640144E-3,554.166985E-3
460.855865E-3,554.648209E-3
461.394882E-3,554.798126E-3
461.176872E-3,554.867363E-3
461.669540E-3,555.212402E-3
461.445236E-3,555.144882E-3
461.529350E-3,554.944038E-3
461.818886E-3,555.140877E-3
461.525345E-3,554.790115E-3
461.959076E-3,555.241013E-3
461.769104E-3,555.106544E-3
461.758804E-3,555.104256E-3
461.980247E-3,555.665588E-3
461.789703E-3,555.118561E-3
462.191391E-3,555.522537E-3
462.284660E-3,555.414963E-3
462.324715E-3,555.360603E-3
462.729836E-3,555.528259E-3
462.053490E-3,555.196381E-3
462.281227E-3,555.442429E-3
462.385368E-3,555.673027E-3
462.665176E-3,555.884743E-3
463.119507E-3,556.056976E-3
463.247681E-3,555.923653E-3
463.609314E-3,556.375122E-3
463.677979E-3,556.169701E-3
464.111710E-3,556.422615E-3
464.774323E-3,556.739044E-3
464.961433E-3,557.013130E-3
465.377426E-3,557.199669E-3
464.990616E-3,556.874084E-3
464.647865E-3,556.682396E-3
463.893700E-3,556.584549E-3
461.997414E-3,555.257034E-3
459.639931E-3,554.593849E-3
455.482864E-3,553.060913E-3
451.610184E-3,551.467896E-3
448.012733E-3,549.986458E-3
444.750595E-3,548.200035E-3
442.800522E-3,547.291946E-3
441.559982E-3,546.629333E-3
441.033554E-3,546.254539E-3
441.405487E-3,546.064568E-3
441.744232E-3,545.859718E-3
443.224525E-3,546.865654E-3
444.489670E-3,547.123718E-3
446.313286E-3,548.244667E-3
448.100853E-3,548.858070E-3
449.404335E-3,549.097824E-3
450.799942E-3,549.902344E-3
451.468849E-3,550.378990E-3
452.152634E-3,550.786400E-3
452.362061E-3,550.875092E-3
452.282524E-3,550.456810E-3
452.218437E-3,550.571251E-3
451.833344E-3,550.312614E-3
451.975822E-3,550.418472E-3
452.555466E-3,550.878525E-3
453.004646E-3,550.725746E-3
454.042625E-3,551.283646E-3
454.462624E-3,551.508522E-3
454.918098E-3,551.906776E-3
455.243111E-3,552.072144E-3
454.601097E-3,551.695633E-3
454.900360E-3,552.119064E-3
454.179955E-3,551.716805E-3
453.538513E-3,551.390076E-3
452.887344E-3,551.149750E-3
452.408981E-3,550.613022E-3
452.244759E-3,550.667953E-3
451.598740E-3,550.258827E-3
451.779556E-3,550.161552E-3
452.156639E-3,550.507164E-3
452.099419E-3,550.250816E-3
453.176308E-3,551.239586E-3
453.474998E-3,551.236153E-3
454.239464E-3,551.548004E-3
454.853439E-3,551.820374E-3
455.088043E-3,551.666451E-3
455.715179E-3,552.104187E-3
456.009293E-3,551.648712E-3
456.669617E-3,551.920509E-3
457.482719E-3,552.623177E-3
457.588005E-3,552.478981E-3
458.352470E-3,552.899551E-3
458.395386E-3,553.286362E-3
458.766747E-3,553.396797E-3
459.004211E-3,553.723526E-3
458.965874E-3,553.657722E-3
459.682846E-3,553.697777E-3
459.323502E-3,553.429413E-3
459.082031E-3,553.051758E-3
459.284592E-3,553.566170E-3
459.443665E-3,553.747559E-3
459.781265E-3,553.950691E-3
459.737206E-3,553.509521E-3
459.531784E-3,553.404236E-3
459.693718E-3,553.974724E-3
459.511757E-3,553.723526E-3
459.815598E-3,553.769302E-3
460.225296E-3,553.558731E-3
459.570694E-3,553.682899E-3
459.829330E-3,553.942108E-3
459.627342E-3,553.270912E-3
459.915161E-3,553.775024E-3
459.773827E-3,553.826523E-3
459.814453E-3,553.768158E-3
460.315132E-3,554.143524E-3
460.143471E-3,553.791618E-3
460.622978E-3,554.240227E-3
461.128807E-3,554.631042E-3
461.106491E-3,554.263115E-3
461.598015E-3,554.478264E-3
461.385727E-3,554.279709E-3
461.997414E-3,554.820442E-3
462.495232E-3,554.434776E-3
462.325859E-3,554.909134E-3
462.557602E-3,555.350304E-3
462.397957E-3,554.959488E-3
461.560249E-3,554.957199E-3
458.622551E-3,553.585052E-3
455.280876E-3,552.290726E-3
451.482010E-3,550.881386E-3
447.355270E-3,548.593140E-3
444.581223E-3,547.485352E-3
442.314148E-3,546.496010E-3
441.032410E-3,545.376205E-3
440.391541E-3,545.280647E-3
440.110588E-3,544.651794E-3
441.631508E-3,545.545006E-3
443.150139E-3,546.368408E-3
444.563484E-3,546.875954E-3
446.419716E-3,547.618103E-3
447.918320E-3,548.347664E-3
449.391747E-3,548.902130E-3
450.580215E-3,549.412537E-3
451.371574E-3,550.026512E-3
452.272224E-3,550.235367E-3
452.594948E-3,550.493431E-3
452.964020E-3,550.634766E-3
452.533722E-3,550.451088E-3
453.042412E-3,550.759506E-3
453.738785E-3,550.900841E-3
453.670692E-3,551.069641E-3
454.451752E-3,551.402092E-3
455.082893E-3,551.489639E-3
455.049133E-3,551.644707E-3
455.048561E-3,551.721382E-3
454.953003E-3,551.672745E-3
454.715538E-3,551.511955E-3
453.952217E-3,550.976372E-3
453.773689E-3,551.093674E-3
453.088188E-3,550.651932E-3
452.248764E-3,550.523186E-3
452.176666E-3,550.504303E-3
452.009010E-3,550.290871E-3
452.054787E-3,550.242805E-3
452.687645E-3,550.654793E-3
452.690506E-3,550.794983E-3
453.372574E-3,551.059341E-3
453.485298E-3,551.186371E-3
454.100990E-3,551.263046E-3
454.853439E-3,552.032661E-3
455.231667E-3,551.957703E-3
456.187248E-3,552.874374E-3
456.759453E-3,552.708435E-3
457.251549E-3,552.563095E-3
457.749939E-3,553.244591E-3
457.773972E-3,553.170776E-3
458.700371E-3,553.439713E-3
458.748436E-3,553.440857E-3
459.194756E-3,553.710937E-3
459.885406E-3,554.005051E-3
459.740067E-3,553.733826E-3
460.529709E-3,554.090309E-3
460.422134E-3,554.048538E-3
460.831261E-3,554.487991E-3
460.822678E-3,554.624176E-3
460.863876E-3,554.395866E-3
460.990906E-3,554.433060E-3
460.772324E-3,554.402733E-3
460.778618E-3,554.235077E-3
461.075592E-3,554.603577E-3
460.602951E-3,554.293442E-3
461.112785E-3,554.742622E-3
460.825539E-3,554.384422E-3
460.607529E-3,554.446220E-3
461.171150E-3,554.686546E-3
461.060143E-3,554.507446E-3
461.013222E-3,554.409027E-3
461.018944E-3,554.327774E-3
461.394882E-3,554.652786E-3
461.710167E-3,554.906273E-3
461.842918E-3,554.919434E-3
462.230873E-3,555.259323E-3
462.356186E-3,555.433273E-3
462.738419E-3,555.375481E-3
463.410759E-3,555.463028E-3
463.281441E-3,555.227852E-3
463.423920E-3,555.627251E-3
462.840271E-3,555.330276E-3
461.446953E-3,554.545212E-3
459.492302E-3,553.737259E-3
456.160927E-3,552.506447E-3
452.893639E-3,550.988960E-3
449.357414E-3,549.660873E-3
446.185684E-3,548.178864E-3
443.824196E-3,547.117424E-3
442.265511E-3,546.019363E-3
441.350555E-3,545.643997E-3
441.034698E-3,545.401955E-3
441.621208E-3,545.447731E-3
442.862320E-3,546.286583E-3
444.211006E-3,546.490860E-3
446.166229E-3,547.556877E-3
447.559547E-3,548.184013E-3
449.273872E-3,549.046898E-3
450.659180E-3,549.535561E-3
451.327515E-3,549.660301E-3
452.264786E-3,549.946404E-3
452.619553E-3,550.322914E-3
452.956009E-3,550.491142E-3
453.270721E-3,550.786400E-3
453.041840E-3,550.437927E-3
453.623199E-3,550.993538E-3
453.991699E-3,550.982666E-3
454.205704E-3,550.842476E-3
454.954720E-3,551.547432E-3
455.291176E-3,551.711082E-3
456.097412E-3,551.795769E-3
455.585289E-3,551.764297E-3
455.428505E-3,551.641273E-3
454.781342E-3,551.652145E-3
453.961945E-3,550.946045E-3
453.775406E-3,551.119423E-3
452.773476E-3,550.779533E-3
452.702522E-3,550.639915E-3
452.624130E-3,550.873947E-3
452.370644E-3,550.303459E-3
452.737999E-3,550.631905E-3
453.183174E-3,550.831032E-3
453.357697E-3,551.214981E-3
454.082680E-3,551.746559E-3
454.261208E-3,551.491928E-3
455.108070E-3,551.780891E-3
455.501747E-3,551.929092E-3
455.988121E-3,552.133369E-3
457.148552E-3,552.713013E-3
457.527924E-3,552.694702E-3
458.519554E-3,553.588486E-3
458.960724E-3,553.793907E-3
459.566116E-3,553.709221E-3
460.002708E-3,554.420471E-3
459.893990E-3,554.015923E-3
460.481644E-3,554.212189E-3
460.481071E-3,554.513168E-3
460.696220E-3,554.264832E-3
461.047554E-3,554.819298E-3
461.018944E-3,554.671097E-3
461.521339E-3,554.849625E-3
461.489296E-3,554.966354E-3
461.654663E-3,555.063057E-3
461.985397E-3,555.140305E-3
461.905289E-3,554.881096E-3
462.230873E-3,555.401230E-3
461.888695E-3,555.348587E-3
461.934471E-3,555.344009E-3
461.833191E-3,555.226707E-3
461.248970E-3,555.104256E-3
461.559677E-3,555.356598E-3
461.521912E-3,555.236435E-3
461.701584E-3,555.177498E-3
462.000847E-3,555.226135E-3
461.678696E-3,554.936028E-3
462.104416E-3,555.361176E-3
462.378502E-3,555.363464E-3
462.627411E-3,555.804634E-3
462.952995E-3,555.663300E-3
462.828827E-3,555.451012E-3
463.328362E-3,555.847549E-3
463.100624E-3,555.906487E-3
463.371849E-3,555.838966E-3
463.221359E-3,556.111336E-3
461.922455E-3,555.420685E-3
460.303116E-3,554.646492E-3
457.494164E-3,553.521538E-3
453.979111E-3,552.200317E-3
450.131607E-3,550.892830E-3
446.372795E-3,548.969078E-3
443.692589E-3,547.492790E-3
441.683578E-3,546.318054E-3
440.225601E-3,545.349312E-3
440.043068E-3,545.330429E-3
440.051079E-3,545.417976E-3
441.529083E-3,546.058273E-3
443.051720E-3,546.580124E-3
444.442177E-3,547.542000E-3
446.274948E-3,548.092461E-3
447.646523E-3,548.166847E-3
448.947716E-3,548.862076E-3
449.955940E-3,549.453735E-3
450.450325E-3,549.753571E-3
450.737572E-3,550.122070E-3
450.402260E-3,549.895477E-3
450.720406E-3,549.933815E-3
450.710106E-3,550.015068E-3
450.839996E-3,549.848557E-3
451.052284E-3,550.162125E-3
451.313782E-3,549.848557E-3
452.229881E-3,550.292587E-3
452.677345E-3,550.778961E-3
453.359413E-3,551.038742E-3
453.515625E-3,551.320267E-3
453.237534E-3,551.062775E-3
453.195763E-3,551.125717E-3
452.439880E-3,550.887108E-3
452.097130E-3,550.595284E-3
452.045631E-3,550.722885E-3
451.255417E-3,550.024796E-3
451.166153E-3,549.953842E-3
450.865173E-3,549.995613E-3
450.921822E-3,550.092316E-3
451.217651E-3,550.056839E-3
451.080894E-3,549.888039E-3
451.477432E-3,550.282860E-3
451.866531E-3,550.369263E-3
452.269936E-3,550.659370E-3
453.066444E-3,550.951195E-3
453.172302E-3,550.682831E-3
453.983116E-3,551.296234E-3
454.391670E-3,551.487923E-3
454.718971E-3,551.463318E-3
455.597878E-3,551.822090E-3
455.763245E-3,551.794052E-3
456.462479E-3,552.297592E-3
456.861877E-3,552.445793E-3
457.126808E-3,552.728462E-3
457.637787E-3,552.939034E-3
457.491302E-3,552.641487E-3
457.851219E-3,552.696991E-3
457.977676E-3,552.717590E-3
457.896996E-3,552.916718E-3
458.102989E-3,553.317261E-3
457.820892E-3,552.641487E-3
458.256912E-3,553.148460E-3
458.151627E-3,553.149033E-3
458.211136E-3,553.283501E-3
458.380508E-3,553.588486E-3
458.109283E-3,552.752495E-3
458.259773E-3,553.149033E-3
457.848358E-3,553.216553E-3
457.596016E-3,552.791977E-3
457.882118E-3,552.912712E-3
457.625198E-3,552.655220E-3
458.183098E-3,553.164482E-3
458.284378E-3,553.227425E-3
458.445168E-3,553.253174E-3
459.002495E-3,553.608513E-3
458.985901E-3,553.377914E-3
459.277153E-3,553.531265E-3
459.744644E-3,553.845978E-3
459.770966E-3,553.628540E-3
460.253334E-3,554.079437E-3
459.507179E-3,553.461456E-3
459.471703E-3,553.593636E-3
458.116150E-3,553.159904E-3
455.979538E-3,552.269554E-3
453.138542E-3,550.922012E-3
449.183464E-3,549.076080E-3
446.032333E-3,547.998047E-3
442.806816E-3,546.459389E-3
440.588379E-3,545.497513E-3
439.413643E-3,544.621468E-3
438.146782E-3,543.886757E-3
438.695526E-3,544.283295E-3
439.204216E-3,544.501305E-3
440.202141E-3,544.583702E-3
441.867256E-3,545.832253E-3
443.186760E-3,546.128082E-3
445.116806E-3,547.230721E-3
446.494102E-3,547.659302E-3
447.606468E-3,548.072433E-3
448.788643E-3,548.514748E-3
449.045563E-3,548.461533E-3
449.541664E-3,548.748207E-3
449.726486E-3,549.066353E-3
449.961090E-3,548.871803E-3
450.267220E-3,549.435997E-3
450.078392E-3,549.048615E-3
450.801659E-3,549.782753E-3
451.525497E-3,550.302887E-3
452.147484E-3,550.296021E-3
452.653885E-3,550.346375E-3
452.236748E-3,550.074577E-3
452.204704E-3,550.375557E-3
451.909447E-3,550.080299E-3
451.023102E-3,549.478912E-3
450.723839E-3,549.368477E-3
449.563408E-3,548.921013E-3
449.436378E-3,549.022293E-3
448.943138E-3,548.896980E-3
449.105644E-3,548.648071E-3
449.415779E-3,548.916435E-3
449.245262E-3,548.676682E-3
449.812889E-3,549.229431E-3
450.359917E-3,549.188805E-3
450.718117E-3,549.481773E-3
451.582146E-3,550.165558E-3
451.642227E-3,549.888039E-3
452.247047E-3,550.302887E-3
452.859306E-3,550.486565E-3
453.440666E-3,550.445366E-3
454.217720E-3,550.804710E-3
454.289246E-3,550.887680E-3
454.824829E-3,551.403809E-3
455.278015E-3,551.560020E-3
455.519485E-3,551.847267E-3
456.101990E-3,551.947403E-3
455.978394E-3,551.779747E-3
456.446457E-3,552.305031E-3
456.666183E-3,552.153969E-3
456.540298E-3,552.382278E-3
457.067299E-3,552.428055E-3
457.039833E-3,552.125931E-3
457.580566E-3,552.816010E-3
457.453537E-3,552.518463E-3
457.551956E-3,552.584839E-3
457.860947E-3,552.997398E-3
457.520485E-3,552.702713E-3
457.899857E-3,553.061485E-3
457.683563E-3,552.927017E-3
457.399750E-3,552.337646E-3
457.585144E-3,552.556229E-3
457.217789E-3,552.361679E-3
457.575417E-3,552.824020E-3
457.815742E-3,552.699280E-3
457.930183E-3,552.875519E-3
458.515549E-3,553.013420E-3
458.728409E-3,553.042603E-3
459.145546E-3,553.458595E-3
459.244537E-3,553.805351E-3
459.234810E-3,553.421402E-3
459.589577E-3,553.698921E-3
459.141541E-3,553.247452E-3
458.628845E-3,553.377342E-3
457.082176E-3,552.573967E-3
454.316711E-3,551.442146E-3
451.337242E-3,550.403023E-3
447.537231E-3,548.258400E-3
444.419289E-3,547.109985E-3
441.494179E-3,545.709229E-3
439.458847E-3,544.512177E-3
438.088989E-3,543.832970E-3
437.410927E-3,543.280220E-3
438.000298E-3,543.444443E-3
438.351631E-3,543.768311E-3
439.382172E-3,543.968582E-3
440.999222E-3,544.564247E-3
442.171669E-3,545.027161E-3
444.062805E-3,546.106911E-3
445.120811E-3,546.841621E-3
446.305275E-3,546.824455E-3
447.441101E-3,547.719955E-3
447.854233E-3,547.682762E-3
448.286819E-3,548.242378E-3
448.414421E-3,548.294449E-3
448.456764E-3,548.047256E-3
448.721695E-3,548.400879E-3
448.606110E-3,548.089600E-3
449.408340E-3,548.583412E-3
450.105286E-3,548.720741E-3
450.393677E-3,549.128723E-3
451.147270E-3,549.381065E-3
451.094055E-3,549.201393E-3
451.404190E-3,549.703217E-3
450.769615E-3,549.621391E-3
450.374222E-3,549.323845E-3
449.845505E-3,549.193382E-3
449.113655E-3,548.696136E-3
448.994064E-3,548.829460E-3
448.271370E-3,548.471260E-3
448.090553E-3,547.820091E-3
448.273087E-3,547.998047E-3
448.165512E-3,548.280144E-3
449.027824E-3,548.764229E-3
449.574280E-3,548.951340E-3
449.935913E-3,549.125290E-3
450.917816E-3,549.788475E-3
451.490021E-3,549.713516E-3
452.184105E-3,550.166702E-3
453.080750E-3,550.298309E-3
453.606606E-3,550.914574E-3
454.310417E-3,551.096535E-3
454.637146E-3,551.133728E-3
455.324936E-3,551.396942E-3
456.119156E-3,551.824379E-3
456.457329E-3,551.935959E-3
456.608391E-3,552.126503E-3
456.522560E-3,552.241516E-3
456.828117E-3,552.418327E-3
457.354546E-3,552.661514E-3
457.436943E-3,552.546501E-3
457.663536E-3,552.927017E-3
457.510185E-3,552.971077E-3
458.075523E-3,553.299522E-3
458.190536E-3,553.309250E-3
458.176231E-3,553.100967E-3
458.350754E-3,553.212547E-3
458.053780E-3,553.428841E-3
458.360481E-3,553.583336E-3
458.286095E-3,553.398514E-3
458.161926E-3,553.166199E-3
458.268929E-3,553.423119E-3
457.940483E-3,553.123856E-3
458.222008E-3,553.210258E-3
458.382797E-3,553.368759E-3
458.529282E-3,553.330421E-3
458.866882E-3,553.607941E-3
458.909798E-3,553.658295E-3
459.377289E-3,553.773308E-3
459.973526E-3,554.264259E-3
460.336304E-3,554.146385E-3
460.637856E-3,554.620171E-3
460.403252E-3,554.257965E-3
460.494232E-3,554.322624E-3
460.050774E-3,553.971291E-3
458.742142E-3,553.718948E-3
456.741714E-3,553.089523E-3
453.115654E-3,551.554298E-3
449.622345E-3,550.231934E-3
445.756531E-3,548.447227E-3
442.430878E-3,546.832466E-3
439.797592E-3,545.417404E-3
438.120461E-3,544.212341E-3
437.600327E-3,544.126511E-3
436.981773E-3,543.534851E-3
437.276459E-3,543.390656E-3
438.484955E-3,544.215775E-3
439.624786E-3,544.616318E-3
441.372871E-3,545.644569E-3
442.901802E-3,546.578979E-3
444.224739E-3,546.977234E-3
445.709610E-3,547.721672E-3
446.447754E-3,548.003197E-3
447.294617E-3,548.530769E-3
447.604179E-3,548.703575E-3
447.433090E-3,548.341370E-3
447.763824E-3,548.534775E-3
447.534370E-3,548.492432E-3
447.869682E-3,548.750496E-3
448.332024E-3,548.807716E-3
448.947144E-3,549.233437E-3
449.870110E-3,549.702644E-3
450.434875E-3,549.861145E-3
451.234245E-3,550.472260E-3
451.467133E-3,550.348091E-3
451.333809E-3,550.428200E-3
451.204491E-3,550.372124E-3
450.761604E-3,550.298882E-3
450.470924E-3,550.284004E-3
449.962234E-3,550.103760E-3
449.329376E-3,549.607086E-3
449.084473E-3,549.632263E-3
448.857880E-3,549.357605E-3
449.151993E-3,549.636269E-3
449.408340E-3,549.599075E-3
449.736786E-3,549.801064E-3
450.370789E-3,550.017357E-3
450.798225E-3,550.198746E-3
451.835632E-3,550.721741E-3
452.224731E-3,550.778389E-3
452.588081E-3,550.827026E-3
453.294182E-3,551.253319E-3
453.547096E-3,550.995827E-3
454.020882E-3,551.311684E-3
454.403114E-3,551.394081E-3
454.346466E-3,551.535416E-3
455.172157E-3,552.318764E-3
455.077744E-3,552.279854E-3
455.845642E-3,552.296448E-3
456.104851E-3,552.577400E-3
456.228447E-3,552.580261E-3
456.445312E-3,552.628899E-3
456.026459E-3,552.296448E-3
456.247330E-3,552.551079E-3
456.213570E-3,552.323341E-3
456.013870E-3,552.254105E-3
456.405258E-3,552.627182E-3
456.000137E-3,552.252388E-3
456.204987E-3,552.231789E-3
456.270790E-3,552.350235E-3
456.459045E-3,552.494431E-3
456.595230E-3,552.695847E-3
456.298828E-3,552.499008E-3
456.581497E-3,552.777672E-3
456.584358E-3,552.923012E-3
456.632423E-3,552.611732E-3
456.825256E-3,552.599144E-3
456.542587E-3,552.644920E-3
457.099915E-3,552.836609E-3
457.453537E-3,553.090668E-3
457.805443E-3,553.376198E-3
458.162498E-3,553.531265E-3
458.386230E-3,553.435707E-3
458.964729E-3,553.708076E-3
459.426498E-3,553.821945E-3
459.578133E-3,553.855133E-3
459.954071E-3,554.302025E-3
459.609032E-3,553.959846E-3
459.653664E-3,554.200745E-3
458.568192E-3,553.498650E-3
456.314850E-3,552.594566E-3
453.260422E-3,551.328850E-3
449.346542E-3,549.871445E-3
445.924187E-3,548.141670E-3
442.696381E-3,546.471977E-3
439.640236E-3,545.133018E-3
437.865829E-3,544.127655E-3
436.358070E-3,543.110847E-3
436.188698E-3,543.041039E-3
436.511993E-3,543.012428E-3
437.514496E-3,543.008423E-3
438.903809E-3,544.137955E-3
440.029335E-3,544.840622E-3
442.082405E-3,545.706367E-3
443.633080E-3,546.317482E-3
444.815254E-3,546.827888E-3
446.103859E-3,547.572899E-3
446.456909E-3,547.900200E-3
447.169304E-3,548.311043E-3
447.443962E-3,548.327065E-3
447.278595E-3,548.039818E-3
447.457123E-3,548.449516E-3
447.386169E-3,548.047829E-3
448.146629E-3,548.633194E-3
448.650169E-3,548.717308E-3
449.141693E-3,548.704720E-3
449.728775E-3,549.271202E-3
450.097275E-3,549.272346E-3
450.153923E-3,549.483490E-3
449.941063E-3,549.461746E-3
449.240685E-3,549.264336E-3
448.713684E-3,548.839188E-3
447.966957E-3,548.377991E-3
447.881126E-3,548.515320E-3
447.210503E-3,548.158836E-3
447.230530E-3,547.849274E-3
447.172737E-3,548.113632E-3
447.437096E-3,548.220062E-3
448.107147E-3,548.426056E-3
448.575783E-3,548.651505E-3
448.859024E-3,548.606873E-3
449.580002E-3,549.250603E-3
449.883270E-3,549.254608E-3
450.921822E-3,549.747276E-3
451.630211E-3,550.013351E-3
451.594162E-3,550.130653E-3
452.125740E-3,550.228500E-3
452.537727E-3,550.201607E-3
453.357697E-3,550.765228E-3
453.623772E-3,551.143456E-3
454.155350E-3,551.058197E-3
454.499245E-3,551.520538E-3
454.467773E-3,551.390648E-3
455.192184E-3,551.735687E-3
455.167580E-3,551.860428E-3
455.118942E-3,551.894760E-3
455.284309E-3,552.021217E-3
455.254555E-3,551.778030E-3
455.676270E-3,552.155685E-3
455.704880E-3,552.152824E-3
455.735207E-3,552.243233E-3
456.020164E-3,552.749062E-3
456.009293E-3,552.411461E-3
456.112289E-3,552.468109E-3
456.207275E-3,552.703285E-3
456.068802E-3,552.231216E-3
456.365204E-3,552.741623E-3
455.890846E-3,552.462959E-3
456.080246E-3,552.561951E-3
456.495094E-3,552.592850E-3
456.578064E-3,552.493858E-3
457.001495E-3,552.592278E-3
457.110214E-3,552.624321E-3
457.481575E-3,553.214836E-3
458.160210E-3,553.440857E-3
458.191681E-3,553.505516E-3
458.703232E-3,554.160118E-3
458.631134E-3,553.881454E-3
459.004784E-3,554.073715E-3
458.671188E-3,553.577614E-3
458.293533E-3,553.329277E-3
457.916451E-3,553.180504E-3
456.123161E-3,552.088737E-3
453.678703E-3,551.374054E-3
450.464630E-3,549.989319E-3
446.530151E-3,548.266983E-3
443.203354E-3,547.076225E-3
440.189552E-3,545.226288E-3
438.272095E-3,544.198036E-3
436.807251E-3,543.161201E-3
436.108589E-3,542.495155E-3
436.284256E-3,542.372131E-3
436.847305E-3,542.540359E-3
438.355637E-3,543.549728E-3
439.565849E-3,544.327927E-3
441.160011E-3,545.044899E-3
442.644310E-3,545.566177E-3
443.839645E-3,546.296883E-3
445.092201E-3,546.972656E-3
445.750237E-3,547.337151E-3
446.165657E-3,547.510529E-3
446.357346E-3,547.717667E-3
446.483803E-3,547.283936E-3
446.806526E-3,547.334290E-3
446.942711E-3,547.667313E-3
447.011375E-3,547.671318E-3
447.977257E-3,548.377419E-3
448.432732E-3,548.171425E-3
449.372864E-3,548.474121E-3
449.802589E-3,548.713875E-3
449.605751E-3,548.571396E-3
449.604034E-3,548.659515E-3
448.792076E-3,548.311043E-3
448.060226E-3,548.145103E-3
447.354126E-3,548.064423E-3
446.838570E-3,547.776604E-3
446.684074E-3,547.488785E-3
446.199989E-3,547.258759E-3
446.578217E-3,547.643852E-3
446.728134E-3,547.681046E-3
446.819687E-3,547.556305E-3
447.670555E-3,547.976875E-3
447.742653E-3,548.113060E-3
448.543167E-3,548.555946E-3
449.151993E-3,548.635483E-3
449.760818E-3,548.591423E-3
450.595093E-3,549.244881E-3
451.016235E-3,549.034309E-3
451.843643E-3,549.947548E-3
452.518272E-3,549.977303E-3
453.185463E-3,550.306892E-3
453.640366E-3,550.750923E-3
453.907013E-3,550.635338E-3
454.318428E-3,551.126289E-3
454.623985E-3,551.508522E-3
454.979897E-3,551.391792E-3
455.368996E-3,551.554298E-3
455.184746E-3,551.476479E-3
455.360985E-3,551.684189E-3
455.592155E-3,551.727676E-3
455.536652E-3,551.844978E-3
456.294823E-3,551.961136E-3
456.100845E-3,552.064133E-3
456.240463E-3,552.434921E-3
456.209564E-3,552.644348E-3
456.483078E-3,552.194023E-3
456.615829E-3,552.191162E-3
456.287384E-3,552.033806E-3
456.400681E-3,552.116203E-3
456.071663E-3,552.196312E-3
455.854225E-3,552.042389E-3
456.405258E-3,552.242088E-3
456.404686E-3,552.561951E-3
456.859016E-3,552.615738E-3
457.194901E-3,553.022003E-3
457.341385E-3,552.734756E-3
457.923317E-3,553.064346E-3
457.978249E-3,553.141022E-3
458.551598E-3,553.685760E-3
458.815384E-3,553.808784E-3
459.009361E-3,553.573608E-3
459.598160E-3,554.161263E-3
459.099770E-3,553.597069E-3
459.547234E-3,553.951263E-3
458.755875E-3,553.966713E-3
456.976891E-3,552.866364E-3
454.778481E-3,552.394295E-3
451.034546E-3,550.679398E-3
447.535515E-3,549.224281E-3
443.375015E-3,547.239304E-3
440.031052E-3,545.258331E-3
437.725639E-3,543.832397E-3
435.388184E-3,542.629051E-3
434.869766E-3,542.229652E-3
434.920120E-3,542.397881E-3
435.245705E-3,542.462540E-3
436.962318E-3,543.081093E-3
438.200569E-3,543.976021E-3
440.111160E-3,545.297241E-3
441.679001E-3,546.039963E-3
442.668343E-3,546.087456E-3
444.360924E-3,547.122574E-3
444.868469E-3,547.249031E-3
445.685005E-3,547.865295E-3
445.971107E-3,547.739410E-3
445.624924E-3,547.439575E-3
446.057510E-3,548.013496E-3
445.738792E-3,547.590637E-3
446.293259E-3,548.298454E-3
447.102356E-3,548.610306E-3
447.213364E-3,548.460960E-3
448.311996E-3,548.838615E-3
448.758316E-3,549.152756E-3
449.251556E-3,549.308968E-3
449.518776E-3,549.544716E-3
449.289322E-3,549.258041E-3
449.415207E-3,549.333000E-3
448.784637E-3,548.969078E-3
448.515701E-3,549.216843E-3
448.372078E-3,549.100113E-3
448.050499E-3,549.080086E-3
448.069954E-3,548.874092E-3
447.730637E-3,548.638916E-3
447.715187E-3,549.119568E-3
447.978973E-3,549.087524E-3
448.062515E-3,548.977661E-3
448.880196E-3,549.655724E-3
449.423790E-3,549.633980E-3
450.382805E-3,550.129509E-3
450.734138E-3,550.075150E-3
451.227951E-3,550.316048E-3
451.976395E-3,550.669670E-3
452.575493E-3,550.977516E-3
453.536224E-3,551.130295E-3
453.571701E-3,551.607513E-3
454.035187E-3,551.498222E-3
454.416847E-3,551.977730E-3
454.607391E-3,551.920509E-3
454.995918E-3,552.156830E-3
455.347824E-3,552.485847E-3
455.349541E-3,552.253532E-3
455.619049E-3,552.495003E-3
455.633354E-3,552.214050E-3
456.292534E-3,552.617455E-3
456.029892E-3,552.788544E-3
456.129456E-3,552.795982E-3
456.360054E-3,552.912712E-3
456.052780E-3,552.612877E-3
455.908585E-3,552.568245E-3
455.730057E-3,552.219200E-3
455.484009E-3,552.192879E-3
455.665970E-3,552.294159E-3
455.647659E-3,552.126503E-3
455.734062E-3,552.293015E-3
455.784988E-3,552.469826E-3
455.558968E-3,552.219200E-3
456.112862E-3,552.355385E-3
455.902290E-3,552.458954E-3
456.162643E-3,552.739334E-3
456.136322E-3,552.719879E-3
456.452179E-3,552.576828E-3
456.550598E-3,552.426338E-3
456.665611E-3,552.342224E-3
457.545090E-3,553.108978E-3
457.872391E-3,553.103828E-3
458.181381E-3,553.177071E-3
458.759308E-3,553.669167E-3
458.509827E-3,553.508949E-3
458.577919E-3,553.622246E-3
458.115578E-3,553.729820E-3
456.904793E-3,552.801704E-3
454.927826E-3,552.380562E-3
451.651382E-3,550.704002E-3
448.019600E-3,549.045753E-3
444.108582E-3,547.343445E-3
440.632439E-3,545.389938E-3
437.789726E-3,544.189453E-3
435.737801E-3,542.860794E-3
435.003662E-3,542.477989E-3
434.778786E-3,542.296600E-3
435.473442E-3,542.520905E-3
436.620140E-3,542.994118E-3
437.780571E-3,543.673325E-3
439.568710E-3,544.497871E-3
441.118813E-3,545.447731E-3
442.423439E-3,546.320343E-3
443.985558E-3,546.957207E-3
444.615555E-3,547.117996E-3
445.789146E-3,547.881317E-3
446.348190E-3,547.847557E-3
446.193123E-3,548.213196E-3
446.701813E-3,548.546219E-3
446.627426E-3,548.127365E-3
447.123528E-3,548.462677E-3
447.456551E-3,548.858643E-3
448.166656E-3,548.842621E-3
449.184608E-3,549.209404E-3
449.532509E-3,549.284363E-3
450.120735E-3,549.836540E-3
449.796867E-3,549.783325E-3
449.538803E-3,549.589920E-3
449.300194E-3,549.797630E-3
448.672485E-3,549.147034E-3
448.285675E-3,549.401093E-3
447.761536E-3,548.799133E-3
447.154427E-3,548.486137E-3
447.447395E-3,548.868370E-3
447.044563E-3,548.670387E-3
447.189903E-3,548.649216E-3
447.703743E-3,548.545647E-3
447.920036E-3,548.788261E-3
448.756027E-3,548.997688E-3
449.153137E-3,549.160194E-3
449.992561E-3,549.751282E-3
450.580215E-3,549.772453E-3
450.979042E-3,550.300026E-3
451.583290E-3,550.576401E-3
451.962662E-3,550.584984E-3
452.529716E-3,551.079369E-3
453.045273E-3,550.940323E-3
453.320503E-3,551.003838E-3
453.821182E-3,551.693916E-3
453.953934E-3,551.509666E-3
454.460335E-3,552.156258E-3
454.717255E-3,551.625252E-3
454.522705E-3,551.648712E-3
455.013657E-3,552.208900E-3
455.002785E-3,552.144814E-3
455.290604E-3,552.491570E-3
455.404472E-3,552.171707E-3
455.245972E-3,552.480125E-3
455.429077E-3,552.129364E-3
455.344963E-3,551.911926E-3
455.384445E-3,552.253532E-3
455.570412E-3,552.124786E-3
455.370140E-3,552.321625E-3
455.462837E-3,552.199745E-3
455.379868E-3,552.382278E-3
455.879402E-3,552.604866E-3
455.833054E-3,552.818298E-3
455.994987E-3,552.840042E-3
455.960655E-3,552.684975E-3
455.940056E-3,552.484703E-3
456.404686E-3,552.856636E-3
456.710243E-3,552.985954E-3
457.113647E-3,552.904701E-3
457.550240E-3,553.275490E-3
457.848358E-3,553.413391E-3
458.167648E-3,553.606224E-3
458.802223E-3,553.746414E-3
459.055138E-3,554.148674E-3
459.624481E-3,554.499435E-3
459.143257E-3,554.267693E-3
459.464264E-3,554.555511E-3
458.351898E-3,553.898048E-3
456.668472E-3,552.868080E-3
454.147339E-3,552.098465E-3
450.196266E-3,550.433350E-3
446.812820E-3,548.893547E-3
443.452835E-3,547.190666E-3
440.567780E-3,545.575905E-3
438.527870E-3,544.873810E-3
436.917114E-3,543.903351E-3
436.885643E-3,543.664169E-3
437.186623E-3,543.426132E-3
437.851524E-3,543.715096E-3
439.454269E-3,544.799995E-3
441.035843E-3,545.283508E-3
442.878342E-3,546.320343E-3
444.530296E-3,546.840477E-3
445.930481E-3,547.440147E-3
447.104073E-3,547.962570E-3
447.737503E-3,548.140526E-3
448.334312E-3,548.739052E-3
448.729134E-3,548.887825E-3
448.548889E-3,548.918724E-3
448.699379E-3,548.779106E-3
448.647881E-3,548.747635E-3
449.374008E-3,549.204254E-3
449.915314E-3,549.468613E-3
450.784492E-3,549.576759E-3
451.205635E-3,549.964714E-3
451.164436E-3,549.822235E-3
451.372719E-3,550.279999E-3
450.865173E-3,549.998474E-3
450.315285E-3,549.608231E-3
449.695587E-3,549.675179E-3
448.756027E-3,549.112129E-3
448.259354E-3,548.968506E-3
447.573853E-3,548.499298E-3
447.187042E-3,548.083878E-3
447.053719E-3,547.901344E-3
446.944427E-3,547.803497E-3
447.563553E-3,548.151398E-3
448.090553E-3,548.545647E-3
448.523712E-3,548.665237E-3
449.326515E-3,549.074364E-3
450.068092E-3,549.120140E-3
451.310349E-3,549.868011E-3
451.776123E-3,550.159836E-3
452.275658E-3,550.174141E-3
452.872467E-3,550.472832E-3
453.064728E-3,550.211906E-3
453.577995E-3,550.687981E-3
454.036331E-3,551.030731E-3
454.309273E-3,550.891685E-3
454.866028E-3,551.569176E-3
454.908943E-3,551.537132E-3
455.659676E-3,551.919365E-3
