Notes :


2023-12-11 ¿ÀÈÄ 10:24:05
Volts
Ch : LED 2,
498.504639E-3
499.559784E-3
500.441551E-3
503.116608E-3
506.653976E-3
509.367371E-3
512.649536E-3
514.177322E-3
515.932274E-3
517.403984E-3
517.848015E-3
518.540382E-3
518.273163E-3
518.332100E-3
518.624496E-3
518.256569E-3
519.988060E-3
520.812035E-3
522.220802E-3
523.729134E-3
523.631859E-3
524.219513E-3
523.443604E-3
522.583580E-3
521.435165E-3
519.763756E-3
518.433952E-3
517.189980E-3
516.601181E-3
516.507912E-3
516.206360E-3
517.636871E-3
518.396187E-3
519.333458E-3
521.193123E-3
521.793938E-3
523.673630E-3
524.391747E-3
525.496674E-3
527.309990E-3
527.426147E-3
528.498459E-3
528.761101E-3
529.134750E-3
529.921532E-3
530.154991E-3
531.079674E-3
531.005859E-3
531.422424E-3
532.094765E-3
531.360054E-3
531.554604E-3
531.502533E-3
531.283951E-3
531.948853E-3
531.507111E-3
531.980324E-3
531.501389E-3
531.439590E-3
531.639862E-3
531.026459E-3
531.698799E-3
531.286812E-3
531.307983E-3
531.614113E-3
531.169510E-3
532.141113E-3
532.171440E-3
532.481575E-3
533.280373E-3
532.960510E-3
533.974457E-3
534.323502E-3
534.402466E-3
535.665321E-3
535.706520E-3
537.004852E-3
537.268639E-3
537.514687E-3
538.450241E-3
537.916946E-3
538.568115E-3
537.823105E-3
536.687851E-3
534.803581E-3
529.756165E-3
524.880409E-3
518.195915E-3
511.631012E-3
505.872345E-3
500.204086E-3
497.389412E-3
495.820427E-3
495.688248E-3
497.609138E-3
498.961258E-3
502.362442E-3
504.903030E-3
507.301712E-3
510.064888E-3
511.053658E-3
513.123894E-3
514.082909E-3
514.031982E-3
514.702034E-3
513.874054E-3
514.382744E-3
514.273453E-3
514.511490E-3
515.761185E-3
516.635513E-3
517.972755E-3
519.422150E-3
520.195770E-3
521.115875E-3
520.188904E-3
519.760323E-3
518.218231E-3
516.966248E-3
515.995789E-3
513.531303E-3
513.621140E-3
513.414574E-3
512.747383E-3
513.442039E-3
513.369370E-3
515.250206E-3
516.502762E-3
517.532730E-3
519.219589E-3
519.683075E-3
521.596527E-3
522.818756E-3
523.526573E-3
524.553108E-3
524.811745E-3
525.831985E-3
526.384735E-3
526.996994E-3
527.685356E-3
527.200127E-3
527.894211E-3
528.166580E-3
528.687286E-3
529.203987E-3
528.350258E-3
528.866386E-3
528.792000E-3
528.817177E-3
528.941917E-3
528.614616E-3
528.946495E-3
529.229164E-3
528.951645E-3
529.566193E-3
529.047775E-3
529.642868E-3
529.947281E-3
530.366707E-3
530.805016E-3
530.882263E-3
531.706238E-3
531.589508E-3
532.217216E-3
532.824326E-3
532.193756E-3
533.442307E-3
533.724976E-3
534.116364E-3
534.938622E-3
534.840775E-3
535.850143E-3
536.591721E-3
536.822319E-3
537.815666E-3
537.491798E-3
538.084030E-3
537.784767E-3
536.895561E-3
535.422707E-3
531.068802E-3
526.898003E-3
520.295334E-3
513.293266E-3
506.570435E-3
500.260735E-3
496.621513E-3
494.374466E-3
493.084717E-3
494.577599E-3
495.990372E-3
498.720360E-3
501.255226E-3
503.911400E-3
506.858826E-3
508.337402E-3
509.971046E-3
510.883713E-3
511.652184E-3
512.321663E-3
511.457062E-3
511.770630E-3
511.667061E-3
511.083412E-3
512.065887E-3
512.606621E-3
514.464569E-3
515.464783E-3
516.864395E-3
518.112373E-3
518.308067E-3
519.104576E-3
518.247414E-3
517.589951E-3
517.188835E-3
515.831566E-3
515.319443E-3
514.963531E-3
514.768982E-3
515.554619E-3
515.630722E-3
517.168808E-3
518.245125E-3
519.517136E-3
520.968246E-3
521.759605E-3
523.273087E-3
524.097061E-3
524.744797E-3
526.399040E-3
526.633644E-3
527.728271E-3
528.215218E-3
528.854942E-3
529.732704E-3
529.338455E-3
530.080032E-3
530.203629E-3
530.265999E-3
530.871964E-3
530.316353E-3
530.950928E-3
531.216431E-3
531.094551E-3
531.582069E-3
531.059647E-3
531.664467E-3
531.715965E-3
531.340599E-3
532.008362E-3
531.757736E-3
532.550812E-3
532.405472E-3
532.474709E-3
533.264351E-3
532.863235E-3
533.870888E-3
533.964157E-3
533.837700E-3
534.859085E-3
534.707451E-3
535.581779E-3
535.786629E-3
536.054420E-3
536.839485E-3
537.000847E-3
537.926674E-3
538.114929E-3
538.336372E-3
539.383507E-3
539.099121E-3
540.177155E-3
540.753365E-3
540.291023E-3
541.002274E-3
540.139961E-3
539.852142E-3
537.674332E-3
533.821106E-3
529.252625E-3
522.477722E-3
516.462708E-3
510.170174E-3
504.836082E-3
501.593399E-3
499.195862E-3
499.688530E-3
500.906181E-3
503.013039E-3
506.334114E-3
508.661270E-3
512.054443E-3
514.528656E-3
516.148567E-3
518.170166E-3
518.554687E-3
519.542313E-3
519.919968E-3
519.789505E-3
519.886208E-3
519.399834E-3
520.603180E-3
521.697235E-3
522.678566E-3
524.684715E-3
525.145340E-3
526.243973E-3
525.965881E-3
524.922752E-3
523.924828E-3
522.204781E-3
521.415710E-3
520.246696E-3
519.121170E-3
519.075394E-3
518.899155E-3
519.850731E-3
520.753098E-3
521.712685E-3
523.462486E-3
524.066734E-3
525.565338E-3
526.700020E-3
527.840996E-3
529.282951E-3
529.315567E-3
530.645370E-3
531.328583E-3
531.859589E-3
532.579422E-3
532.689857E-3
533.410263E-3
533.651733E-3
533.572769E-3
533.959007E-3
533.427429E-3
534.227371E-3
534.251976E-3
533.807945E-3
534.317780E-3
533.877182E-3
534.332085E-3
534.079170E-3
533.773613E-3
534.408188E-3
534.061432E-3
534.318352E-3
534.563255E-3
534.092331E-3
534.354401E-3
534.317780E-3
534.772110E-3
534.841919E-3
535.249901E-3
535.832405E-3
535.899925E-3
536.700439E-3
537.238884E-3
537.863731E-3
538.776398E-3
538.884544E-3
539.856148E-3
540.233231E-3
540.281296E-3
541.284943E-3
540.927315E-3
541.421127E-3
541.377068E-3
540.514755E-3
539.728546E-3
536.271286E-3
531.933975E-3
526.435089E-3
519.856453E-3
513.559914E-3
506.943512E-3
502.739525E-3
500.024986E-3
499.173546E-3
500.039291E-3
501.214027E-3
504.178619E-3
507.127762E-3
510.008240E-3
512.985420E-3
514.900017E-3
517.150497E-3
518.467712E-3
518.776131E-3
519.684792E-3
519.327736E-3
519.454193E-3
519.638443E-3
519.887924E-3
521.173096E-3
521.783638E-3
523.543739E-3
524.922752E-3
525.430870E-3
526.356125E-3
525.390244E-3
524.767113E-3
523.451042E-3
521.770477E-3
521.086121E-3
519.528008E-3
518.979836E-3
518.738365E-3
519.040489E-3
520.365715E-3
520.889282E-3
522.311211E-3
523.764038E-3
524.907303E-3
526.704597E-3
527.507973E-3
529.071236E-3
529.953575E-3
530.747223E-3
532.259560E-3
532.408905E-3
533.245468E-3
533.805084E-3
533.576775E-3
534.430504E-3
534.322929E-3
534.855652E-3
534.717178E-3
534.777832E-3
535.561180E-3
535.254478E-3
535.348320E-3
535.376930E-3
535.000992E-3
535.471916E-3
534.963226E-3
535.212135E-3
535.441589E-3
535.075378E-3
535.452461E-3
535.209846E-3
535.839844E-3
535.919952E-3
536.079597E-3
536.783981E-3
536.642647E-3
537.366486E-3
537.724686E-3
537.300110E-3
538.330078E-3
538.527489E-3
538.976097E-3
539.489365E-3
539.341164E-3
540.136528E-3
540.372849E-3
541.203117E-3
541.867447E-3
542.051125E-3
542.783546E-3
543.080521E-3
543.482208E-3
543.666458E-3
543.208122E-3
543.068504E-3
540.178871E-3
536.389732E-3
530.990410E-3
523.951721E-3
517.448616E-3
510.049438E-3
504.587746E-3
500.090790E-3
497.692108E-3
497.780800E-3
498.243141E-3
500.576019E-3
503.260231E-3
505.477524E-3
509.137344E-3
511.137199E-3
513.067818E-3
514.668846E-3
515.193558E-3
516.305351E-3
515.948868E-3
515.839577E-3
515.246773E-3
514.647102E-3
515.423012E-3
515.356636E-3
516.462708E-3
518.159866E-3
519.489670E-3
521.470070E-3
521.967888E-3
522.461700E-3
522.509193E-3
521.850014E-3
521.539307E-3
520.255280E-3
519.808960E-3
519.122314E-3
518.392181E-3
519.196129E-3
519.284821E-3
520.413780E-3
521.533585E-3
522.268295E-3
523.975182E-3
524.921036E-3
526.210785E-3
527.594376E-3
527.945709E-3
529.747009E-3
530.267715E-3
531.184387E-3
532.347679E-3
532.291603E-3
533.195686E-3
532.891273E-3
533.575058E-3
533.944702E-3
533.771324E-3
534.883690E-3
534.693718E-3
534.936333E-3
535.217285E-3
534.848213E-3
535.512543E-3
535.293388E-3
535.161781E-3
535.614395E-3
535.137177E-3
536.113930E-3
536.094475E-3
536.559677E-3
537.137604E-3
536.642647E-3
537.622833E-3
537.718964E-3
537.928963E-3
538.698006E-3
538.716888E-3
539.332008E-3
538.986397E-3
539.686203E-3
540.617180E-3
540.537643E-3
541.445160E-3
541.316986E-3
542.121506E-3
542.570686E-3
542.637062E-3
543.786621E-3
543.808365E-3
544.270134E-3
544.947052E-3
544.880676E-3
545.869446E-3
545.600510E-3
545.613098E-3
545.455742E-3
543.609810E-3
541.258049E-3
536.388588E-3
530.501175E-3
523.852158E-3
516.607475E-3
511.169243E-3
505.943298E-3
503.330612E-3
502.517509E-3
502.332687E-3
504.279900E-3
506.846237E-3
510.146713E-3
513.771629E-3
515.625572E-3
518.195343E-3
519.161224E-3
520.806885E-3
522.217369E-3
522.076607E-3
522.194481E-3
521.674347E-3
521.940422E-3
522.302628E-3
522.631645E-3
524.182320E-3
525.347900E-3
527.083969E-3
528.674126E-3
528.559685E-3
528.754807E-3
527.569199E-3
526.554108E-3
525.735283E-3
524.118805E-3
523.448181E-3
522.414207E-3
522.566414E-3
523.102570E-3
523.591232E-3
524.974251E-3
525.984764E-3
527.501678E-3
529.252052E-3
529.990768E-3
531.634140E-3
532.111359E-3
533.429146E-3
534.376144E-3
534.944344E-3
535.994911E-3
536.179161E-3
536.914444E-3
537.664032E-3
537.691498E-3
538.556099E-3
538.425636E-3
538.390732E-3
538.879395E-3
538.548088E-3
539.154053E-3
538.776970E-3
538.777542E-3
539.178658E-3
538.855362E-3
539.432144E-3
539.293098E-3
538.327789E-3
538.898849E-3
539.417839E-3
539.846992E-3
539.374352E-3
539.488792E-3
540.178299E-3
539.808083E-3
540.523338E-3
540.748787E-3
541.171646E-3
541.924667E-3
541.889763E-3
542.884827E-3
542.845917E-3
543.585205E-3
544.936752E-3
544.816017E-3
545.722961E-3
545.734406E-3
546.247101E-3
547.021866E-3
546.730042E-3
547.147179E-3
546.874809E-3
546.430779E-3
544.650078E-3
540.919304E-3
536.480141E-3
529.940987E-3
523.482513E-3
517.498970E-3
511.785507E-3
508.438110E-3
505.975342E-3
505.786514E-3
507.283974E-3
508.534813E-3
511.497688E-3
513.894081E-3
516.939354E-3
520.017815E-3
521.276665E-3
523.635864E-3
523.952866E-3
524.989128E-3
525.628853E-3
525.252914E-3
525.714684E-3
525.888062E-3
526.586723E-3
527.996635E-3
528.918457E-3
530.897141E-3
531.926537E-3
532.103920E-3
532.343102E-3
531.348038E-3
530.573845E-3
528.897285E-3
527.227592E-3
526.556396E-3
525.255203E-3
525.210571E-3
525.432587E-3
525.457191E-3
526.873398E-3
527.363777E-3
529.331017E-3
530.424500E-3
531.809235E-3
533.853722E-3
534.425926E-3
535.958862E-3
536.525345E-3
537.692642E-3
538.859367E-3
538.819313E-3
539.861298E-3
539.782906E-3
540.263557E-3
540.788269E-3
540.627480E-3
541.423988E-3
541.173935E-3
541.115570E-3
541.544151E-3
541.074944E-3
541.747856E-3
541.555595E-3
541.473770E-3
541.604233E-3
541.134453E-3
541.592789E-3
541.433716E-3
541.397667E-3
542.152405E-3
541.992760E-3
542.390442E-3
542.465973E-3
542.635918E-3
543.479347E-3
543.272781E-3
544.020653E-3
544.206619E-3
544.700432E-3
544.969368E-3
544.678688E-3
545.638847E-3
545.730972E-3
546.188736E-3
546.674538E-3
546.503448E-3
547.689629E-3
548.059845E-3
549.034309E-3
549.693489E-3
549.140167E-3
549.702072E-3
549.513817E-3
549.438286E-3
549.043465E-3
545.927238E-3
542.269707E-3
536.477280E-3
529.602242E-3
522.813606E-3
515.015030E-3
509.970474E-3
506.056023E-3
504.182053E-3
504.320526E-3
505.112457E-3
507.735443E-3
510.321808E-3
513.149071E-3
516.119385E-3
517.960167E-3
520.273590E-3
521.350479E-3
522.274590E-3
522.790146E-3
522.364998E-3
522.477150E-3
521.732140E-3
521.089554E-3
521.745872E-3
521.442604E-3
523.064232E-3
524.237823E-3
525.872040E-3
527.651024E-3
527.662468E-3
528.597450E-3
528.483009E-3
527.768898E-3
527.386665E-3
526.040840E-3
525.697517E-3
525.239754E-3
524.894142E-3
525.429153E-3
525.208282E-3
526.615334E-3
527.244759E-3
528.340530E-3
529.993629E-3
530.325508E-3
532.309341E-3
533.551598E-3
534.150124E-3
535.870743E-3
536.120796E-3
537.450600E-3
538.192177E-3
538.485146E-3
539.292526E-3
539.093971E-3
539.516830E-3
539.644432E-3
539.982033E-3
540.390587E-3
540.077591E-3
540.597153E-3
540.792847E-3
540.574837E-3
540.986252E-3
540.693283E-3
541.296959E-3
541.164207E-3
541.105843E-3
541.589355E-3
541.249466E-3
542.007065E-3
542.295456E-3
542.700005E-3
543.311691E-3
542.754364E-3
543.484497E-3
543.961716E-3
544.389725E-3
544.951057E-3
544.754791E-3
545.812798E-3
545.870018E-3
546.337509E-3
547.175789E-3
547.250175E-3
547.949982E-3
548.350525E-3
548.570251E-3
549.238014E-3
549.344444E-3
550.475121E-3
550.926590E-3
551.053619E-3
551.442146E-3
550.980377E-3
551.594353E-3
550.498009E-3
548.073006E-3
545.060349E-3
539.570045E-3
533.819962E-3
526.847076E-3
520.345116E-3
515.289116E-3
510.900879E-3
509.211159E-3
508.910751E-3
509.354210E-3
512.175751E-3
514.546394E-3
518.023109E-3
520.575714E-3
522.652817E-3
525.421715E-3
526.445961E-3
527.863884E-3
528.509331E-3
528.370285E-3
528.494453E-3
527.711105E-3
528.205490E-3
528.388023E-3
528.769684E-3
530.813026E-3
531.629562E-3
533.148766E-3
534.150696E-3
534.324074E-3
534.404755E-3
533.074951E-3
532.008362E-3
531.006432E-3
529.521561E-3
529.040337E-3
528.225517E-3
528.712463E-3
528.799438E-3
529.676628E-3
531.195259E-3
531.795502E-3
533.522415E-3
534.609032E-3
535.657310E-3
537.145042E-3
537.997627E-3
539.400101E-3
539.764595E-3
540.102196E-3
541.081810E-3
540.973663E-3
542.197037E-3
542.534637E-3
542.404747E-3
543.026161E-3
542.460251E-3
543.214989E-3
543.166924E-3
543.048477E-3
543.589211E-3
543.243599E-3
543.324852E-3
543.184662E-3
542.966652E-3
543.740273E-3
543.140602E-3
543.494225E-3
543.307114E-3
543.091965E-3
544.048119E-3
543.510246E-3
544.259262E-3
544.275284E-3
544.045258E-3
544.727898E-3
544.837761E-3
545.765877E-3
545.827103E-3
546.109772E-3
546.990967E-3
547.164917E-3
547.936249E-3
548.638916E-3
548.900986E-3
549.772453E-3
549.563026E-3
550.607872E-3
550.864220E-3
550.547791E-3
551.191521E-3
550.475693E-3
549.831390E-3
547.228432E-3
543.243599E-3
538.598442E-3
531.678772E-3
525.540733E-3
519.082832E-3
514.070320E-3
511.715698E-3
509.866333E-3
510.423660E-3
511.864471E-3
513.883209E-3
516.998863E-3
519.192123E-3
522.072029E-3
524.624062E-3
525.848007E-3
527.774048E-3
528.037834E-3
528.938484E-3
529.137039E-3
528.674126E-3
529.078102E-3
529.063797E-3
530.219650E-3
531.368637E-3
532.618904E-3
534.561539E-3
535.021019E-3
535.554886E-3
534.970665E-3
534.082031E-3
533.613396E-3
531.753159E-3
530.881119E-3
530.007935E-3
528.596878E-3
529.004860E-3
528.965950E-3
529.641151E-3
530.723190E-3
531.574059E-3
533.488655E-3
533.930397E-3
535.809517E-3
537.205124E-3
537.825394E-3
539.541435E-3
540.020943E-3
541.068649E-3
541.627693E-3
541.635704E-3
543.103981E-3
543.132591E-3
543.531990E-3
543.839264E-3
543.474197E-3
544.595718E-3
544.163704E-3
544.598007E-3
544.652367E-3
544.371414E-3
544.636345E-3
544.571114E-3
544.694710E-3
544.527054E-3
544.081879E-3
544.741058E-3
544.474411E-3
544.636917E-3
544.706154E-3
544.896698E-3
545.519829E-3
545.451164E-3
545.793915E-3
545.844269E-3
545.708656E-3
547.184372E-3
546.960068E-3
