Notes :


2023-12-11 ¿ÀÈÄ 10:25:20
Volts
Ch : LED 2,
584.109306E-3
577.062607E-3
569.117546E-3
562.645340E-3
558.235931E-3
554.538918E-3
553.903198E-3
553.746414E-3
555.642128E-3
558.729172E-3
560.920143E-3
564.543915E-3
566.527176E-3
568.687820E-3
570.216179E-3
571.155167E-3
572.216606E-3
571.727943E-3
571.587753E-3
571.162033E-3
570.439911E-3
570.774078E-3
571.057320E-3
571.945953E-3
574.125481E-3
575.491905E-3
578.021622E-3
579.508209E-3
580.596542E-3
581.150436E-3
580.565071E-3
580.233192E-3
578.880501E-3
578.007317E-3
577.844810E-3
576.903534E-3
577.725220E-3
577.910614E-3
578.312874E-3
579.780579E-3
580.304718E-3
581.786156E-3
582.637596E-3
584.081268E-3
585.706329E-3
586.110306E-3
587.891006E-3
588.329315E-3
589.145279E-3
590.400124E-3
590.423012E-3
591.284752E-3
591.612053E-3
592.058372E-3
592.336464E-3
591.920471E-3
592.786789E-3
592.604828E-3
593.060303E-3
593.708611E-3
592.920113E-3
593.508911E-3
593.053436E-3
593.075752E-3
593.530655E-3
593.017387E-3
593.831062E-3
593.457413E-3
593.362999E-3
593.872261E-3
593.932915E-3
594.659615E-3
594.546318E-3
595.294189E-3
595.965958E-3
595.524216E-3
596.694374E-3
596.518135E-3
597.078896E-3
598.087120E-3
597.762680E-3
598.584938E-3
598.772621E-3
599.412918E-3
600.228882E-3
600.147629E-3
600.959587E-3
601.331520E-3
601.647377E-3
602.954865E-3
603.032684E-3
603.474426E-3
603.380585E-3
603.058434E-3
603.348541E-3
601.694870E-3
600.190544E-3
595.507050E-3
589.719772E-3
582.957458E-3
575.230408E-3
568.993950E-3
563.011551E-3
559.418106E-3
557.945824E-3
557.562447E-3
559.363174E-3
561.625671E-3
564.335060E-3
567.904472E-3
570.365524E-3
572.442055E-3
574.207878E-3
575.247574E-3
576.417160E-3
576.320457E-3
575.996017E-3
575.028419E-3
574.650192E-3
574.774361E-3
574.503708E-3
575.763130E-3
577.366447E-3
579.055023E-3
581.348419E-3
581.833649E-3
582.977486E-3
582.925415E-3
582.086563E-3
581.437111E-3
579.908180E-3
579.702759E-3
578.945160E-3
578.898811E-3
579.138565E-3
579.132843E-3
580.628014E-3
581.837654E-3
582.914543E-3
584.659767E-3
585.092926E-3
586.536026E-3
587.642097E-3
588.413429E-3
589.686584E-3
589.825058E-3
590.928268E-3
591.228676E-3
591.781998E-3
592.913818E-3
592.888069E-3
593.547249E-3
593.650246E-3
593.661690E-3
594.488525E-3
593.745804E-3
594.553185E-3
594.176102E-3
594.285393E-3
594.643021E-3
594.029045E-3
594.649315E-3
594.395828E-3
594.549179E-3
595.412064E-3
594.807243E-3
595.651817E-3
595.379448E-3
595.358276E-3
595.975113E-3
595.589447E-3
596.546745E-3
596.772194E-3
597.189331E-3
597.520065E-3
597.010803E-3
598.276520E-3
598.815536E-3
599.336243E-3
600.290680E-3
600.184250E-3
600.874901E-3
601.128387E-3
601.851654E-3
602.950859E-3
602.705383E-3
602.964592E-3
602.669334E-3
602.512550E-3
602.366066E-3
600.115013E-3
597.973824E-3
593.227959E-3
587.183189E-3
581.159592E-3
573.477745E-3
567.961121E-3
563.406944E-3
560.263824E-3
559.878159E-3
560.157394E-3
562.604141E-3
565.035439E-3
568.021202E-3
571.347427E-3
573.334122E-3
576.091003E-3
577.420807E-3
578.213882E-3
579.289627E-3
578.992081E-3
579.409790E-3
578.968048E-3
578.752327E-3
579.709625E-3
580.538750E-3
582.427025E-3
583.776283E-3
585.276604E-3
587.075043E-3
586.315155E-3
586.686516E-3
585.490036E-3
583.487320E-3
582.514572E-3
580.674934E-3
580.409431E-3
579.885292E-3
579.464149E-3
580.960464E-3
581.089211E-3
582.788658E-3
584.074402E-3
585.396194E-3
587.018967E-3
587.784004E-3
589.616203E-3
590.210152E-3
591.216087E-3
592.468643E-3
592.527580E-3
593.752670E-3
594.010735E-3
594.359207E-3
594.945145E-3
594.659615E-3
595.638657E-3
595.847511E-3
595.926476E-3
596.312141E-3
595.319366E-3
596.091270E-3
595.666695E-3
595.862389E-3
596.175385E-3
595.794868E-3
596.218872E-3
596.200562E-3
596.251488E-3
596.745872E-3
596.428299E-3
597.223091E-3
597.350693E-3
597.526360E-3
598.183823E-3
597.431946E-3
598.626709E-3
598.801231E-3
599.108505E-3
599.777412E-3
599.428940E-3
600.470924E-3
600.606537E-3
600.837708E-3
601.613617E-3
601.143837E-3
602.159500E-3
602.345467E-3
602.774620E-3
603.599739E-3
603.519058E-3
604.323006E-3
604.346466E-3
604.464340E-3
604.928970E-3
603.990555E-3
603.247833E-3
600.615692E-3
596.275520E-3
590.631294E-3
583.146286E-3
576.165962E-3
569.273758E-3
563.009834E-3
559.415245E-3
556.765366E-3
556.951904E-3
558.346939E-3
560.683823E-3
564.012909E-3
566.748619E-3
569.857407E-3
572.249222E-3
574.245644E-3
575.851822E-3
575.803185E-3
576.589394E-3
576.190567E-3
575.450706E-3
575.205803E-3
574.382401E-3
574.714851E-3
575.290489E-3
576.441765E-3
578.548050E-3
579.928207E-3
582.172394E-3
582.990074E-3
583.326530E-3
583.434677E-3
582.286835E-3
581.620216E-3
580.903816E-3
580.159378E-3
580.275536E-3
579.587173E-3
580.127907E-3
580.938148E-3
581.251144E-3
582.474518E-3
583.206940E-3
584.949875E-3
586.152649E-3
586.763763E-3
588.585091E-3
588.874626E-3
590.328026E-3
590.864754E-3
591.470146E-3
592.474937E-3
592.413712E-3
593.388176E-3
593.365860E-3
593.720055E-3
594.320869E-3
594.165230E-3
594.972038E-3
594.904518E-3
595.089340E-3
595.646667E-3
595.015526E-3
595.648956E-3
595.481873E-3
595.684433E-3
596.184540E-3
595.729065E-3
596.512985E-3
596.455765E-3
596.848297E-3
597.324371E-3
597.316360E-3
598.160934E-3
598.753166E-3
598.982048E-3
599.498749E-3
599.677849E-3
600.205994E-3
600.662041E-3
600.452042E-3
601.325226E-3
600.781059E-3
601.951218E-3
602.344894E-3
602.610970E-3
603.315926E-3
603.166580E-3
604.171371E-3
604.674911E-3
604.946136E-3
605.797005E-3
605.639648E-3
606.395531E-3
606.705666E-3
606.560898E-3
607.310486E-3
606.538582E-3
606.065369E-3
603.988838E-3
600.013733E-3
594.457626E-3
587.261581E-3
580.292130E-3
572.986794E-3
566.673660E-3
562.948036E-3
560.494423E-3
561.139870E-3
562.303734E-3
564.752769E-3
568.157959E-3
570.785522E-3
574.394989E-3
576.440048E-3
578.184128E-3
579.590607E-3
579.796028E-3
580.363655E-3
580.094719E-3
579.523659E-3
579.175186E-3
578.033638E-3
578.478241E-3
579.130554E-3
580.048370E-3
582.265091E-3
583.297920E-3
585.621643E-3
586.526871E-3
586.582375E-3
586.905670E-3
585.461998E-3
585.544395E-3
584.339905E-3
583.563995E-3
583.527946E-3
582.787514E-3
583.727646E-3
584.424591E-3
585.205650E-3
586.605835E-3
586.946869E-3
588.462067E-3
589.561272E-3
590.385818E-3
591.888428E-3
592.054939E-3
593.587303E-3
594.446754E-3
594.820404E-3
596.066093E-3
595.789146E-3
597.021675E-3
597.518349E-3
597.057152E-3
597.707748E-3
597.343826E-3
598.135757E-3
598.297691E-3
598.500252E-3
598.862457E-3
598.517418E-3
598.863602E-3
598.770905E-3
598.635864E-3
598.929405E-3
598.535728E-3
599.454689E-3
599.649239E-3
599.507332E-3
600.283813E-3
599.787140E-3
600.690651E-3
600.559616E-3
600.912666E-3
601.549530E-3
601.532364E-3
602.158928E-3
602.409554E-3
602.312279E-3
603.329659E-3
603.139114E-3
604.113007E-3
604.623985E-3
605.101204E-3
606.263351E-3
605.972099E-3
607.003784E-3
607.348824E-3
607.268143E-3
607.830048E-3
607.368279E-3
608.023453E-3
607.877541E-3
606.961441E-3
606.264496E-3
603.014946E-3
599.346542E-3
593.735504E-3
586.692238E-3
580.406570E-3
573.332977E-3
569.058037E-3
565.959549E-3
564.871788E-3
565.951538E-3
567.372322E-3
570.489693E-3
574.042511E-3
576.579094E-3
579.899025E-3
581.545830E-3
583.911324E-3
585.107231E-3
585.453987E-3
586.033630E-3
585.507202E-3
585.601616E-3
585.765839E-3
586.035919E-3
587.124252E-3
588.072968E-3
590.051651E-3
591.313934E-3
592.095566E-3
592.537308E-3
591.322517E-3
590.794373E-3
589.314079E-3
587.434959E-3
586.250496E-3
584.646034E-3
584.717560E-3
584.971046E-3
585.046005E-3
586.239624E-3
587.093925E-3
589.060020E-3
590.159225E-3
591.077614E-3
592.864609E-3
593.858528E-3
595.608902E-3
596.246910E-3
596.888351E-3
597.885704E-3
598.048782E-3
599.104500E-3
599.606323E-3
599.946213E-3
600.757027E-3
600.423431E-3
600.845718E-3
600.822830E-3
600.488091E-3
601.116943E-3
600.606537E-3
601.351547E-3
600.884628E-3
600.671768E-3
601.064873E-3
600.561905E-3
601.127815E-3
601.161575E-3
600.743294E-3
601.030540E-3
600.948143E-3
601.626778E-3
602.026176E-3
602.172089E-3
602.831841E-3
602.614975E-3
603.491592E-3
603.648376E-3
603.295898E-3
604.414558E-3
604.238319E-3
605.069733E-3
605.267715E-3
605.050850E-3
605.896568E-3
605.509758E-3
606.655884E-3
607.314491E-3
607.535934E-3
608.497810E-3
608.432579E-3
609.443092E-3
609.414482E-3
609.265137E-3
609.263992E-3
608.362198E-3
606.887627E-3
604.010010E-3
598.832703E-3
592.943001E-3
585.051155E-3
578.232765E-3
571.643257E-3
566.128349E-3
563.226128E-3
561.452293E-3
562.396431E-3
564.238930E-3
566.270828E-3
570.077705E-3
572.537041E-3
575.934792E-3
578.410149E-3
579.547691E-3
581.365585E-3
581.648254E-3
582.212448E-3
581.686020E-3
580.880356E-3
580.823135E-3
579.546547E-3
580.090141E-3
580.453491E-3
581.326103E-3
583.645248E-3
584.765053E-3
586.741447E-3
587.535095E-3
587.765121E-3
587.919617E-3
586.747169E-3
586.318588E-3
585.367584E-3
584.440041E-3
584.306145E-3
583.583450E-3
584.097290E-3
584.935570E-3
585.581017E-3
587.147713E-3
587.682152E-3
589.481735E-3
590.472221E-3
591.707039E-3
593.310356E-3
593.585587E-3
594.934273E-3
595.545387E-3
595.622635E-3
596.716118E-3
596.760178E-3
597.949219E-3
597.985840E-3
598.157501E-3
598.846436E-3
598.770332E-3
599.280739E-3
599.464989E-3
599.275589E-3
600.021172E-3
599.368858E-3
599.775124E-3
599.821472E-3
599.788857E-3
599.875259E-3
599.583435E-3
600.032616E-3
600.144196E-3
600.406837E-3
600.951576E-3
600.855446E-3
601.270866E-3
602.014160E-3
602.128601E-3
602.991486E-3
602.786064E-3
603.734207E-3
604.223442E-3
604.357338E-3
605.422211E-3
605.002785E-3
605.635643E-3
605.929756E-3
606.088257E-3
606.853294E-3
606.515694E-3
607.445526E-3
608.026886E-3
608.083534E-3
608.782196E-3
608.419991E-3
609.154129E-3
609.627342E-3
609.744072E-3
610.537720E-3
610.224152E-3
610.458755E-3
610.097122E-3
608.475494E-3
606.665039E-3
601.930618E-3
596.315002E-3
589.326668E-3
581.425667E-3
574.863052E-3
568.699837E-3
565.714645E-3
564.038658E-3
563.914490E-3
566.001320E-3
568.293571E-3
571.539688E-3
574.543190E-3
577.487755E-3
580.824852E-3
582.192993E-3
583.850098E-3
584.540176E-3
584.345055E-3
584.788513E-3
583.622360E-3
583.376312E-3
582.617569E-3
582.381248E-3
583.724785E-3
584.343338E-3
586.474800E-3
587.944794E-3
589.092064E-3
590.634727E-3
590.217018E-3
590.229607E-3
590.036774E-3
588.852882E-3
588.727570E-3
587.557411E-3
587.079048E-3
587.010956E-3
587.056732E-3
588.172531E-3
588.466644E-3
589.899445E-3
591.011238E-3
591.853523E-3
593.515205E-3
594.220161E-3
595.510483E-3
596.413422E-3
597.259140E-3
598.540306E-3
598.750305E-3
599.742508E-3
600.284386E-3
600.207710E-3
601.247406E-3
601.270866E-3
601.696587E-3
602.148056E-3
601.757240E-3
602.356911E-3
602.146339E-3
602.683640E-3
602.477074E-3
602.132607E-3
602.709961E-3
602.136612E-3
602.661896E-3
602.619553E-3
602.425575E-3
603.161430E-3
603.126526E-3
603.363419E-3
603.873253E-3
603.936768E-3
604.901505E-3
604.633713E-3
605.364418E-3
605.897713E-3
605.881691E-3
607.003212E-3
606.697083E-3
607.404900E-3
607.644081E-3
607.622910E-3
608.742142E-3
608.783340E-3
609.191322E-3
609.491730E-3
609.866524E-3
610.944557E-3
610.891914E-3
611.492729E-3
611.806297E-3
611.773109E-3
612.418556E-3
612.091827E-3
612.420845E-3
612.382507E-3
610.595512E-3
608.900642E-3
604.511261E-3
599.238396E-3
592.743874E-3
585.871124E-3
580.369377E-3
575.111389E-3
572.150803E-3
570.928001E-3
571.000671E-3
573.320389E-3
575.396347E-3
578.713417E-3
581.461716E-3
584.046364E-3
587.425804E-3
588.893509E-3
590.717697E-3
591.450119E-3
591.708755E-3
592.345047E-3
591.406059E-3
591.795158E-3
592.140770E-3
592.666054E-3
594.314003E-3
595.251274E-3
596.848869E-3
597.615051E-3
597.039986E-3
597.297478E-3
595.679855E-3
594.748878E-3
592.820549E-3
591.088486E-3
590.675926E-3
589.583015E-3
589.638519E-3
589.838219E-3
590.297127E-3
591.962242E-3
592.589951E-3
594.496536E-3
595.262718E-3
596.458626E-3
598.709106E-3
599.380875E-3
600.917244E-3
601.657104E-3
602.061081E-3
603.456116E-3
603.393745E-3
603.998566E-3
604.502106E-3
604.327011E-3
605.208206E-3
604.969025E-3
605.356979E-3
605.817032E-3
604.854584E-3
605.591011E-3
605.472565E-3
605.354691E-3
605.532074E-3
605.431938E-3
605.668259E-3
605.028534E-3
605.296326E-3
605.666542E-3
605.178452E-3
605.855370E-3
605.896568E-3
606.330872E-3
606.691933E-3
606.577492E-3
607.341957E-3
607.153702E-3
607.596588E-3
607.989693E-3
608.004570E-3
608.655167E-3
608.687210E-3
609.421921E-3
609.639359E-3
609.868240E-3
610.367203E-3
610.807800E-3
611.470413E-3
612.269783E-3
612.085533E-3
613.255692E-3
613.094330E-3
613.752365E-3
613.815880E-3
612.928391E-3
612.253761E-3
609.062576E-3
605.546379E-3
599.765396E-3
592.288971E-3
585.634232E-3
578.346062E-3
573.168182E-3
569.819641E-3
567.096519E-3
567.951965E-3
568.939590E-3
571.483040E-3
574.643326E-3
577.544403E-3
580.940437E-3
583.221245E-3
585.349846E-3
587.198639E-3
587.569427E-3
588.463211E-3
588.199425E-3
587.505913E-3
587.322807E-3
586.407852E-3
586.815262E-3
586.950874E-3
587.856102E-3
589.579582E-3
590.868759E-3
593.022537E-3
593.476295E-3
594.208145E-3
593.716049E-3
592.339897E-3
592.397118E-3
590.711975E-3
590.137482E-3
589.462852E-3
588.945007E-3
589.971542E-3
589.715195E-3
590.678787E-3
591.909599E-3
592.607117E-3
594.109726E-3
594.977760E-3
595.905876E-3
597.397614E-3
597.934914E-3
599.548531E-3
600.092125E-3
600.723267E-3
601.416206E-3
601.365280E-3
602.743721E-3
602.550888E-3
603.065300E-3
603.294182E-3
603.325081E-3
604.177094E-3
603.655243E-3
603.945923E-3
604.389954E-3
603.598595E-3
604.380226E-3
604.079247E-3
604.153061E-3
604.273224E-3
604.019737E-3
604.793930E-3
604.415131E-3
604.657173E-3
604.855156E-3
604.648590E-3
605.753517E-3
605.631065E-3
606.055069E-3
606.552887E-3
606.543732E-3
607.476425E-3
607.422066E-3
607.903290E-3
608.582497E-3
608.436012E-3
609.357834E-3
609.170151E-3
609.785271E-3
609.745789E-3
610.105133E-3
611.423492E-3
611.602592E-3
612.179947E-3
612.593079E-3
612.714958E-3
613.631630E-3
613.457680E-3
613.629913E-3
613.186455E-3
612.571907E-3
611.520195E-3
607.748222E-3
603.359985E-3
597.029114E-3
589.108086E-3
582.612991E-3
575.668716E-3
571.327400E-3
568.874931E-3
567.344284E-3
568.860054E-3
570.347786E-3
573.115540E-3
576.200294E-3
578.948593E-3
582.541466E-3
584.100151E-3
585.502052E-3
586.934853E-3
587.018394E-3
588.010597E-3
587.663841E-3
587.060165E-3
586.596680E-3
585.633087E-3
586.253357E-3
586.695671E-3
588.319588E-3
589.802170E-3
590.848732E-3
592.757607E-3
592.685509E-3
593.289757E-3
592.798805E-3
591.740227E-3
591.507339E-3
589.785004E-3
589.530373E-3
589.331818E-3
589.054871E-3
590.198135E-3
590.242195E-3
591.682434E-3
592.730141E-3
593.211937E-3
