Notes :


2023-12-11 ¿ÀÈÄ 10:33:08
Volts
Ch : LED 2,
613.661957E-3
614.530563E-3
615.608025E-3
616.817093E-3
617.751503E-3
618.337440E-3
618.267059E-3
618.095970E-3
617.467117E-3
616.766739E-3
616.404533E-3
615.579414E-3
615.240669E-3
615.212059E-3
615.372849E-3
616.033745E-3
616.411972E-3
617.619324E-3
618.581200E-3
619.910431E-3
621.176720E-3
621.517754E-3
622.767448E-3
623.418045E-3
623.935318E-3
624.718666E-3
624.958992E-3
626.189232E-3
626.731682E-3
627.120209E-3
627.680397E-3
627.571678E-3
628.053474E-3
628.228569E-3
628.688622E-3
629.199600E-3
629.185295E-3
629.617882E-3
629.869652E-3
629.726028E-3
629.780388E-3
629.417610E-3
629.573250E-3
629.235649E-3
629.344940E-3
629.453087E-3
629.260254E-3
629.580688E-3
630.142593E-3
630.560875E-3
631.151390E-3
631.207466E-3
631.759644E-3
631.840324E-3
631.935883E-3
632.490349E-3
632.576180E-3
633.245087E-3
633.497429E-3
633.890533E-3
634.069061E-3
634.251022E-3
634.834671E-3
634.931374E-3
635.043526E-3
635.670662E-3
635.949898E-3
636.504936E-3
636.946678E-3
637.201309E-3
637.820435E-3
637.619019E-3
637.839890E-3
636.985016E-3
634.711075E-3
630.924225E-3
625.411606E-3
619.373703E-3
612.919235E-3
606.848145E-3
601.909447E-3
598.204994E-3
596.082687E-3
595.550537E-3
595.953941E-3
597.513771E-3
599.236679E-3
601.768684E-3
603.984833E-3
605.889130E-3
607.911873E-3
609.370422E-3
610.602379E-3
611.466408E-3
611.560249E-3
611.582565E-3
610.996056E-3
610.855293E-3
610.829544E-3
611.393166E-3
612.352753E-3
613.493156E-3
615.073013E-3
616.449165E-3
617.249107E-3
617.706871E-3
617.436790E-3
617.153549E-3
616.824532E-3
616.216278E-3
615.926170E-3
615.472412E-3
615.753937E-3
615.818024E-3
616.344452E-3
616.988182E-3
617.558098E-3
618.763161E-3
619.489288E-3
620.557594E-3
621.514320E-3
622.228432E-3
623.071861E-3
623.791695E-3
624.568748E-3
625.181007E-3
625.759506E-3
626.651573E-3
627.039528E-3
627.401161E-3
627.972221E-3
627.940750E-3
628.442574E-3
628.704643E-3
628.692055E-3
629.007339E-3
629.223061E-3
629.477119E-3
629.315758E-3
628.993034E-3
629.326057E-3
629.184151E-3
629.494286E-3
629.597282E-3
629.526901E-3
629.877663E-3
630.107689E-3
630.584908E-3
630.888176E-3
631.330490E-3
631.832314E-3
631.755638E-3
631.885529E-3
632.018852E-3
631.833458E-3
632.486916E-3
632.783318E-3
633.500290E-3
634.101105E-3
634.415817E-3
635.054398E-3
635.120773E-3
635.413742E-3
635.911560E-3
636.157608E-3
636.693192E-3
636.915207E-3
637.379265E-3
637.471962E-3
637.546349E-3
637.153816E-3
635.765076E-3
633.348656E-3
629.310036E-3
623.828316E-3
618.031311E-3
612.030029E-3
606.966591E-3
603.027534E-3
600.482941E-3
599.574280E-3
599.399757E-3
600.515556E-3
602.286530E-3
604.356194E-3
606.986046E-3
609.096909E-3
611.473846E-3
613.076019E-3
614.289093E-3
615.330505E-3
615.590286E-3
616.176224E-3
616.212845E-3
616.365051E-3
617.040253E-3
617.578697E-3
618.862152E-3
620.297241E-3
621.152687E-3
621.998405E-3
621.895981E-3
621.444511E-3
620.523262E-3
619.196892E-3
618.362617E-3
617.159271E-3
616.445160E-3
616.193390E-3
616.013718E-3
616.547012E-3
616.929245E-3
617.946053E-3
618.909645E-3
620.201111E-3
621.519470E-3
622.373199E-3
623.291016E-3
624.282074E-3
624.974442E-3
626.050186E-3
626.586342E-3
627.175713E-3
627.667236E-3
628.091812E-3
628.474617E-3
628.420830E-3
628.875160E-3
628.907204E-3
629.255676E-3
629.678535E-3
629.299736E-3
629.373550E-3
629.335213E-3
629.280281E-3
629.676819E-3
629.672241E-3
629.714584E-3
630.056190E-3
629.770088E-3
630.048752E-3
629.859924E-3
629.996681E-3
630.340004E-3
630.382919E-3
630.709648E-3
630.568886E-3
631.048393E-3
631.369972E-3
631.858063E-3
632.277489E-3
632.533836E-3
633.063698E-3
633.666229E-3
633.919716E-3
634.643555E-3
635.042381E-3
635.390282E-3
636.122131E-3
636.280632E-3
636.796188E-3
636.733818E-3
636.701202E-3
635.783386E-3
633.444786E-3
629.797554E-3
624.628830E-3
618.768883E-3
612.494659E-3
606.386948E-3
601.523209E-3
597.738075E-3
595.753098E-3
595.062447E-3
595.469284E-3
596.928978E-3
598.831558E-3
601.427650E-3
604.124451E-3
606.046486E-3
607.986832E-3
609.244537E-3
610.422707E-3
611.053848E-3
611.151695E-3
611.329079E-3
611.113358E-3
611.374855E-3
611.559105E-3
612.127304E-3
613.596725E-3
614.769745E-3
616.480064E-3
617.688560E-3
618.037605E-3
618.296814E-3
617.911720E-3
617.158699E-3
616.490364E-3
615.563965E-3
615.088463E-3
614.310265E-3
614.338875E-3
614.717674E-3
615.228081E-3
616.266632E-3
617.156410E-3
618.189812E-3
619.113922E-3
620.037460E-3
621.002197E-3
621.645355E-3
622.390938E-3
623.431206E-3
624.427414E-3
625.346375E-3
625.815010E-3
626.205254E-3
626.608086E-3
626.844406E-3
628.785896E-3
629.444504E-3
630.104828E-3
630.278206E-3
630.487633E-3
631.004906E-3
630.897903E-3
630.979156E-3
630.853271E-3
630.767441E-3
630.999184E-3
630.817223E-3
631.028938E-3
631.248665E-3
631.412315E-3
631.821442E-3
631.745338E-3
632.300949E-3
632.742119E-3
632.726669E-3
633.028793E-3
632.972145E-3
633.429337E-3
633.753204E-3
633.971786E-3
634.716797E-3
635.021210E-3
635.373688E-3
635.817719E-3
636.150169E-3
636.651993E-3
636.775017E-3
637.458229E-3
638.078499E-3
638.254166E-3
638.904190E-3
639.032936E-3
639.291000E-3
639.206314E-3
638.156891E-3
636.218834E-3
631.992531E-3
626.578903E-3
620.083809E-3
613.198471E-3
607.244682E-3
601.798439E-3
597.859383E-3
595.725632E-3
594.863319E-3
595.600891E-3
596.900940E-3
598.982620E-3
601.560402E-3
603.488731E-3
605.818748E-3
607.328796E-3
608.687782E-3
609.666252E-3
610.045052E-3
610.362625E-3
610.255623E-3
609.936905E-3
609.685135E-3
609.610748E-3
610.423851E-3
611.351967E-3
613.005638E-3
614.781761E-3
616.120148E-3
617.456818E-3
617.648506E-3
617.500877E-3
617.274284E-3
616.646576E-3
616.403389E-3
615.622902E-3
615.184593E-3
615.351677E-3
615.348816E-3
615.725899E-3
616.437149E-3
617.301178E-3
618.543434E-3
619.064713E-3
620.236588E-3
621.095467E-3
622.049904E-3
622.691345E-3
623.285294E-3
624.461174E-3
625.255966E-3
626.119423E-3
627.137947E-3
627.441216E-3
627.807999E-3
628.085518E-3
628.246880E-3
628.729820E-3
628.904915E-3
629.379272E-3
629.189301E-3
629.306602E-3
629.359818E-3
629.192734E-3
629.770660E-3
629.288292E-3
629.460526E-3
629.824448E-3
629.833603E-3
630.334282E-3
630.097961E-3
630.892754E-3
631.324768E-3
631.419754E-3
631.929588E-3
632.068634E-3
632.347870E-3
632.693481E-3
632.521248E-3
632.755280E-3
633.063126E-3
633.480835E-3
634.216690E-3
634.538841E-3
635.085297E-3
635.301018E-3
635.752487E-3
636.479759E-3
636.788750E-3
637.255096E-3
637.213326E-3
637.538338E-3
637.760353E-3
637.736320E-3
637.902832E-3
637.188721E-3
635.168839E-3
631.747627E-3
626.386070E-3
620.417976E-3
613.938904E-3
607.903290E-3
603.149414E-3
599.284172E-3
597.554398E-3
596.737289E-3
597.742081E-3
599.369431E-3
601.631927E-3
604.376793E-3
606.650162E-3
608.939552E-3
610.809517E-3
611.726761E-3
612.747574E-3
613.219643E-3
613.443947E-3
613.786125E-3
613.651657E-3
614.238739E-3
614.783478E-3
615.788841E-3
617.334366E-3
618.658447E-3
619.907570E-3
620.204544E-3
619.908714E-3
619.088745E-3
617.939186E-3
617.190170E-3
615.993118E-3
615.358543E-3
615.182304E-3
614.883614E-3
615.163994E-3
615.642929E-3
616.236305E-3
617.301178E-3
618.320274E-3
619.651794E-3
620.510101E-3
621.504021E-3
622.693062E-3
623.414612E-3
624.635124E-3
625.206184E-3
625.961494E-3
626.517677E-3
626.737404E-3
626.977730E-3
626.941109E-3
626.981735E-3
627.707863E-3
627.915001E-3
628.204536E-3
628.272629E-3
628.502083E-3
628.474617E-3
628.262329E-3
628.535271E-3
628.416824E-3
628.571320E-3
628.565025E-3
628.472900E-3
628.527832E-3
628.753281E-3
629.001617E-3
629.458809E-3
629.538345E-3
629.635048E-3
629.590416E-3
629.922295E-3
630.352592E-3
630.443001E-3
631.281281E-3
631.607437E-3
632.078362E-3
632.872581E-3
632.924652E-3
633.544350E-3
633.648491E-3
634.307671E-3
634.840393E-3
635.149384E-3
635.690117E-3
635.823441E-3
636.008263E-3
636.061478E-3
635.169411E-3
633.436203E-3
630.004692E-3
624.694633E-3
618.826103E-3
612.129593E-3
605.803299E-3
600.415993E-3
596.528435E-3
594.238472E-3
593.225098E-3
593.758965E-3
594.804382E-3
597.082901E-3
599.575996E-3
601.786995E-3
603.870392E-3
605.639076E-3
606.913376E-3
607.967377E-3
608.513260E-3
609.134674E-3
609.119225E-3
609.053421E-3
609.259987E-3
609.439087E-3
610.484505E-3
611.318779E-3
613.153839E-3
614.957428E-3
615.989685E-3
616.674042E-3
616.339874E-3
615.784836E-3
615.169716E-3
613.937759E-3
613.288879E-3
612.577057E-3
612.496948E-3
612.679482E-3
612.810516E-3
613.573837E-3
614.367485E-3
615.291023E-3
616.386795E-3
617.204475E-3
618.396378E-3
619.131660E-3
620.112419E-3
620.831108E-3
621.327782E-3
622.425842E-3
622.857285E-3
623.646927E-3
624.441719E-3
624.752426E-3
625.155830E-3
625.092316E-3
625.172424E-3
625.556374E-3
625.532341E-3
625.904274E-3
626.023865E-3
626.054764E-3
626.387215E-3
626.138306E-3
626.636696E-3
626.610374E-3
626.383209E-3
626.513672E-3
626.485062E-3
626.848412E-3
626.961708E-3
627.470970E-3
627.849770E-3
628.071213E-3
628.592491E-3
628.824234E-3
629.162407E-3
629.391289E-3
629.537773E-3
630.018997E-3
630.068779E-3
630.451012E-3
630.863571E-3
631.034088E-3
631.530762E-3
631.799126E-3
632.260895E-3
633.204460E-3
633.552933E-3
634.137154E-3
634.419250E-3
634.761429E-3
635.198021E-3
635.197449E-3
635.239792E-3
634.565163E-3
632.737541E-3
629.340935E-3
623.930168E-3
617.743492E-3
610.376358E-3
603.718185E-3
598.004150E-3
593.392181E-3
591.044426E-3
589.939499E-3
589.957809E-3
591.229820E-3
592.580223E-3
594.894218E-3
597.219086E-3
599.382019E-3
601.206779E-3
602.115440E-3
603.481293E-3
603.895569E-3
604.014587E-3
604.151917E-3
603.474426E-3
603.414345E-3
603.152275E-3
603.491020E-3
604.472923E-3
605.680847E-3
607.665253E-3
609.183311E-3
610.557175E-3
611.429214E-3
611.360550E-3
611.184311E-3
610.447311E-3
610.017586E-3
609.880257E-3
609.370995E-3
609.570694E-3
609.478569E-3
609.777260E-3
610.473633E-3
610.752869E-3
611.866951E-3
612.811661E-3
613.624763E-3
614.872169E-3
615.414047E-3
616.426277E-3
617.338943E-3
618.066216E-3
619.038391E-3
619.503593E-3
620.174217E-3
620.520973E-3
620.759010E-3
621.300316E-3
621.422768E-3
621.773529E-3
622.032166E-3
622.289658E-3
622.667313E-3
622.557449E-3
622.771454E-3
622.495651E-3
622.397232E-3
622.558022E-3
622.508812E-3
622.802925E-3
622.611237E-3
622.919655E-3
623.533630E-3
623.628616E-3
624.405670E-3
624.810219E-3
625.187302E-3
625.449371E-3
625.292587E-3
625.982666E-3
626.205826E-3
626.585770E-3
627.008057E-3
626.783180E-3
627.128220E-3
627.413750E-3
627.791977E-3
628.380203E-3
628.866005E-3
629.508018E-3
629.895973E-3
630.098534E-3
630.398941E-3
630.618668E-3
631.127357E-3
631.514168E-3
631.863785E-3
632.448578E-3
632.160187E-3
632.196808E-3
631.328773E-3
629.439354E-3
626.130867E-3
620.720673E-3
614.513969E-3
607.738495E-3
601.539230E-3
596.324730E-3
592.595100E-3
590.864182E-3
590.108299E-3
590.843010E-3
592.553902E-3
594.614983E-3
597.017670E-3
599.854660E-3
601.904297E-3
603.871536E-3
604.951859E-3
605.916023E-3
606.480789E-3
606.205559E-3
606.495094E-3
606.005859E-3
606.366348E-3
606.512833E-3
607.395172E-3
609.100342E-3
610.618973E-3
612.386513E-3
613.290596E-3
613.490868E-3
613.239098E-3
611.820030E-3
611.224365E-3
610.109138E-3
609.116936E-3
608.655739E-3
608.282089E-3
608.469200E-3
608.709526E-3
609.572983E-3
610.814095E-3
611.549950E-3
612.993622E-3
613.827896E-3
614.917946E-3
616.018867E-3
616.329002E-3
617.402458E-3
618.145180E-3
618.938828E-3
619.682121E-3
619.892120E-3
620.519257E-3
620.836830E-3
620.879745E-3
621.158981E-3
620.904922E-3
621.385002E-3
621.660233E-3
621.758080E-3
622.109985E-3
622.058487E-3
622.021866E-3
621.797562E-3
621.916580E-3
622.077942E-3
621.981812E-3
622.272491E-3
622.483063E-3
622.722816E-3
623.121643E-3
623.071289E-3
623.325348E-3
623.493004E-3
623.582840E-3
624.029732E-3
624.062920E-3
624.594498E-3
625.135231E-3
625.466537E-3
626.028442E-3
626.175499E-3
626.756859E-3
627.219772E-3
627.722168E-3
628.407669E-3
628.508949E-3
629.162407E-3
629.505157E-3
629.561806E-3
629.858208E-3
629.751778E-3
629.132080E-3
627.390289E-3
624.176788E-3
619.390869E-3
613.354683E-3
606.955719E-3
600.662041E-3
595.159721E-3
591.457558E-3
589.074898E-3
588.272667E-3
588.478088E-3
589.649391E-3
591.484451E-3
593.567848E-3
596.082115E-3
598.287964E-3
600.129890E-3
601.966667E-3
603.038406E-3
603.851509E-3
604.160500E-3
603.909302E-3
603.963661E-3
604.037476E-3
604.590797E-3
605.352402E-3
606.417274E-3
608.145332E-3
609.530067E-3
610.522270E-3
610.828972E-3
610.454750E-3
610.034180E-3
608.861732E-3
608.044624E-3
607.090759E-3
606.221008E-3
606.007004E-3
606.031609E-3
606.663322E-3
607.173729E-3
608.108711E-3
609.305191E-3
610.152054E-3
611.138535E-3
611.975670E-3
612.858582E-3
614.071083E-3
615.011215E-3
616.089249E-3
616.904640E-3
617.506027E-3
618.200684E-3
618.168068E-3
618.710518E-3
618.935966E-3
618.981171E-3
619.275856E-3
619.353104E-3
619.544220E-3
619.760513E-3
620.007133E-3
620.343590E-3
620.099258E-3
620.022011E-3
619.915009E-3
619.793129E-3
619.959641E-3
619.913292E-3
620.284653E-3
620.552444E-3
621.036530E-3
621.542358E-3
621.659088E-3
622.073364E-3
622.068214E-3
622.069931E-3
622.358894E-3
622.336578E-3
622.678185E-3
623.047256E-3
623.334503E-3
623.893547E-3
624.177933E-3
624.829102E-3
625.404167E-3
625.520897E-3
626.409531E-3
626.411819E-3
626.959419E-3
627.211189E-3
627.726173E-3
628.464317E-3
628.563309E-3
628.590202E-3
628.178215E-3
626.332283E-3
623.530197E-3
618.594933E-3
612.507820E-3
605.715752E-3
598.565483E-3
592.821693E-3
587.491035E-3
584.420586E-3
582.997513E-3
582.713699E-3
583.699036E-3
585.143852E-3
587.328529E-3
589.834213E-3
591.872406E-3
593.929482E-3
595.281029E-3
596.670914E-3
597.463417E-3
597.370720E-3
597.422791E-3
596.810532E-3
596.531868E-3
596.232605E-3
596.376228E-3
597.240257E-3
598.272514E-3
600.101852E-3
601.845360E-3
603.105927E-3
604.253197E-3
604.220581E-3
604.254913E-3
603.722191E-3
603.070450E-3
602.548027E-3
601.693726E-3
601.451683E-3
601.321793E-3
601.524353E-3
602.344322E-3
602.811813E-3
603.732491E-3
604.515266E-3
605.106354E-3
606.013870E-3
606.522560E-3
607.648659E-3
608.636284E-3
609.407043E-3
610.664177E-3
611.044693E-3
611.668396E-3
612.411118E-3
612.693787E-3
613.531494E-3
613.564110E-3
614.073944E-3
614.029884E-3
614.043045E-3
614.640999E-3
614.358330E-3
614.651871E-3
614.968300E-3
614.929390E-3
615.217209E-3
615.118790E-3
615.539360E-3
615.559959E-3
615.567970E-3
616.152763E-3
616.099548E-3
616.378784E-3
616.468048E-3
616.758156E-3
617.567253E-3
617.803001E-3
617.984390E-3
618.430710E-3
618.637848E-3
618.979454E-3
618.933678E-3
619.327927E-3
619.794846E-3
620.135880E-3
620.689774E-3
