Notes :


2023-12-11 ¿ÀÈÄ 10:20:20
Volts
Ch : LED 2,
466.922379E-3
466.479492E-3
465.530777E-3
465.210915E-3
465.269279E-3
465.443230E-3
466.719246E-3
467.280579E-3
468.190956E-3
469.842339E-3
469.831467E-3
471.356392E-3
471.958923E-3
472.275925E-3
473.357391E-3
473.173141E-3
474.199104E-3
474.358177E-3
474.341583E-3
475.068283E-3
474.612236E-3
475.318909E-3
475.274277E-3
475.177574E-3
475.666809E-3
474.791336E-3
475.279427E-3
475.129509E-3
475.134087E-3
475.645638E-3
475.266838E-3
475.701714E-3
475.383568E-3
475.303459E-3
475.995827E-3
475.070000E-3
475.568390E-3
475.601578E-3
475.483131E-3
476.396942E-3
475.774956E-3
476.398659E-3
476.462746E-3
476.331711E-3
477.076721E-3
476.664734E-3
477.478981E-3
477.386284E-3
477.788544E-3
478.688622E-3
478.364182E-3
479.121208E-3
479.328918E-3
480.056763E-3
480.505943E-3
480.364037E-3
480.723381E-3
480.864716E-3
480.813789E-3
480.604935E-3
479.356384E-3
478.052902E-3
474.999619E-3
471.255112E-3
467.057419E-3
461.782837E-3
458.205986E-3
454.368210E-3
451.658821E-3
450.791931E-3
449.854088E-3
451.379585E-3
452.985191E-3
454.660034E-3
457.037544E-3
458.043480E-3
460.167503E-3
461.580849E-3
462.443161E-3
463.096619E-3
462.679482E-3
463.141823E-3
462.798500E-3
462.408257E-3
462.720680E-3
461.981964E-3
463.058281E-3
463.347244E-3
464.608383E-3
465.810585E-3
466.158485E-3
467.000771E-3
466.595650E-3
466.120148E-3
465.914154E-3
464.374924E-3
464.208412E-3
463.509750E-3
462.920952E-3
463.068581E-3
462.634850E-3
463.695145E-3
464.369202E-3
464.585495E-3
465.971375E-3
466.303825E-3
467.755508E-3
468.502808E-3
468.601227E-3
469.975090E-3
469.857216E-3
470.805931E-3
470.959282E-3
471.532631E-3
472.107124E-3
471.917725E-3
472.319984E-3
472.492218E-3
472.772026E-3
473.139954E-3
472.719955E-3
473.051834E-3
472.554016E-3
472.750854E-3
473.344803E-3
472.584915E-3
473.042679E-3
473.313332E-3
472.933960E-3
473.538780E-3
473.116493E-3
473.913002E-3
473.955345E-3
473.999405E-3
474.466896E-3
473.956490E-3
474.546432E-3
474.733543E-3
474.573326E-3
475.174141E-3
475.008202E-3
475.532341E-3
475.994682E-3
476.073647E-3
476.495934E-3
476.332283E-3
477.136230E-3
477.556229E-3
477.392006E-3
477.901268E-3
477.885818E-3
478.531265E-3
478.920364E-3
479.279709E-3
479.787827E-3
479.117203E-3
479.391289E-3
478.752136E-3
477.312469E-3
475.362968E-3
471.296883E-3
467.194176E-3
462.095261E-3
457.240677E-3
453.535080E-3
450.131607E-3
448.923683E-3
448.168373E-3
448.653030E-3
449.961662E-3
451.114655E-3
453.441811E-3
455.098915E-3
456.593513E-3
458.633423E-3
459.059143E-3
460.372353E-3
460.424423E-3
460.626411E-3
460.627556E-3
459.907722E-3
460.236168E-3
459.796715E-3
459.765244E-3
460.132027E-3
460.504532E-3
462.233734E-3
463.148117E-3
463.990402E-3
464.858437E-3
464.464760E-3
464.527702E-3
463.680840E-3
462.898064E-3
462.681770E-3
461.607742E-3
461.826324E-3
461.587715E-3
461.440659E-3
462.785912E-3
462.994766E-3
464.402390E-3
465.281868E-3
465.703011E-3
466.837120E-3
467.090607E-3
468.243027E-3
468.775177E-3
468.982315E-3
469.881248E-3
469.758797E-3
470.587921E-3
471.301460E-3
471.058846E-3
471.532059E-3
471.256828E-3
472.123146E-3
472.290802E-3
471.774673E-3
472.535706E-3
471.897697E-3
472.370911E-3
472.436714E-3
472.201538E-3
472.582054E-3
471.962357E-3
472.775459E-3
472.641563E-3
472.646141E-3
473.068428E-3
472.646141E-3
473.259544E-3
473.363113E-3
473.464966E-3
473.927307E-3
473.007774E-3
473.632050E-3
474.029160E-3
473.990822E-3
474.790192E-3
474.522400E-3
475.402451E-3
475.871086E-3
476.023865E-3
476.548004E-3
476.317406E-3
477.259254E-3
477.347946E-3
477.797699E-3
478.297234E-3
477.753067E-3
478.714371E-3
478.601074E-3
478.493500E-3
478.129578E-3
476.558876E-3
474.847984E-3
471.441078E-3
466.761589E-3
462.616539E-3
457.383156E-3
454.082108E-3
451.443100E-3
449.404335E-3
449.760246E-3
450.028038E-3
452.036476E-3
454.035759E-3
455.568695E-3
458.307266E-3
459.449959E-3
461.381149E-3
462.454033E-3
462.680626E-3
463.280869E-3
462.721825E-3
463.298607E-3
463.039970E-3
463.055992E-3
463.605309E-3
463.810158E-3
465.349388E-3
466.098404E-3
466.913795E-3
467.642784E-3
466.876602E-3
466.611671E-3
465.711594E-3
464.297104E-3
463.505745E-3
462.355614E-3
462.237167E-3
461.890411E-3
461.678696E-3
462.554169E-3
462.656021E-3
464.079666E-3
464.832687E-3
465.395737E-3
466.595078E-3
466.877747E-3
468.141174E-3
468.690491E-3
469.011497E-3
469.901848E-3
469.706726E-3
470.579910E-3
470.491219E-3
470.543861E-3
471.257401E-3
470.795631E-3
471.464539E-3
471.418762E-3
471.379280E-3
471.767235E-3
471.192169E-3
471.560669E-3
471.766663E-3
471.299171E-3
471.794701E-3
471.363258E-3
471.727753E-3
472.219276E-3
471.451950E-3
472.029305E-3
471.782684E-3
472.129440E-3
471.978378E-3
471.489143E-3
471.993828E-3
471.708298E-3
472.552299E-3
472.905922E-3
472.993469E-3
473.598862E-3
473.317909E-3
474.087524E-3
474.239731E-3
474.440002E-3
475.431633E-3
475.413895E-3
476.153183E-3
476.450729E-3
476.557159E-3
476.766014E-3
476.200676E-3
476.293373E-3
475.738907E-3
473.697853E-3
471.335793E-3
467.252541E-3
463.042831E-3
458.456612E-3
453.781700E-3
450.408554E-3
447.221947E-3
446.574783E-3
446.143341E-3
446.720123E-3
448.650742E-3
450.341606E-3
452.844429E-3
454.629135E-3
455.876541E-3
457.490730E-3
457.995415E-3
459.046555E-3
458.993912E-3
458.658028E-3
458.859444E-3
458.085251E-3
458.229446E-3
458.141899E-3
458.528709E-3
460.086250E-3
461.130524E-3
462.225151E-3
462.485504E-3
462.457466E-3
462.577057E-3
461.822319E-3
461.462402E-3
460.351181E-3
459.194756E-3
459.055710E-3
458.435440E-3
458.971596E-3
459.255981E-3
459.499168E-3
460.796356E-3
461.209488E-3
462.427711E-3
463.376427E-3
463.768387E-3
465.291023E-3
465.661240E-3
466.629982E-3
466.910362E-3
467.231941E-3
468.071938E-3
467.900848E-3
468.458176E-3
468.870735E-3
468.380356E-3
468.997765E-3
468.712234E-3
469.123650E-3
469.362259E-3
469.011497E-3
469.535637E-3
469.164848E-3
469.455528E-3
469.550514E-3
469.338799E-3
469.616318E-3
469.092751E-3
469.424629E-3
469.643211E-3
469.642067E-3
470.428848E-3
470.024300E-3
470.803070E-3
470.740128E-3
470.563889E-3
471.447372E-3
471.410179E-3
471.752357E-3
471.937752E-3
471.461105E-3
472.503090E-3
472.049904E-3
472.594070E-3
473.100471E-3
473.181152E-3
473.620033E-3
473.490715E-3
474.071503E-3
474.153328E-3
474.374199E-3
475.247383E-3
475.053978E-3
475.641060E-3
475.640488E-3
475.373840E-3
475.522041E-3
474.398804E-3
473.046112E-3
469.941330E-3
466.003418E-3
461.679268E-3
455.982971E-3
451.740646E-3
447.602463E-3
444.305420E-3
443.413925E-3
442.500114E-3
443.743515E-3
444.863892E-3
446.610260E-3
449.459267E-3
450.807381E-3
452.752304E-3
453.717041E-3
454.632568E-3
455.520630E-3
455.138969E-3
455.312347E-3
455.010796E-3
454.436874E-3
454.416847E-3
453.358841E-3
454.132462E-3
454.512405E-3
455.556107E-3
457.470703E-3
458.112717E-3
459.362984E-3
459.404755E-3
459.237671E-3
459.755516E-3
458.826828E-3
458.612251E-3
458.176804E-3
457.376289E-3
457.369423E-3
456.955719E-3
457.688141E-3
458.230019E-3
459.004784E-3
460.272217E-3
460.408401E-3
461.938477E-3
462.427139E-3
462.744141E-3
464.042473E-3
464.160919E-3
465.074730E-3
465.780258E-3
465.943909E-3
466.941833E-3
466.676903E-3
467.370987E-3
467.336655E-3
467.408752E-3
468.456459E-3
467.760086E-3
468.169785E-3
468.227577E-3
468.252182E-3
468.840981E-3
468.375778E-3
468.411255E-3
468.579483E-3
468.270493E-3
469.125938E-3
468.696213E-3
469.155121E-3
469.532204E-3
469.032097E-3
470.302963E-3
470.085526E-3
470.507240E-3
470.735550E-3
470.840263E-3
471.554375E-3
471.063995E-3
471.908569E-3
472.223854E-3
472.024727E-3
472.974014E-3
472.576332E-3
472.658157E-3
472.615814E-3
472.777748E-3
473.569679E-3
473.549652E-3
474.195099E-3
474.896622E-3
474.406815E-3
475.359535E-3
475.288582E-3
475.259972E-3
475.802994E-3
475.482559E-3
475.998116E-3
475.453949E-3
474.911499E-3
473.151970E-3
470.086670E-3
466.860008E-3
461.950493E-3
457.626915E-3
452.959442E-3
449.364281E-3
447.835922E-3
446.482658E-3
447.154999E-3
447.902870E-3
449.474144E-3
451.948929E-3
453.516197E-3
455.925179E-3
457.967377E-3
458.779907E-3
460.163498E-3
459.955788E-3
460.221863E-3
460.479355E-3
459.817314E-3
459.849358E-3
459.340668E-3
459.978676E-3
460.931969E-3
461.384010E-3
463.140678E-3
463.676262E-3
464.234161E-3
464.242172E-3
463.422775E-3
462.990189E-3
461.682701E-3
461.179161E-3
460.517693E-3
459.793282E-3
460.180092E-3
459.901428E-3
460.382080E-3
461.022377E-3
461.975098E-3
463.548660E-3
464.118004E-3
464.947701E-3
466.179657E-3
466.180801E-3
467.043686E-3
467.420769E-3
468.041611E-3
468.161774E-3
468.263054E-3
468.942833E-3
468.906784E-3
469.444656E-3
469.595718E-3
469.390297E-3
469.933891E-3
469.647789E-3
470.084953E-3
469.952202E-3
469.656372E-3
470.143318E-3
469.810295E-3
470.031738E-3
470.272064E-3
469.755936E-3
470.357323E-3
469.748497E-3
470.246315E-3
470.286369E-3
470.112991E-3
470.845985E-3
470.581627E-3
470.822525E-3
471.213341E-3
471.068001E-3
471.943474E-3
471.741486E-3
472.105408E-3
472.614098E-3
472.640419E-3
473.391151E-3
473.277855E-3
473.908997E-3
474.417686E-3
474.526405E-3
475.675964E-3
475.360680E-3
475.880814E-3
475.981522E-3
475.249672E-3
475.702858E-3
474.362755E-3
473.408318E-3
471.511459E-3
467.919159E-3
464.624405E-3
459.333801E-3
454.961586E-3
450.682640E-3
447.498894E-3
445.917892E-3
444.582367E-3
445.500755E-3
446.714973E-3
448.457336E-3
451.364708E-3
452.858734E-3
454.530716E-3
456.021309E-3
456.750870E-3
457.965088E-3
457.945061E-3
458.008575E-3
458.329582E-3
457.501602E-3
458.064651E-3
457.285881E-3
457.942200E-3
459.154129E-3
459.751511E-3
461.088181E-3
461.437225E-3
462.194252E-3
462.407112E-3
461.885834E-3
461.374855E-3
460.022163E-3
459.361839E-3
458.676910E-3
458.116722E-3
458.798218E-3
458.345032E-3
459.134674E-3
459.883690E-3
460.332298E-3
461.981964E-3
462.328720E-3
463.523483E-3
464.711952E-3
464.743423E-3
466.114998E-3
466.290665E-3
467.100334E-3
467.659378E-3
467.653656E-3
468.518829E-3
468.482780E-3
468.635559E-3
468.935394E-3
468.838692E-3
469.846916E-3
469.076729E-3
469.096184E-3
469.224358E-3
468.886757E-3
469.693565E-3
469.598579E-3
469.489288E-3
469.605446E-3
469.420624E-3
470.253754E-3
469.600868E-3
469.665527E-3
470.016289E-3
469.921303E-3
471.103477E-3
470.609665E-3
471.180725E-3
471.077156E-3
471.174431E-3
471.893120E-3
471.857643E-3
472.342300E-3
472.422409E-3
472.366905E-3
473.213196E-3
473.267555E-3
473.332787E-3
473.807144E-3
473.561096E-3
474.525261E-3
474.456596E-3
474.847984E-3
475.667381E-3
475.209618E-3
476.478767E-3
475.922585E-3
475.873375E-3
475.905991E-3
475.094032E-3
474.917793E-3
472.469330E-3
469.287872E-3
465.376854E-3
459.939194E-3
455.715179E-3
450.813675E-3
447.163010E-3
445.354843E-3
443.910027E-3
444.715691E-3
445.176888E-3
447.189903E-3
449.289322E-3
451.097488E-3
453.757095E-3
454.601097E-3
456.038475E-3
456.683922E-3
456.641579E-3
457.278442E-3
456.414986E-3
456.301117E-3
455.999565E-3
455.046844E-3
455.411339E-3
455.330658E-3
456.899643E-3
458.036613E-3
458.914375E-3
460.651588E-3
460.674477E-3
461.235809E-3
461.239815E-3
460.475349E-3
460.517120E-3
459.513474E-3
459.494019E-3
459.548950E-3
458.790779E-3
459.472275E-3
459.257126E-3
460.213280E-3
461.111641E-3
461.664963E-3
463.145256E-3
463.451385E-3
464.539719E-3
465.318489E-3
465.716743E-3
466.809654E-3
466.971588E-3
467.049408E-3
468.095970E-3
468.263054E-3
469.313622E-3
468.999481E-3
469.238663E-3
469.855499E-3
469.432068E-3
470.059204E-3
469.599724E-3
469.681549E-3
470.279503E-3
470.049477E-3
470.531273E-3
470.042610E-3
470.137596E-3
470.759583E-3
470.295525E-3
471.223640E-3
470.776749E-3
471.043968E-3
471.294594E-3
471.132660E-3
472.221565E-3
472.130585E-3
472.387505E-3
472.642708E-3
472.594070E-3
473.445511E-3
473.188019E-3
473.697853E-3
473.854637E-3
473.786545E-3
474.627686E-3
474.068069E-3
474.765015E-3
475.384140E-3
475.332642E-3
476.158333E-3
476.022148E-3
476.852989E-3
477.046394E-3
476.929665E-3
477.370834E-3
477.163124E-3
477.172279E-3
477.535629E-3
476.374626E-3
475.768089E-3
472.820663E-3
469.753075E-3
465.852928E-3
460.854149E-3
457.009506E-3
452.765465E-3
450.326157E-3
449.024391E-3
448.720551E-3
450.365067E-3
451.668549E-3
453.921890E-3
456.143761E-3
457.848930E-3
459.978676E-3
460.671043E-3
461.755943E-3
462.674332E-3
462.503815E-3
463.109207E-3
462.258911E-3
461.927032E-3
462.280083E-3
462.183380E-3
463.406181E-3
463.949203E-3
464.766312E-3
466.540146E-3
466.213989E-3
466.691208E-3
465.703011E-3
465.011215E-3
464.029884E-3
462.742996E-3
462.473488E-3
461.624336E-3
461.552811E-3
462.309837E-3
462.187958E-3
463.028526E-3
463.368988E-3
464.447021E-3
465.896416E-3
466.320419E-3
467.197609E-3
467.758369E-3
468.330574E-3
469.392014E-3
469.439507E-3
470.287514E-3
470.396805E-3
470.709229E-3
471.088600E-3
471.080589E-3
471.434212E-3
471.346092E-3
471.467400E-3
471.879959E-3
471.437645E-3
471.656227E-3
471.566963E-3
471.802711E-3
472.200966E-3
471.660233E-3
472.073936E-3
471.814728E-3
471.822166E-3
472.300529E-3
471.829605E-3
472.544289E-3
472.249031E-3
472.400665E-3
472.933960E-3
472.472763E-3
473.143387E-3
472.592354E-3
473.003197E-3
473.658371E-3
473.549652E-3
474.152184E-3
473.956490E-3
474.802208E-3
475.647926E-3
475.564384E-3
476.302528E-3
476.724243E-3
477.023506E-3
477.760506E-3
477.189445E-3
477.722740E-3
477.415466E-3
477.295876E-3
476.784897E-3
474.843407E-3
473.121643E-3
469.113922E-3
464.889908E-3
460.569763E-3
455.690575E-3
452.064514E-3
449.364853E-3
447.822189E-3
448.071098E-3
448.461914E-3
450.302696E-3
451.757812E-3
454.138184E-3
456.320000E-3
457.379723E-3
459.160423E-3
459.685135E-3
460.107994E-3
460.969734E-3
460.548019E-3
460.427284E-3
459.997559E-3
459.881973E-3
460.118294E-3
460.201836E-3
461.656380E-3
462.393379E-3
463.378143E-3
464.822960E-3
464.793777E-3
464.811516E-3
464.091682E-3
463.463974E-3
463.006783E-3
461.725616E-3
461.757660E-3
460.774612E-3
460.869598E-3
461.464691E-3
461.535072E-3
462.527847E-3
463.305473E-3
463.734055E-3
465.036964E-3
465.526772E-3
466.713524E-3
467.311478E-3
468.043900E-3
468.865013E-3
469.147110E-3
470.205116E-3
470.110130E-3
470.307541E-3
470.918655E-3
470.605087E-3
471.505737E-3
471.074295E-3
471.001053E-3
471.586990E-3
471.507454E-3
472.026443E-3
471.653938E-3
471.541214E-3
471.764946E-3
471.499443E-3
471.759796E-3
471.539497E-3
471.809006E-3
472.114563E-3
471.621895E-3
472.421837E-3
471.992683E-3
472.281647E-3
473.107338E-3
472.878456E-3
473.474121E-3
473.313332E-3
473.771667E-3
474.341011E-3
473.891830E-3
474.769592E-3
474.498367E-3
474.869728E-3
475.387573E-3
475.256538E-3
475.819588E-3
475.955772E-3
475.843620E-3
476.721382E-3
476.656723E-3
