Notes :


2023-12-11 ¿ÀÈÄ 10:22:48
Volts
Ch : LED 2,
510.632515E-3
510.962105E-3
510.823059E-3
511.645317E-3
511.233330E-3
511.891365E-3
512.180328E-3
511.965752E-3
513.013458E-3
512.917328E-3
513.146782E-3
513.702393E-3
513.737869E-3
514.560127E-3
514.462852E-3
514.780998E-3
515.166664E-3
514.671135E-3
515.844727E-3
515.722275E-3
515.583229E-3
516.517639E-3
516.102219E-3
517.366219E-3
517.484093E-3
518.113518E-3
518.717194E-3
518.371010E-3
518.761253E-3
518.321228E-3
518.179321E-3
517.621994E-3
514.865112E-3
511.581230E-3
505.829430E-3
500.315666E-3
494.168472E-3
487.972641E-3
484.081078E-3
480.521965E-3
478.884315E-3
479.316902E-3
479.969215E-3
482.278633E-3
484.047890E-3
486.878014E-3
489.304733E-3
490.774155E-3
492.804909E-3
493.751335E-3
494.119835E-3
494.552422E-3
493.880653E-3
494.187927E-3
493.659210E-3
492.873001E-3
493.192863E-3
493.116188E-3
494.593048E-3
495.514870E-3
496.729660E-3
498.511505E-3
498.928642E-3
499.943733E-3
499.289703E-3
498.929214E-3
498.387909E-3
497.546768E-3
497.163963E-3
496.159172E-3
496.060753E-3
496.445274E-3
496.656990E-3
498.026276E-3
498.388481E-3
499.456787E-3
500.721931E-3
501.030922E-3
502.909470E-3
503.457642E-3
504.690742E-3
505.857468E-3
505.893517E-3
506.743813E-3
507.257080E-3
507.798958E-3
508.805466E-3
508.178902E-3
509.010887E-3
509.032631E-3
508.842087E-3
509.302711E-3
509.176254E-3
509.861755E-3
509.660339E-3
509.465218E-3
510.008812E-3
509.824562E-3
509.737587E-3
509.723282E-3
509.685516E-3
510.315514E-3
509.732437E-3
510.183334E-3
510.267448E-3
510.822487E-3
511.240768E-3
511.471367E-3
512.009239E-3
511.633301E-3
512.133980E-3
513.020325E-3
513.050652E-3
513.630867E-3
513.677216E-3
513.586807E-3
514.362144E-3
514.286613E-3
514.938354E-3
515.074539E-3
515.197563E-3
516.222382E-3
515.885353E-3
516.688728E-3
516.939354E-3
516.895866E-3
518.008232E-3
517.640305E-3
518.649673E-3
518.423653E-3
518.489456E-3
518.797302E-3
517.581940E-3
516.453552E-3
513.270950E-3
509.024620E-3
504.294205E-3
497.927284E-3
492.800331E-3
487.776375E-3
484.297371E-3
483.218765E-3
482.223701E-3
483.971786E-3
485.513306E-3
487.627602E-3
490.268898E-3
492.284203E-3
495.000458E-3
496.824074E-3
497.755051E-3
499.014473E-3
498.655128E-3
499.639320E-3
499.440765E-3
498.934364E-3
499.171257E-3
498.830795E-3
500.285912E-3
501.290131E-3
502.217102E-3
503.505135E-3
503.013039E-3
503.197861E-3
502.623940E-3
501.548767E-3
500.708199E-3
498.702621E-3
498.458290E-3
497.090149E-3
496.848679E-3
497.450066E-3
497.348785E-3
498.342705E-3
499.388123E-3
500.430107E-3
502.354431E-3
502.876282E-3
504.316521E-3
504.858971E-3
505.665207E-3
507.065964E-3
507.130051E-3
508.058167E-3
508.439827E-3
508.921051E-3
509.706116E-3
509.259224E-3
509.829712E-3
509.928131E-3
509.811974E-3
510.504341E-3
509.959602E-3
510.268021E-3
510.338974E-3
510.214806E-3
510.617638E-3
509.901810E-3
510.143280E-3
510.158157E-3
509.946442E-3
510.856247E-3
510.241127E-3
510.546112E-3
510.551262E-3
510.685730E-3
511.252213E-3
510.787582E-3
511.746025E-3
511.725426E-3
511.746025E-3
512.508202E-3
512.200356E-3
513.280106E-3
513.244057E-3
513.709831E-3
514.641953E-3
514.387894E-3
515.364075E-3
515.604973E-3
515.577507E-3
516.724205E-3
516.570854E-3
516.927338E-3
517.146492E-3
517.088699E-3
517.367363E-3
515.999222E-3
515.350914E-3
512.553406E-3
507.803535E-3
502.959824E-3
496.806908E-3
491.760063E-3
487.023354E-3
482.710648E-3
480.787468E-3
479.800415E-3
481.055260E-3
482.556152E-3
484.399796E-3
487.023354E-3
488.608360E-3
491.298866E-3
493.235779E-3
494.159317E-3
495.357513E-3
495.265388E-3
495.804977E-3
495.916557E-3
495.374107E-3
495.384407E-3
495.166969E-3
495.871925E-3
496.817780E-3
497.728157E-3
499.738312E-3
500.020409E-3
500.848389E-3
501.052094E-3
499.951172E-3
500.042152E-3
498.348427E-3
498.303223E-3
497.082138E-3
496.369171E-3
496.443558E-3
495.709991E-3
497.134781E-3
497.601128E-3
498.413658E-3
499.920273E-3
500.362587E-3
502.215385E-3
502.826500E-3
503.753471E-3
505.042648E-3
505.172539E-3
506.415367E-3
506.989861E-3
507.299995E-3
508.217812E-3
507.933426E-3
508.745956E-3
508.971977E-3
508.893013E-3
509.402847E-3
509.103012E-3
509.858322E-3
509.956169E-3
509.519577E-3
510.349846E-3
509.787369E-3
510.441399E-3
510.266876E-3
509.763336E-3
510.399628E-3
509.838295E-3
510.725212E-3
510.420227E-3
510.225105E-3
510.769272E-3
510.734940E-3
511.605263E-3
511.751175E-3
511.878204E-3
512.337685E-3
512.392616E-3
513.048363E-3
513.306999E-3
513.099861E-3
513.850594E-3
513.787651E-3
514.039421E-3
514.264870E-3
514.632225E-3
515.542603E-3
515.243912E-3
516.240692E-3
516.154289E-3
516.149712E-3
517.173958E-3
517.116737E-3
517.991066E-3
517.833138E-3
517.500114E-3
517.383385E-3
515.284538E-3
512.681580E-3
508.544540E-3
502.526665E-3
497.102737E-3
490.580177E-3
485.546494E-3
481.974220E-3
479.424477E-3
479.214478E-3
479.126930E-3
480.846405E-3
483.209038E-3
485.115623E-3
487.720299E-3
489.456940E-3
491.628456E-3
492.264748E-3
492.995453E-3
493.762779E-3
493.159103E-3
493.721008E-3
493.161964E-3
492.423248E-3
492.616081E-3
492.118263E-3
493.380547E-3
494.608498E-3
495.541763E-3
497.402573E-3
497.736740E-3
498.820496E-3
498.655128E-3
498.275185E-3
498.063469E-3
497.125053E-3
496.882439E-3
495.833015E-3
495.612144E-3
496.182632E-3
495.774651E-3
496.989441E-3
497.477531E-3
498.208237E-3
499.625015E-3
500.078773E-3
501.817703E-3
502.518082E-3
503.127480E-3
504.411507E-3
504.595184E-3
505.603981E-3
506.579590E-3
506.703186E-3
507.496834E-3
507.392120E-3
508.115387E-3
507.685089E-3
507.841873E-3
508.492470E-3
508.392334E-3
508.885002E-3
508.843231E-3
508.763123E-3
509.040070E-3
508.450127E-3
509.031487E-3
508.946228E-3
509.271240E-3
509.626007E-3
509.218025E-3
509.734154E-3
509.690666E-3
509.912682E-3
510.623360E-3
510.214233E-3
511.035347E-3
511.256790E-3
511.017609E-3
511.994934E-3
511.522293E-3
512.343979E-3
512.710190E-3
512.795448E-3
513.395119E-3
513.292694E-3
514.097786E-3
514.116096E-3
514.196777E-3
514.960670E-3
514.787865E-3
515.197563E-3
515.697670E-3
515.739441E-3
516.775703E-3
516.701317E-3
517.179108E-3
517.590523E-3
517.239189E-3
517.820549E-3
517.437744E-3
517.149925E-3
515.764618E-3
512.814903E-3
509.116173E-3
503.566360E-3
498.453140E-3
492.980576E-3
488.104820E-3
485.472107E-3
483.132362E-3
483.349800E-3
484.228706E-3
485.678673E-3
488.524818E-3
490.330124E-3
492.986298E-3
495.256805E-3
496.296501E-3
498.099518E-3
498.274040E-3
499.193001E-3
499.101448E-3
498.625374E-3
499.129486E-3
498.348999E-3
499.146080E-3
500.138283E-3
500.868416E-3
502.577591E-3
503.291130E-3
503.954887E-3
503.990364E-3
502.903175E-3
502.299500E-3
500.969696E-3
500.007820E-3
498.984718E-3
497.902679E-3
498.132133E-3
497.710419E-3
498.441124E-3
498.960114E-3
499.550629E-3
501.273537E-3
501.976776E-3
503.489113E-3
504.610062E-3
505.041504E-3
506.588745E-3
507.047653E-3
507.812691E-3
508.810043E-3
508.773994E-3
509.327316E-3
509.417152E-3
510.026550E-3
510.542679E-3
510.603333E-3
511.577797E-3
511.259651E-3
511.408424E-3
511.649323E-3
511.595535E-3
511.947441E-3
511.348343E-3
511.625862E-3
511.822701E-3
511.296844E-3
511.828423E-3
511.433029E-3
511.774635E-3
512.163734E-3
511.724281E-3
512.396622E-3
511.954880E-3
512.482452E-3
513.022041E-3
512.964821E-3
513.526726E-3
513.083839E-3
513.582802E-3
514.005661E-3
513.773346E-3
514.834785E-3
514.696312E-3
515.486526E-3
515.812683E-3
515.925407E-3
517.044640E-3
516.984558E-3
517.781639E-3
517.893219E-3
517.979050E-3
518.508339E-3
517.703247E-3
518.003082E-3
517.020607E-3
514.834785E-3
511.588669E-3
506.458282E-3
501.169968E-3
495.509148E-3
489.911842E-3
486.605644E-3
483.382416E-3
481.921005E-3
482.123566E-3
482.575607E-3
485.053825E-3
486.456299E-3
489.270401E-3
491.281128E-3
492.695618E-3
494.908905E-3
495.426178E-3
496.150017E-3
496.681023E-3
496.311951E-3
496.680450E-3
496.322250E-3
496.131706E-3
496.116257E-3
496.244431E-3
498.185921E-3
498.972702E-3
500.445557E-3
501.434898E-3
501.446915E-3
502.053452E-3
500.657272E-3
500.071907E-3
499.466515E-3
498.503494E-3
498.374748E-3
497.397995E-3
497.606277E-3
498.155594E-3
498.150444E-3
499.519730E-3
500.025558E-3
501.262665E-3
502.306366E-3
502.898026E-3
504.497337E-3
504.912186E-3
506.030846E-3
507.138062E-3
507.338905E-3
508.374023E-3
508.559418E-3
509.082413E-3
509.527016E-3
509.217453E-3
510.050011E-3
509.742165E-3
510.247421E-3
510.473442E-3
510.246277E-3
510.829353E-3
510.314941E-3
510.563850E-3
510.791016E-3
510.170746E-3
511.116028E-3
510.741806E-3
510.887146E-3
511.091423E-3
510.773849E-3
511.502838E-3
511.189270E-3
511.613274E-3
512.119102E-3
512.294769E-3
513.051796E-3
512.698174E-3
513.131332E-3
513.742447E-3
513.739586E-3
514.343262E-3
514.354134E-3
514.696312E-3
515.076828E-3
515.063095E-3
515.657616E-3
515.408707E-3
516.051292E-3
516.522789E-3
516.616058E-3
517.496109E-3
517.417145E-3
517.901802E-3
518.547249E-3
518.575287E-3
519.040489E-3
518.408775E-3
518.361855E-3
517.712402E-3
515.491104E-3
512.155151E-3
506.707191E-3
501.423454E-3
495.755768E-3
489.755630E-3
486.088943E-3
482.470894E-3
481.090164E-3
480.953979E-3
481.665802E-3
483.687401E-3
485.486984E-3
487.686539E-3
490.189934E-3
491.614723E-3
493.641472E-3
493.766785E-3
494.500923E-3
494.964981E-3
494.550133E-3
495.001030E-3
493.853760E-3
493.656349E-3
494.035149E-3
493.655777E-3
495.319748E-3
495.934296E-3
497.606277E-3
499.254227E-3
499.411583E-3
500.916481E-3
500.236702E-3
500.028992E-3
499.546051E-3
498.374176E-3
498.351288E-3
497.195435E-3
497.057533E-3
497.739601E-3
497.918701E-3
498.926926E-3
499.172401E-3
500.150871E-3
501.440048E-3
502.057457E-3
503.436470E-3
503.711700E-3
504.554558E-3
506.038857E-3
506.542969E-3
507.570076E-3
507.625580E-3
508.502197E-3
509.100151E-3
509.175110E-3
509.795380E-3
509.366226E-3
509.782791E-3
510.361290E-3
510.013962E-3
510.578728E-3
510.074043E-3
510.226822E-3
510.837364E-3
510.354424E-3
510.918617E-3
510.395050E-3
510.507202E-3
511.089706E-3
510.904884E-3
511.636162E-3
511.455345E-3
511.843872E-3
512.277031E-3
512.119675E-3
513.101006E-3
512.994576E-3
513.533592E-3
514.017677E-3
513.880920E-3
514.774704E-3
514.406204E-3
514.974403E-3
515.532303E-3
515.344620E-3
516.117096E-3
515.994072E-3
516.685867E-3
516.986847E-3
516.852951E-3
517.490387E-3
517.488670E-3
517.817116E-3
518.645096E-3
518.460846E-3
519.554329E-3
519.094276E-3
519.386101E-3
519.592667E-3
518.777847E-3
517.921257E-3
514.647102E-3
510.904312E-3
506.267166E-3
500.126839E-3
495.232201E-3
490.629387E-3
487.147522E-3
486.154175E-3
485.457802E-3
486.322403E-3
487.701988E-3
489.969635E-3
492.487335E-3
494.330406E-3
496.593475E-3
497.800255E-3
499.115181E-3
500.546837E-3
500.198936E-3
500.700188E-3
500.265312E-3
500.052452E-3
500.376892E-3
500.325394E-3
501.484108E-3
502.278328E-3
503.498840E-3
504.824066E-3
504.945946E-3
505.557632E-3
504.733086E-3
503.930855E-3
503.102303E-3
501.309013E-3
500.928497E-3
499.901390E-3
499.678230E-3
499.952316E-3
499.599266E-3
500.744820E-3
501.745033E-3
502.828789E-3
504.049301E-3
504.580307E-3
505.752754E-3
506.277466E-3
507.132339E-3
508.440971E-3
509.050941E-3
510.130119E-3
510.274315E-3
510.574150E-3
511.376953E-3
511.217308E-3
511.940002E-3
511.652184E-3
512.037849E-3
512.630081E-3
512.227249E-3
512.759399E-3
512.381172E-3
512.524796E-3
512.854385E-3
512.288475E-3
513.168526E-3
512.636375E-3
512.911606E-3
512.980843E-3
512.770844E-3
513.405418E-3
513.163948E-3
513.341904E-3
513.572502E-3
513.655472E-3
514.350128E-3
514.058876E-3
514.627647E-3
514.840508E-3
514.305496E-3
515.427017E-3
515.561485E-3
515.863609E-3
516.695023E-3
516.323662E-3
517.056656E-3
517.137337E-3
517.893219E-3
518.608475E-3
518.734932E-3
519.573212E-3
519.833565E-3
519.947433E-3
520.222664E-3
519.572067E-3
520.038986E-3
518.674850E-3
516.293335E-3
513.093567E-3
507.852745E-3
502.685738E-3
496.988869E-3
492.102814E-3
488.276482E-3
485.160255E-3
484.525108E-3
484.573746E-3
485.829735E-3
487.687111E-3
489.396858E-3
492.185783E-3
493.914986E-3
495.724869E-3
497.463799E-3
498.003960E-3
499.006462E-3
499.043655E-3
499.133492E-3
499.300575E-3
498.427391E-3
498.687744E-3
498.881721E-3
499.801254E-3
501.238060E-3
501.774788E-3
503.139496E-3
503.960609E-3
504.084206E-3
504.561424E-3
503.227615E-3
502.977562E-3
501.779366E-3
500.820923E-3
500.628090E-3
499.653625E-3
500.569153E-3
500.683594E-3
501.176834E-3
502.511215E-3
503.007889E-3
504.595757E-3
505.157089E-3
506.022263E-3
507.320595E-3
507.723427E-3
509.114456E-3
509.464073E-3
510.205650E-3
511.053658E-3
511.244774E-3
512.005234E-3
512.025261E-3
512.433815E-3
513.160515E-3
513.084984E-3
513.358498E-3
512.959099E-3
513.240623E-3
513.690376E-3
513.271523E-3
513.673210E-3
513.505554E-3
513.239479E-3
513.958168E-3
513.503838E-3
514.064026E-3
513.861465E-3
514.231110E-3
514.688873E-3
514.337540E-3
514.647102E-3
514.467430E-3
514.653969E-3
515.615845E-3
515.516853E-3
516.158867E-3
516.429520E-3
516.708183E-3
517.321014E-3
517.018318E-3
517.855453E-3
517.815399E-3
518.051147E-3
518.611336E-3
518.076324E-3
518.876839E-3
518.873405E-3
519.334030E-3
520.248985E-3
519.904518E-3
520.747948E-3
520.621490E-3
520.910454E-3
521.726418E-3
521.031189E-3
521.435738E-3
520.094490E-3
517.751884E-3
514.743233E-3
509.597969E-3
503.924561E-3
497.817993E-3
491.948318E-3
488.691330E-3
485.211182E-3
484.472466E-3
484.157753E-3
485.142517E-3
487.156677E-3
488.917351E-3
491.567230E-3
493.599701E-3
495.340347E-3
497.103310E-3
497.119331E-3
498.084641E-3
498.385048E-3
498.242569E-3
498.643684E-3
497.290421E-3
497.595406E-3
497.305870E-3
497.681808E-3
499.163818E-3
499.823570E-3
501.454926E-3
502.704620E-3
503.256798E-3
504.463577E-3
503.681374E-3
503.751183E-3
502.760124E-3
502.349854E-3
501.885796E-3
500.870705E-3
500.873566E-3
500.909615E-3
501.572227E-3
502.448845E-3
502.693176E-3
504.091072E-3
504.824638E-3
506.032562E-3
507.566071E-3
508.023834E-3
509.323883E-3
510.097504E-3
511.158943E-3
512.214661E-3
511.877632E-3
512.658691E-3
513.006592E-3
513.371086E-3
514.042282E-3
513.475800E-3
514.090347E-3
514.227104E-3
514.185333E-3
515.216446E-3
514.391327E-3
515.148926E-3
515.295982E-3
515.218735E-3
515.511703E-3
515.061378E-3
515.178108E-3
515.269661E-3
515.582085E-3
516.034126E-3
515.629578E-3
516.320229E-3
516.502762E-3
516.199493E-3
517.065239E-3
516.828918E-3
517.730713E-3
518.111801E-3
518.126678E-3
519.121742E-3
518.400192E-3
519.223022E-3
519.303131E-3
519.323158E-3
520.130539E-3
519.944000E-3
521.051216E-3
521.101570E-3
521.205711E-3
521.751022E-3
521.801949E-3
522.748947E-3
522.637939E-3
522.969246E-3
523.765755E-3
523.183823E-3
523.948860E-3
523.976898E-3
523.361206E-3
