Notes :


2023-12-11 ¿ÀÈÄ 10:26:02
Volts
Ch : LED 2,
628.059769E-3
629.789543E-3
630.531693E-3
632.390785E-3
632.482910E-3
633.453941E-3
634.194946E-3
634.284210E-3
635.290146E-3
635.593987E-3
636.154747E-3
636.851120E-3
636.454010E-3
636.928940E-3
637.188721E-3
637.347221E-3
637.840462E-3
637.632179E-3
638.197517E-3
637.960052E-3
637.804413E-3
638.285637E-3
637.474823E-3
638.205528E-3
637.928581E-3
637.897110E-3
638.304520E-3
638.017845E-3
638.450432E-3
638.289070E-3
638.595772E-3
639.233208E-3
639.041519E-3
639.680099E-3
639.302444E-3
639.577103E-3
640.401077E-3
640.362740E-3
641.112900E-3
640.819931E-3
641.097450E-3
641.761780E-3
641.318321E-3
642.204666E-3
642.229271E-3
642.486763E-3
643.260956E-3
643.317032E-3
644.274330E-3
644.775009E-3
645.197296E-3
645.883942E-3
645.446205E-3
645.734596E-3
645.177841E-3
644.012833E-3
642.062759E-3
636.789894E-3
631.402016E-3
624.315834E-3
617.116928E-3
610.839844E-3
604.448318E-3
601.726341E-3
599.814606E-3
600.029755E-3
601.893997E-3
603.610611E-3
607.228661E-3
610.030746E-3
612.236595E-3
615.536499E-3
616.611099E-3
618.338013E-3
618.929100E-3
619.079590E-3
618.995476E-3
618.113136E-3
617.936897E-3
616.924095E-3
616.080666E-3
617.259407E-3
617.551804E-3
619.396591E-3
620.412827E-3
622.084808E-3
623.668671E-3
623.398018E-3
623.537636E-3
622.767448E-3
622.197533E-3
622.050476E-3
620.658875E-3
620.653152E-3
620.283508E-3
620.658875E-3
621.690559E-3
622.090530E-3
623.185730E-3
624.822235E-3
625.711441E-3
627.718163E-3
628.201103E-3
629.268265E-3
630.243874E-3
630.974579E-3
632.328415E-3
632.542992E-3
633.544350E-3
633.732605E-3
634.497070E-3
635.401726E-3
634.618378E-3
635.410881E-3
635.463524E-3
635.424042E-3
636.180496E-3
635.592842E-3
636.122704E-3
635.676956E-3
635.802841E-3
636.127281E-3
635.601997E-3
636.256027E-3
636.078644E-3
636.286926E-3
636.853409E-3
636.709785E-3
637.434196E-3
637.573242E-3
637.738037E-3
638.396072E-3
638.250732E-3
639.223480E-3
639.582825E-3
639.922142E-3
640.631676E-3
639.844894E-3
640.546989E-3
640.842819E-3
641.115761E-3
641.931725E-3
641.531181E-3
642.127991E-3
642.836380E-3
643.058968E-3
644.151878E-3
643.640327E-3
644.534683E-3
645.038795E-3
645.287132E-3
645.676231E-3
645.450211E-3
645.949745E-3
645.578384E-3
644.126129E-3
642.212105E-3
637.457085E-3
632.204247E-3
625.407600E-3
619.006348E-3
613.365555E-3
607.912445E-3
605.254555E-3
603.952789E-3
604.364777E-3
606.621552E-3
608.383942E-3
611.898422E-3
614.670181E-3
617.477989E-3
620.408249E-3
621.772385E-3
623.402596E-3
623.927879E-3
624.242592E-3
624.868011E-3
624.028587E-3
624.358749E-3
624.492645E-3
625.001907E-3
626.175499E-3
626.935387E-3
628.574753E-3
629.157829E-3
629.321480E-3
628.926659E-3
627.393150E-3
626.394081E-3
625.209618E-3
623.622322E-3
623.101616E-3
621.757507E-3
621.936607E-3
622.513962E-3
622.929382E-3
624.526978E-3
625.297165E-3
626.956558E-3
628.100967E-3
629.447937E-3
631.127930E-3
631.303596E-3
632.814217E-3
634.008408E-3
634.706497E-3
635.528183E-3
635.646629E-3
636.046028E-3
636.682892E-3
636.900330E-3
637.058258E-3
636.527824E-3
636.919212E-3
636.849403E-3
637.010193E-3
637.453651E-3
636.563301E-3
637.115479E-3
636.768723E-3
636.453438E-3
636.920929E-3
636.340714E-3
636.960411E-3
636.720657E-3
636.844826E-3
637.328339E-3
636.966705E-3
637.737465E-3
637.635612E-3
637.890816E-3
638.539124E-3
638.146591E-3
638.850403E-3
639.612579E-3
639.554787E-3
640.631104E-3
640.795898E-3
641.419029E-3
641.986656E-3
642.392921E-3
643.414879E-3
643.469810E-3
644.449425E-3
644.531250E-3
644.837952E-3
644.981003E-3
643.981934E-3
643.185997E-3
640.590477E-3
636.160469E-3
631.168556E-3
623.680687E-3
617.058563E-3
610.711670E-3
605.316925E-3
602.569771E-3
600.480080E-3
601.144409E-3
602.741432E-3
605.088043E-3
608.467484E-3
610.597801E-3
614.127159E-3
616.521835E-3
618.071365E-3
619.684410E-3
620.189095E-3
621.110916E-3
620.896339E-3
620.254898E-3
620.500946E-3
619.782829E-3
620.551300E-3
621.053696E-3
622.270775E-3
623.805428E-3
624.270058E-3
625.489998E-3
625.407028E-3
624.420547E-3
624.023437E-3
622.229576E-3
621.727753E-3
620.356178E-3
619.757080E-3
620.167351E-3
619.783974E-3
620.998764E-3
621.684265E-3
622.723961E-3
624.272346E-3
624.751854E-3
626.729393E-3
628.194237E-3
629.355812E-3
630.868721E-3
631.232071E-3
632.542419E-3
632.720947E-3
633.363533E-3
634.387779E-3
634.348297E-3
635.441208E-3
634.973145E-3
635.002327E-3
635.656929E-3
635.461807E-3
635.823441E-3
635.793686E-3
635.668945E-3
635.964775E-3
635.401154E-3
635.985947E-3
636.022568E-3
635.563087E-3
635.948753E-3
635.450363E-3
636.187363E-3
636.190224E-3
636.393356E-3
636.801910E-3
636.544991E-3
637.186432E-3
637.459946E-3
637.700272E-3
638.371468E-3
637.958908E-3
638.836670E-3
638.937950E-3
638.839531E-3
639.621735E-3
639.357376E-3
640.410233E-3
640.666580E-3
640.788460E-3
641.861343E-3
641.757202E-3
642.434120E-3
642.998886E-3
642.963409E-3
643.858337E-3
643.811989E-3
644.413376E-3
643.734741E-3
642.736816E-3
641.270828E-3
637.287140E-3
632.716370E-3
626.029587E-3
618.354607E-3
611.413765E-3
604.500389E-3
600.358772E-3
597.807312E-3
596.733284E-3
597.907448E-3
599.377441E-3
602.585220E-3
605.204773E-3
607.918167E-3
611.060143E-3
612.681198E-3
614.567757E-3
615.471840E-3
615.783119E-3
616.029167E-3
615.002632E-3
614.683914E-3
613.969231E-3
613.108635E-3
613.344955E-3
613.482857E-3
615.010643E-3
616.483498E-3
618.029594E-3
619.735336E-3
620.005989E-3
621.037102E-3
620.870590E-3
620.118141E-3
619.933891E-3
618.649864E-3
618.085098E-3
617.811012E-3
617.617607E-3
618.338585E-3
618.370056E-3
620.103264E-3
620.957565E-3
621.853638E-3
623.170853E-3
623.725319E-3
625.689125E-3
626.937103E-3
627.643776E-3
628.947830E-3
629.202461E-3
630.194092E-3
630.967140E-3
631.374550E-3
632.381630E-3
631.963348E-3
632.607079E-3
632.811356E-3
632.849121E-3
633.472824E-3
632.881165E-3
633.568954E-3
633.626175E-3
633.677673E-3
634.141731E-3
633.831024E-3
634.332848E-3
634.611511E-3
634.471321E-3
634.887314E-3
634.454155E-3
635.024071E-3
634.936523E-3
635.095596E-3
635.953331E-3
635.526466E-3
636.581612E-3
637.150955E-3
636.963844E-3
637.848473E-3
637.700272E-3
638.441849E-3
638.661003E-3
638.533401E-3
639.328194E-3
638.910484E-3
639.908981E-3
640.371323E-3
640.498924E-3
641.275978E-3
641.084290E-3
641.715431E-3
642.104530E-3
642.327690E-3
643.142509E-3
642.606354E-3
643.472099E-3
643.387985E-3
643.356514E-3
642.753410E-3
640.061188E-3
636.902618E-3
631.331062E-3
624.425697E-3
618.213844E-3
610.572052E-3
605.725479E-3
601.262283E-3
599.773979E-3
600.018311E-3
601.212502E-3
603.968811E-3
606.857872E-3
610.212708E-3
613.312340E-3
615.315056E-3
617.645645E-3
618.669319E-3
619.782257E-3
620.453453E-3
620.106697E-3
620.053482E-3
619.022369E-3
618.691635E-3
619.173431E-3
619.402313E-3
621.227646E-3
622.743988E-3
623.582840E-3
624.661446E-3
624.604797E-3
624.587631E-3
623.194313E-3
621.806717E-3
621.176720E-3
619.583702E-3
619.258118E-3
618.690491E-3
618.431282E-3
619.330788E-3
619.782257E-3
621.225929E-3
622.467041E-3
623.463821E-3
625.362968E-3
625.790977E-3
627.263260E-3
628.399086E-3
628.767014E-3
630.345726E-3
630.374336E-3
631.438637E-3
632.148743E-3
632.098389E-3
632.965279E-3
632.900047E-3
633.330345E-3
633.651352E-3
633.511734E-3
633.825302E-3
633.428764E-3
634.010124E-3
633.884811E-3
633.677673E-3
634.181213E-3
633.572960E-3
634.138298E-3
633.506012E-3
633.205032E-3
634.178352E-3
634.011269E-3
634.533691E-3
634.806061E-3
634.275055E-3
634.923363E-3
634.754562E-3
635.582542E-3
636.075211E-3
635.833740E-3
636.772728E-3
636.716652E-3
637.482262E-3
638.014984E-3
638.223839E-3
639.083862E-3
639.195442E-3
640.210533E-3
641.344643E-3
641.120911E-3
641.845322E-3
641.689110E-3
642.004967E-3
641.674805E-3
641.166115E-3
640.719223E-3
637.760925E-3
634.027863E-3
628.603363E-3
621.818733E-3
615.550232E-3
608.270073E-3
603.153992E-3
599.481010E-3
597.208786E-3
597.358131E-3
598.371506E-3
600.922966E-3
603.643799E-3
606.524277E-3
609.881401E-3
611.943626E-3
614.328575E-3
615.792847E-3
616.280365E-3
617.437363E-3
616.777039E-3
616.547012E-3
616.527557E-3
615.923882E-3
616.773605E-3
616.989326E-3
618.330002E-3
620.114708E-3
621.007347E-3
622.378922E-3
622.257042E-3
621.844482E-3
621.409035E-3
619.912720E-3
619.254112E-3
617.772675E-3
617.156410E-3
616.929817E-3
616.431999E-3
617.735481E-3
618.055916E-3
619.350243E-3
620.313835E-3
621.586990E-3
623.914719E-3
624.437141E-3
626.249886E-3
627.236938E-3
627.934456E-3
629.302597E-3
629.489708E-3
630.566025E-3
631.300735E-3
631.464958E-3
632.179070E-3
632.141876E-3
632.878876E-3
633.094025E-3
632.718658E-3
633.447075E-3
633.064270E-3
633.413315E-3
633.422470E-3
632.963562E-3
633.471680E-3
633.144951E-3
633.541489E-3
633.160973E-3
633.015060E-3
633.776665E-3
633.175278E-3
633.651924E-3
634.119987E-3
634.066200E-3
635.161400E-3
634.981728E-3
635.587120E-3
636.026001E-3
636.040306E-3
636.959839E-3
636.532402E-3
637.280846E-3
637.620735E-3
637.476540E-3
638.422394E-3
638.225555E-3
638.813782E-3
639.300728E-3
639.483261E-3
640.552139E-3
640.235138E-3
640.863991E-3
641.442490E-3
641.791534E-3
642.527390E-3
642.487335E-3
642.949677E-3
642.804909E-3
641.881943E-3
641.310310E-3
638.435555E-3
634.210968E-3
628.321838E-3
620.333862E-3
613.226509E-3
605.621910E-3
599.717903E-3
595.631790E-3
593.107224E-3
593.542099E-3
594.091988E-3
596.609688E-3
599.635506E-3
602.034187E-3
605.875969E-3
607.811165E-3
610.010719E-3
611.711884E-3
611.787987E-3
612.683487E-3
612.236595E-3
611.746788E-3
611.449242E-3
610.613823E-3
610.178375E-3
610.167503E-3
611.199188E-3
613.078308E-3
613.937759E-3
615.862656E-3
617.098618E-3
617.735481E-3
618.233299E-3
617.350960E-3
617.516899E-3
616.472054E-3
615.886688E-3
615.525055E-3
615.225792E-3
616.211128E-3
616.077232E-3
616.968155E-3
617.800713E-3
618.686485E-3
620.530128E-3
621.196175E-3
622.376060E-3
623.765945E-3
624.562454E-3
626.298523E-3
626.678467E-3
627.704430E-3
628.539848E-3
628.627396E-3
629.704857E-3
629.557800E-3
630.037308E-3
630.719376E-3
630.615807E-3
631.198883E-3
630.769730E-3
631.127357E-3
631.545067E-3
630.945969E-3
631.662369E-3
631.367111E-3
631.795692E-3
631.783104E-3
631.476974E-3
632.404518E-3
632.189369E-3
632.327843E-3
633.133507E-3
632.925224E-3
634.128571E-3
634.037590E-3
634.794044E-3
635.536766E-3
635.574532E-3
636.335564E-3
636.095810E-3
636.374474E-3
637.332916E-3
637.213326E-3
638.008690E-3
637.631607E-3
638.111115E-3
638.845825E-3
638.849258E-3
639.713860E-3
639.468956E-3
640.243721E-3
640.913200E-3
641.019630E-3
642.133141E-3
641.815567E-3
642.382622E-3
642.914200E-3
642.479324E-3
643.262672E-3
642.766571E-3
642.123413E-3
640.460014E-3
636.323547E-3
631.808281E-3
624.661446E-3
617.354393E-3
610.729408E-3
604.167366E-3
600.520134E-3
597.291183E-3
597.090912E-3
598.699951E-3
600.532722E-3
603.974533E-3
606.624413E-3
609.680557E-3
612.904930E-3
614.709663E-3
616.847992E-3
617.657089E-3
618.340874E-3
618.691635E-3
617.962074E-3
618.264198E-3
617.201042E-3
617.246819E-3
618.140602E-3
618.996620E-3
620.726967E-3
621.746635E-3
623.123932E-3
623.667526E-3
622.897911E-3
623.008347E-3
621.531487E-3
620.551872E-3
619.702148E-3
618.390083E-3
618.263626E-3
617.480850E-3
618.008423E-3
618.968582E-3
619.943047E-3
621.500015E-3
622.377777E-3
623.340797E-3
625.205040E-3
625.990677E-3
627.372551E-3
628.214264E-3
629.569817E-3
630.837822E-3
631.337929E-3
632.255173E-3
632.230568E-3
632.882881E-3
633.712006E-3
633.172989E-3
634.069061E-3
633.650208E-3
634.084511E-3
634.172058E-3
633.860779E-3
634.237289E-3
633.600426E-3
633.971786E-3
634.162331E-3
633.667374E-3
634.026146E-3
633.586121E-3
633.752060E-3
634.373474E-3
633.998108E-3
634.513092E-3
634.146881E-3
634.556007E-3
635.507584E-3
635.572815E-3
636.205101E-3
636.042595E-3
636.435127E-3
636.655998E-3
636.749840E-3
637.890816E-3
637.808418E-3
638.754272E-3
639.811707E-3
639.942169E-3
640.910912E-3
640.894318E-3
641.702843E-3
641.929436E-3
641.345215E-3
641.604424E-3
641.339493E-3
640.546417E-3
638.619232E-3
634.477615E-3
629.834175E-3
623.101044E-3
615.917587E-3
609.367561E-3
602.849007E-3
599.193764E-3
596.479797E-3
596.045494E-3
597.564125E-3
599.144554E-3
602.418709E-3
605.149269E-3
608.461761E-3
611.485863E-3
613.017082E-3
615.432358E-3
616.444016E-3
616.940117E-3
617.808723E-3
616.789627E-3
617.021370E-3
616.334152E-3
616.715240E-3
617.852783E-3
618.743706E-3
620.780754E-3
621.401596E-3
622.335434E-3
622.919083E-3
621.881676E-3
621.752930E-3
620.062065E-3
619.022942E-3
618.268776E-3
616.906357E-3
616.641426E-3
616.219139E-3
616.700363E-3
618.042755E-3
618.679619E-3
620.292091E-3
621.572113E-3
623.141098E-3
624.822807E-3
625.536346E-3
627.083015E-3
627.742767E-3
628.708649E-3
629.752350E-3
630.111694E-3
631.028938E-3
631.337357E-3
631.642914E-3
632.258034E-3
632.445717E-3
633.160973E-3
632.780457E-3
632.703209E-3
633.225632E-3
632.591629E-3
633.031082E-3
632.699776E-3
632.861137E-3
632.966995E-3
632.307816E-3
633.190155E-3
632.951546E-3
632.644844E-3
633.752632E-3
633.401299E-3
634.352875E-3
634.289932E-3
634.593201E-3
635.369110E-3
635.171127E-3
636.062622E-3
635.853195E-3
636.548424E-3
636.973000E-3
636.517525E-3
637.560654E-3
637.649345E-3
638.066483E-3
638.908768E-3
638.581467E-3
639.842033E-3
640.103531E-3
640.885162E-3
641.655350E-3
641.505432E-3
642.484474E-3
642.110825E-3
642.315102E-3
642.461586E-3
641.368103E-3
639.953613E-3
635.897255E-3
630.605507E-3
624.156189E-3
616.185951E-3
608.699799E-3
601.324081E-3
596.408844E-3
593.420219E-3
591.693878E-3
592.675209E-3
593.990707E-3
596.475220E-3
599.847221E-3
602.289391E-3
605.498314E-3
607.505035E-3
609.134102E-3
610.732841E-3
610.590363E-3
610.965729E-3
610.633278E-3
609.678268E-3
609.516907E-3
608.588219E-3
608.837700E-3
609.363556E-3
610.481071E-3
612.394524E-3
613.811874E-3
615.812874E-3
616.601944E-3
616.945267E-3
617.267990E-3
616.496658E-3
616.007996E-3
615.310478E-3
614.792633E-3
614.701653E-3
613.985825E-3
614.944267E-3
615.047264E-3
615.490150E-3
617.324066E-3
617.571831E-3
619.642067E-3
620.528984E-3
621.998405E-3
623.497581E-3
623.842049E-3
625.214767E-3
625.531197E-3
626.545715E-3
627.461815E-3
627.749062E-3
628.693771E-3
629.035378E-3
629.320335E-3
630.068207E-3
629.666519E-3
630.600357E-3
630.226707E-3
630.041313E-3
630.757141E-3
630.338860E-3
630.487633E-3
630.816078E-3
630.837250E-3
631.135368E-3
630.653572E-3
631.168556E-3
631.254959E-3
631.527901E-3
632.179642E-3
631.899834E-3
632.946968E-3
633.063698E-3
633.483124E-3
634.413528E-3
634.372330E-3
635.042953E-3
635.492134E-3
635.448074E-3
636.241722E-3
635.829735E-3
636.355591E-3
636.301231E-3
636.913490E-3
