Notes :


2023-12-11 ¿ÀÈÄ 10:31:15
Volts
Ch : LED 2,
505.166817E-3
505.563354E-3
506.126404E-3
506.388474E-3
506.827927E-3
507.404137E-3
507.562637E-3
507.631874E-3
507.868767E-3
507.831573E-3
508.262444E-3
508.200645E-3
508.788872E-3
508.668137E-3
508.914757E-3
509.149933E-3
508.917046E-3
509.010887E-3
508.992004E-3
509.330177E-3
509.393692E-3
509.437180E-3
509.702682E-3
509.816551E-3
510.070610E-3
510.394478E-3
510.295486E-3
510.758400E-3
511.168671E-3
511.410141E-3
511.707115E-3
511.826134E-3
512.566566E-3
512.841225E-3
513.244057E-3
514.006233E-3
514.156723E-3
514.581871E-3
515.183830E-3
515.374947E-3
515.777779E-3
515.714836E-3
515.690231E-3
515.229034E-3
513.840294E-3
511.283684E-3
506.894302E-3
502.138138E-3
496.729660E-3
491.611290E-3
487.450790E-3
484.019852E-3
482.323265E-3
481.710434E-3
482.076645E-3
483.302879E-3
484.700203E-3
486.800766E-3
488.570595E-3
490.580750E-3
492.268181E-3
493.381691E-3
494.369316E-3
494.756126E-3
495.059967E-3
495.259666E-3
494.994736E-3
495.225334E-3
495.247078E-3
495.666504E-3
496.802902E-3
497.838593E-3
499.166107E-3
499.991226E-3
500.293922E-3
500.875282E-3
500.517082E-3
500.113106E-3
499.632454E-3
498.866272E-3
498.546982E-3
498.085213E-3
498.461723E-3
498.383904E-3
498.694038E-3
499.463081E-3
500.056458E-3
501.154518E-3
501.869774E-3
502.517509E-3
503.466225E-3
504.183197E-3
505.222893E-3
505.712700E-3
506.331253E-3
507.110023E-3
507.234764E-3
508.028412E-3
508.311653E-3
508.619499E-3
508.838081E-3
508.737373E-3
509.380531E-3
509.775352E-3
509.607697E-3
509.736443E-3
509.767914E-3
509.968185E-3
510.134697E-3
510.222816E-3
510.765839E-3
510.595894E-3
510.928345E-3
511.091995E-3
510.845947E-3
511.172104E-3
511.069107E-3
511.602402E-3
511.659622E-3
511.890221E-3
511.990356E-3
512.030983E-3
512.539673E-3
512.695885E-3
513.075829E-3
513.518143E-3
513.794518E-3
514.495468E-3
514.708900E-3
515.154076E-3
515.778923E-3
515.824127E-3
516.276741E-3
516.374016E-3
516.602898E-3
516.897011E-3
516.315651E-3
515.896225E-3
514.050293E-3
510.807610E-3
506.978416E-3
501.937866E-3
497.196579E-3
492.830658E-3
489.371109E-3
487.299156E-3
485.908127E-3
486.236000E-3
487.320900E-3
488.584328E-3
490.745544E-3
492.581749E-3
494.523239E-3
496.438980E-3
497.840309E-3
499.017334E-3
499.957466E-3
500.290489E-3
500.358009E-3
500.600052E-3
501.109314E-3
501.588821E-3
502.617645E-3
503.473091E-3
504.350281E-3
505.220032E-3
505.414009E-3
505.406570E-3
504.629517E-3
503.849030E-3
502.963257E-3
501.756477E-3
500.953102E-3
500.441551E-3
500.207520E-3
500.304794E-3
500.309372E-3
500.927925E-3
501.840019E-3
502.721786E-3
503.823853E-3
504.607773E-3
505.727577E-3
506.331253E-3
506.988144E-3
507.911682E-3
508.331680E-3
508.941078E-3
509.432602E-3
509.675789E-3
510.371017E-3
510.474586E-3
510.822487E-3
510.979271E-3
511.054230E-3
511.282539E-3
511.275673E-3
511.608696E-3
511.569786E-3
511.489677E-3
511.688232E-3
511.652184E-3
511.839294E-3
511.694527E-3
511.591530E-3
511.889076E-3
511.676216E-3
511.713982E-3
511.922264E-3
511.858177E-3
512.183762E-3
512.382317E-3
512.749672E-3
512.974548E-3
513.121605E-3
513.498116E-3
513.772774E-3
514.272308E-3
514.637375E-3
515.222740E-3
516.143990E-3
516.372871E-3
517.090988E-3
517.371368E-3
517.468643E-3
517.592812E-3
517.160225E-3
516.696167E-3
514.767265E-3
511.643600E-3
507.654762E-3
502.350998E-3
497.288132E-3
492.491341E-3
488.364601E-3
485.569954E-3
484.140587E-3
483.703423E-3
484.421539E-3
485.610008E-3
487.611008E-3
489.398575E-3
491.612434E-3
493.327904E-3
494.623375E-3
495.854187E-3
496.444702E-3
497.315598E-3
497.630882E-3
497.414589E-3
497.479820E-3
497.458649E-3
497.842026E-3
498.649406E-3
499.452782E-3
500.911331E-3
501.984215E-3
502.868271E-3
503.488541E-3
503.054810E-3
502.938080E-3
502.083206E-3
501.506996E-3
501.176834E-3
500.437546E-3
500.357437E-3
500.148582E-3
500.343704E-3
500.741959E-3
501.381683E-3
502.416801E-3
503.127480E-3
504.005814E-3
504.647827E-3
505.449486E-3
506.358719E-3
506.989861E-3
507.676506E-3
508.412933E-3
508.962250E-3
509.860611E-3
510.189629E-3
510.466576E-3
510.852814E-3
510.871124E-3
511.142921E-3
511.326027E-3
511.379814E-3
511.388397E-3
511.607552E-3
512.024689E-3
512.006378E-3
512.136269E-3
512.297058E-3
512.260437E-3
512.504196E-3
512.460709E-3
512.433815E-3
512.727356E-3
512.810326E-3
513.229179E-3
513.031769E-3
513.657761E-3
513.688087E-3
513.843155E-3
514.342690E-3
514.422798E-3
514.568138E-3
514.851952E-3
515.201569E-3
515.563774E-3
515.663910E-3
515.928841E-3
516.278458E-3
516.418076E-3
517.100716E-3
517.345047E-3
517.918968E-3
518.348122E-3
518.686295E-3
519.308281E-3
519.228172E-3
519.104576E-3
518.442535E-3
516.803169E-3
514.251709E-3
510.147285E-3
505.321312E-3
499.837303E-3
494.266319E-3
490.006828E-3
486.494064E-3
484.767723E-3
484.132576E-3
484.447289E-3
486.019707E-3
487.561798E-3
489.529610E-3
491.357803E-3
493.008041E-3
494.787598E-3
495.868492E-3
497.125626E-3
497.623444E-3
497.600555E-3
497.949028E-3
497.804832E-3
497.985649E-3
498.166466E-3
498.418808E-3
499.589539E-3
500.486183E-3
501.666069E-3
502.701187E-3
503.435326E-3
503.984070E-3
503.731155E-3
503.546333E-3
503.137207E-3
502.312660E-3
502.031136E-3
501.454926E-3
501.326180E-3
501.706696E-3
501.848602E-3
502.413940E-3
503.065681E-3
504.039001E-3
504.996300E-3
505.574226E-3
506.501198E-3
507.120323E-3
507.904243E-3
508.545113E-3
509.155083E-3
510.066605E-3
510.357857E-3
510.941505E-3
511.447334E-3
511.618423E-3
512.025833E-3
512.197495E-3
512.381172E-3
512.742233E-3
512.678146E-3
512.938499E-3
512.843513E-3
512.935066E-3
513.304710E-3
513.333321E-3
513.593674E-3
513.648033E-3
513.579369E-3
513.878059E-3
513.799095E-3
514.456558E-3
514.439964E-3
514.470863E-3
514.785004E-3
514.986420E-3
515.477371E-3
515.467644E-3
515.602112E-3
515.942001E-3
516.237831E-3
516.706467E-3
516.549683E-3
517.105293E-3
517.627716E-3
517.711830E-3
518.434525E-3
518.414497E-3
518.867111E-3
519.374657E-3
519.462776E-3
520.038986E-3
520.147705E-3
520.227814E-3
520.221519E-3
519.997787E-3
519.857597E-3
518.650818E-3
516.276741E-3
512.534523E-3
507.832146E-3
503.087997E-3
497.891808E-3
493.933868E-3
490.946388E-3
488.915062E-3
488.693047E-3
489.184570E-3
490.577888E-3
492.434120E-3
494.330406E-3
496.635246E-3
498.216248E-3
500.051880E-3
501.519585E-3
502.239418E-3
503.156662E-3
503.249359E-3
503.445625E-3
503.532600E-3
503.805542E-3
504.444122E-3
505.475807E-3
506.635094E-3
507.765198E-3
508.378029E-3
508.580589E-3
508.114243E-3
507.321167E-3
506.511497E-3
505.379105E-3
504.532242E-3
503.706551E-3
503.074837E-3
503.287697E-3
503.172684E-3
503.751755E-3
504.105377E-3
505.232620E-3
506.081200E-3
506.608772E-3
507.546043E-3
508.431816E-3
509.187126E-3
510.049438E-3
510.537529E-3
511.367798E-3
511.861610E-3
512.752533E-3
512.987709E-3
513.521576E-3
513.576508E-3
513.512993E-3
513.829994E-3
514.175034E-3
514.089775E-3
514.490318E-3
514.418221E-3
514.513779E-3
514.865685E-3
514.776421E-3
514.999580E-3
514.862823E-3
515.000725E-3
515.172386E-3
514.869690E-3
515.131187E-3
515.282249E-3
515.322876E-3
515.750313E-3
515.603256E-3
515.948296E-3
515.877342E-3
516.158295E-3
516.686440E-3
516.831207E-3
517.227173E-3
517.454910E-3
517.921257E-3
518.293190E-3
518.428230E-3
518.975830E-3
519.382095E-3
519.994926E-3
520.730209E-3
520.757675E-3
521.187401E-3
521.193123E-3
520.944214E-3
520.676422E-3
518.761253E-3
516.097641E-3
512.259293E-3
507.522583E-3
502.432823E-3
497.234344E-3
493.088722E-3
489.958191E-3
488.260460E-3
487.750053E-3
487.774086E-3
488.999748E-3
490.439415E-3
492.606354E-3
494.552994E-3
496.052742E-3
497.995949E-3
499.472237E-3
500.392914E-3
501.369095E-3
501.374245E-3
501.576805E-3
501.493263E-3
501.452637E-3
502.008820E-3
502.508354E-3
503.568077E-3
504.859543E-3
505.960464E-3
506.881714E-3
506.981277E-3
507.247925E-3
506.794167E-3
506.037140E-3
505.519867E-3
504.527664E-3
504.275894E-3
503.939438E-3
503.951454E-3
504.127693E-3
504.236984E-3
504.999161E-3
505.824280E-3
506.399345E-3
507.697105E-3
508.319664E-3
509.337044E-3
509.833717E-3
510.589600E-3
511.434174E-3
512.064743E-3
512.797737E-3
513.415146E-3
513.950729E-3
514.660263E-3
514.627075E-3
514.893723E-3
514.706612E-3
514.894295E-3
515.278816E-3
515.105438E-3
515.587234E-3
515.798378E-3
515.733719E-3
515.953445E-3
515.832138E-3
515.912247E-3
516.075325E-3
515.994072E-3
516.221237E-3
516.284752E-3
516.489601E-3
516.602325E-3
516.668129E-3
517.241478E-3
517.224312E-3
517.741013E-3
517.730713E-3
517.844009E-3
518.453979E-3
518.346977E-3
518.793869E-3
519.067955E-3
519.174957E-3
519.622421E-3
520.011520E-3
520.355415E-3
520.678711E-3
520.806313E-3
521.294403E-3
521.565056E-3
522.229385E-3
522.636795E-3
522.843933E-3
522.960663E-3
522.639084E-3
522.209358E-3
520.831490E-3
518.005371E-3
514.028549E-3
508.670425E-3
503.367805E-3
498.093224E-3
493.430328E-3
490.417671E-3
488.248444E-3
487.910271E-3
488.212967E-3
489.452934E-3
491.511726E-3
493.089867E-3
495.264244E-3
497.043228E-3
498.798180E-3
500.094223E-3
500.817490E-3
501.294708E-3
501.639748E-3
501.607132E-3
501.766777E-3
501.613426E-3
501.792526E-3
502.261162E-3
502.960396E-3
504.068184E-3
505.129051E-3
506.518364E-3
507.152367E-3
507.388115E-3
507.319450E-3
506.556129E-3
506.295776E-3
505.856323E-3
505.347061E-3
505.308151E-3
504.986572E-3
505.198860E-3
505.625725E-3
506.030273E-3
506.740952E-3
507.437897E-3
508.370018E-3
509.244347E-3
509.926987E-3
510.926056E-3
511.347198E-3
512.261009E-3
512.925911E-3
513.494110E-3
514.137840E-3
514.477730E-3
514.809608E-3
515.522003E-3
515.728569E-3
515.947723E-3
515.994072E-3
516.115952E-3
516.447830E-3
516.460419E-3
516.761971E-3
516.758537E-3
517.027473E-3
517.283249E-3
517.274094E-3
517.491531E-3
517.188263E-3
517.521286E-3
517.864037E-3
517.925262E-3
518.205643E-3
518.219948E-3
518.433952E-3
518.795586E-3
518.992424E-3
519.619560E-3
519.613838E-3
519.826126E-3
519.973755E-3
520.333099E-3
520.857811E-3
520.931625E-3
521.412277E-3
521.563911E-3
521.906090E-3
522.179031E-3
522.150993E-3
522.750664E-3
523.479652E-3
523.766327E-3
524.234390E-3
524.155998E-3
524.442673E-3
524.336243E-3
524.135399E-3
523.980331E-3
522.398186E-3
519.899368E-3
516.106224E-3
511.443329E-3
506.765556E-3
501.909828E-3
497.910118E-3
495.332909E-3
493.532181E-3
493.523026E-3
493.783379E-3
495.344925E-3
497.224045E-3
498.971558E-3
501.117897E-3
503.144073E-3
504.755402E-3
505.855179E-3
506.617928E-3
507.490540E-3
507.602692E-3
508.054161E-3
508.208084E-3
508.284187E-3
509.193420E-3
509.689522E-3
511.077690E-3
512.001228E-3
512.396049E-3
512.834358E-3
512.326813E-3
511.798668E-3
511.016464E-3
509.705544E-3
509.140778E-3
508.222389E-3
507.780075E-3
507.729721E-3
507.627869E-3
508.333969E-3
508.639526E-3
509.228325E-3
510.400772E-3
511.208153E-3
512.458420E-3
513.226318E-3
514.013672E-3
514.830208E-3
515.320015E-3
516.186333E-3
516.310501E-3
516.859245E-3
517.369652E-3
517.370796E-3
517.808533E-3
517.791939E-3
517.950439E-3
518.102074E-3
518.205070E-3
518.472290E-3
518.393326E-3
518.734932E-3
518.629074E-3
518.450546E-3
518.847656E-3
518.638229E-3
518.753815E-3
518.932343E-3
518.860245E-3
518.992424E-3
519.067955E-3
519.153786E-3
519.268227E-3
519.439888E-3
519.639015E-3
519.466209E-3
519.782639E-3
520.138550E-3
520.214653E-3
520.780563E-3
521.101570E-3
521.567917E-3
522.003365E-3
522.178459E-3
522.915459E-3
523.392105E-3
523.638153E-3
523.971176E-3
523.852730E-3
524.363708E-3
523.908806E-3
523.727417E-3
522.890854E-3
520.743370E-3
517.446327E-3
512.886429E-3
508.001518E-3
503.113747E-3
498.526382E-3
495.343781E-3
492.782021E-3
491.773224E-3
491.796684E-3
492.496490E-3
494.195366E-3
495.753479E-3
497.970772E-3
499.741745E-3
501.203728E-3
502.741814E-3
503.703117E-3
504.371452E-3
504.998589E-3
505.317307E-3
505.772781E-3
505.581093E-3
506.031418E-3
506.631088E-3
507.333755E-3
508.597183E-3
509.490395E-3
510.508347E-3
511.105156E-3
510.960960E-3
510.637093E-3
509.901237E-3
509.149933E-3
508.715630E-3
507.963181E-3
507.602692E-3
507.332039E-3
507.173538E-3
507.761765E-3
508.034706E-3
509.224892E-3
509.657478E-3
510.562706E-3
511.683083E-3
512.315941E-3
513.114166E-3
513.902092E-3
514.595032E-3
515.528297E-3
515.941429E-3
516.583443E-3
516.723633E-3
517.132187E-3
517.662048E-3
517.497826E-3
517.872620E-3
517.927551E-3
518.167305E-3
518.538666E-3
518.451691E-3
518.766975E-3
518.707466E-3
518.784142E-3
518.988419E-3
518.824768E-3
519.167519E-3
519.121170E-3
519.184685E-3
519.332314E-3
519.253349E-3
519.712830E-3
519.674492E-3
519.916534E-3
520.323372E-3
520.239830E-3
520.714760E-3
520.677567E-3
520.854378E-3
521.317863E-3
521.381378E-3
521.904945E-3
522.382164E-3
522.715187E-3
523.165512E-3
523.271942E-3
523.782349E-3
524.013519E-3
524.319649E-3
524.955368E-3
525.177383E-3
525.820541E-3
525.866318E-3
525.846291E-3
525.390244E-3
523.874474E-3
521.427155E-3
517.640305E-3
512.767982E-3
507.430458E-3
501.975060E-3
497.927284E-3
494.290352E-3
491.938591E-3
491.431046E-3
491.425896E-3
492.707634E-3
493.965912E-3
495.517731E-3
497.788239E-3
499.387550E-3
501.138496E-3
502.268028E-3
503.489113E-3
504.281616E-3
504.300499E-3
504.577446E-3
504.345703E-3
504.151726E-3
504.536819E-3
504.521370E-3
505.490112E-3
506.504059E-3
507.792664E-3
509.033203E-3
509.247780E-3
510.072899E-3
510.016251E-3
509.602547E-3
509.369087E-3
508.645821E-3
508.474731E-3
508.011818E-3
507.841301E-3
507.987213E-3
508.090782E-3
508.775139E-3
509.420586E-3
510.044861E-3
510.951233E-3
511.392975E-3
512.313652E-3
513.146210E-3
513.839722E-3
514.862251E-3
515.202141E-3
515.855026E-3
516.341972E-3
516.816902E-3
517.436600E-3
517.662621E-3
518.234253E-3
518.469429E-3
518.635368E-3
518.689156E-3
518.634224E-3
518.857956E-3
518.688583E-3
519.069099E-3
519.453049E-3
519.190979E-3
519.304276E-3
519.481087E-3
519.347191E-3
519.538307E-3
519.307709E-3
519.656181E-3
519.924545E-3
520.445251E-3
520.570564E-3
520.582008E-3
521.130180E-3
521.234322E-3
521.400833E-3
521.789360E-3
521.797943E-3
522.337532E-3
522.587013E-3
522.806168E-3
523.153496E-3
523.356056E-3
523.732567E-3
523.946571E-3
524.258995E-3
524.794006E-3
525.059509E-3
525.513268E-3
525.516129E-3
525.753021E-3
526.133537E-3
525.913239E-3
525.967598E-3
524.755669E-3
522.397614E-3
519.097137E-3
514.761543E-3
510.005379E-3
505.408859E-3
501.341057E-3
498.360443E-3
496.013832E-3
495.335197E-3
495.611000E-3
496.614647E-3
498.255730E-3
500.100517E-3
502.417374E-3
504.199791E-3
505.687523E-3
507.170677E-3
508.129120E-3
509.098434E-3
509.226608E-3
509.104729E-3
509.549332E-3
509.497833E-3
510.229683E-3
510.895729E-3
512.041283E-3
513.250923E-3
513.650894E-3
514.260292E-3
