Notes :


2023-12-11 ¿ÀÈÄ 10:29:52
Volts
Ch : LED 2,
452.898788E-3
453.684425E-3
454.968452E-3
455.828476E-3
456.639862E-3
457.224655E-3
457.428360E-3
457.883835E-3
458.096123E-3
458.089256E-3
458.591080E-3
458.609390E-3
458.886909E-3
458.996773E-3
458.904648E-3
458.888626E-3
458.742714E-3
459.229088E-3
459.035683E-3
459.167290E-3
459.310341E-3
459.257698E-3
459.162712E-3
459.322929E-3
459.363556E-3
459.607887E-3
459.383011E-3
459.832191E-3
459.989548E-3
460.022163E-3
460.312271E-3
460.387230E-3
461.008644E-3
461.476707E-3
461.817169E-3
462.190247E-3
462.371635E-3
463.008499E-3
463.153839E-3
464.010429E-3
464.630699E-3
464.893913E-3
465.319633E-3
465.225792E-3
465.238953E-3
465.024376E-3
463.411903E-3
461.109352E-3
457.260132E-3
452.363205E-3
447.168159E-3
441.209221E-3
436.361504E-3
432.235909E-3
429.716492E-3
428.505707E-3
428.148079E-3
429.228401E-3
430.717850E-3
432.443047E-3
434.529877E-3
436.318016E-3
438.141060E-3
439.539528E-3
440.485382E-3
441.117096E-3
441.310501E-3
441.471291E-3
441.557121E-3
441.422081E-3
441.799736E-3
442.069817E-3
443.157578E-3
444.370651E-3
445.606613E-3
446.985054E-3
447.613335E-3
448.079681E-3
447.820473E-3
447.315788E-3
446.983337E-3
446.155930E-3
445.877266E-3
445.588303E-3
445.210648E-3
445.500755E-3
445.480156E-3
445.963097E-3
446.821404E-3
447.347260E-3
448.433304E-3
449.316788E-3
450.647163E-3
451.313210E-3
452.129173E-3
453.232384E-3
453.878975E-3
454.528427E-3
455.144119E-3
455.547523E-3
456.126022E-3
456.096268E-3
456.503677E-3
457.065582E-3
457.160568E-3
457.669830E-3
457.502747E-3
457.682419E-3
457.737923E-3
457.909012E-3
458.121872E-3
458.192253E-3
458.399391E-3
458.608818E-3
458.435440E-3
458.537865E-3
458.682632E-3
459.206772E-3
459.370422E-3
459.333229E-3
459.634209E-3
459.797287E-3
460.154915E-3
460.485649E-3
460.551453E-3
460.907364E-3
460.971451E-3
461.262703E-3
461.445808E-3
462.026024E-3
462.777328E-3
462.629700E-3
463.173294E-3
463.707161E-3
464.137459E-3
465.108490E-3
465.115929E-3
465.529060E-3
465.525627E-3
465.633202E-3
465.472984E-3
464.366913E-3
462.305260E-3
458.987045E-3
454.375076E-3
449.201202E-3
443.478584E-3
438.542175E-3
434.350204E-3
431.435966E-3
429.922485E-3
429.378891E-3
430.234337E-3
431.727791E-3
433.464432E-3
435.811615E-3
437.515068E-3
439.746666E-3
441.420364E-3
442.214584E-3
443.184471E-3
443.415070E-3
444.027901E-3
444.001579E-3
443.814468E-3
444.130325E-3
444.487381E-3
445.640945E-3
446.890640E-3
447.973824E-3
449.111938E-3
449.642944E-3
449.909592E-3
449.990845E-3
449.515915E-3
448.700523E-3
447.865677E-3
447.577286E-3
447.152710E-3
447.060013E-3
447.279167E-3
447.550964E-3
448.270226E-3
448.892212E-3
449.666405E-3
450.729561E-3
451.514626E-3
452.610397E-3
453.499031E-3
454.293823E-3
455.254555E-3
455.630493E-3
456.491089E-3
456.712532E-3
457.202339E-3
457.846642E-3
458.199120E-3
458.690643E-3
459.061432E-3
459.144402E-3
459.666824E-3
459.492874E-3
459.421349E-3
459.496880E-3
459.610748E-3
460.022736E-3
459.993553E-3
460.294533E-3
460.231018E-3
460.228157E-3
460.627556E-3
460.461617E-3
460.779190E-3
460.648727E-3
460.521126E-3
460.991478E-3
460.991478E-3
461.397743E-3
461.611748E-3
462.083244E-3
462.592506E-3
462.805367E-3
463.402176E-3
463.913727E-3
464.303970E-3
464.881897E-3
465.239525E-3
465.632629E-3
466.030884E-3
466.481781E-3
466.859436E-3
466.765594E-3
467.068291E-3
466.913223E-3
466.392517E-3
464.698219E-3
461.671257E-3
457.724190E-3
452.891922E-3
447.544098E-3
442.972755E-3
439.084625E-3
436.594391E-3
435.166740E-3
434.693527E-3
435.684586E-3
437.133980E-3
439.137268E-3
441.158867E-3
443.340111E-3
445.428658E-3
446.862030E-3
448.195839E-3
449.175453E-3
449.806595E-3
450.452042E-3
450.785065E-3
451.202774E-3
451.936340E-3
452.782059E-3
454.175949E-3
455.015945E-3
455.878258E-3
456.133461E-3
455.765533E-3
455.203629E-3
454.024887E-3
453.047562E-3
452.005005E-3
451.102638E-3
450.444603E-3
449.884987E-3
450.170517E-3
450.383949E-3
450.956154E-3
451.935768E-3
452.541733E-3
453.699303E-3
454.573059E-3
455.843925E-3
456.934547E-3
457.782555E-3
458.684921E-3
459.489441E-3
460.083389E-3
460.689354E-3
461.218071E-3
461.591148E-3
461.819458E-3
462.188530E-3
462.500954E-3
462.594223E-3
462.717247E-3
462.904930E-3
462.978745E-3
463.158417E-3
462.795639E-3
463.170433E-3
462.972450E-3
463.084602E-3
463.481712E-3
463.326645E-3
463.529778E-3
463.446808E-3
463.414764E-3
463.602448E-3
463.469124E-3
463.759804E-3
464.207840E-3
464.331436E-3
464.658737E-3
464.999771E-3
465.513611E-3
465.961647E-3
466.253471E-3
466.995621E-3
467.197037E-3
467.928314E-3
468.616676E-3
468.944550E-3
469.394875E-3
469.108772E-3
469.014931E-3
468.400955E-3
466.526413E-3
463.474274E-3
459.048271E-3
454.189682E-3
448.706245E-3
443.336105E-3
438.984489E-3
435.554695E-3
433.697891E-3
433.246994E-3
433.532524E-3
434.906960E-3
436.478233E-3
438.495255E-3
440.683937E-3
442.512131E-3
444.227600E-3
445.285034E-3
446.693802E-3
447.273445E-3
447.473145E-3
447.802734E-3
447.668266E-3
447.769547E-3
448.572922E-3
449.305344E-3
450.571060E-3
451.722336E-3
452.914238E-3
453.828049E-3
453.790283E-3
453.968239E-3
453.361702E-3
452.647591E-3
451.938057E-3
451.155853E-3
451.024818E-3
450.556755E-3
450.494957E-3
450.695801E-3
451.173592E-3
451.791573E-3
452.539444E-3
453.461266E-3
454.471207E-3
455.303764E-3
456.301117E-3
457.003212E-3
458.010864E-3
458.926964E-3
459.555244E-3
460.195541E-3
460.518265E-3
460.951424E-3
461.408615E-3
461.815453E-3
462.252045E-3
462.431717E-3
462.615395E-3
462.862015E-3
462.970734E-3
463.310051E-3
463.259125E-3
463.456535E-3
463.600731E-3
463.369560E-3
463.658524E-3
463.669968E-3
463.611031E-3
463.654518E-3
463.712883E-3
464.283943E-3
464.221001E-3
464.319992E-3
464.502525E-3
464.452171E-3
465.184021E-3
465.144539E-3
465.470695E-3
465.775108E-3
465.958214E-3
466.498947E-3
466.885757E-3
467.320061E-3
467.912865E-3
468.115997E-3
468.724251E-3
469.311333E-3
469.564819E-3
470.015717E-3
470.043755E-3
470.170784E-3
469.563103E-3
468.200684E-3
465.250969E-3
461.009216E-3
456.174660E-3
450.453186E-3
444.993782E-3
440.080833E-3
436.400986E-3
434.306145E-3
433.240700E-3
433.626938E-3
434.771347E-3
436.126328E-3
438.447762E-3
440.567207E-3
442.339897E-3
444.362640E-3
445.631218E-3
446.835709E-3
447.488022E-3
447.784424E-3
447.853088E-3
447.803879E-3
448.064804E-3
448.229027E-3
448.968315E-3
450.086975E-3
451.201057E-3
452.788353E-3
453.681564E-3
454.316711E-3
454.551888E-3
454.102135E-3
453.664970E-3
452.839279E-3
452.285957E-3
451.882553E-3
451.378441E-3
451.408768E-3
451.433945E-3
451.923180E-3
452.471352E-3
452.984619E-3
453.995132E-3
455.038261E-3
455.997276E-3
456.825256E-3
457.638931E-3
458.814812E-3
459.472847E-3
460.304260E-3
461.036110E-3
461.555099E-3
462.294388E-3
462.534142E-3
462.807655E-3
463.109779E-3
463.472557E-3
463.900566E-3
463.877678E-3
464.111137E-3
464.140892E-3
463.894272E-3
464.132309E-3
464.202690E-3
464.453316E-3
464.575195E-3
464.547157E-3
464.817810E-3
464.526558E-3
464.782333E-3
464.913940E-3
464.837265E-3
465.321350E-3
465.270996E-3
465.565681E-3
465.796280E-3
465.927315E-3
466.504097E-3
466.721535E-3
467.195320E-3
467.580986E-3
467.801857E-3
468.617821E-3
468.929672E-3
469.136810E-3
469.632339E-3
470.038033E-3
470.674896E-3
470.835114E-3
471.364403E-3
471.462822E-3
471.276855E-3
471.440506E-3
470.693207E-3
469.014359E-3
466.417694E-3
462.142754E-3
457.208061E-3
451.751518E-3
446.715546E-3
442.434311E-3
439.426804E-3
437.970543E-3
437.354851E-3
438.437462E-3
439.867973E-3
441.585159E-3
443.930626E-3
446.089554E-3
448.283958E-3
450.015450E-3
451.525497E-3
452.474785E-3
453.182602E-3
453.604317E-3
453.992271E-3
454.179955E-3
454.696083E-3
455.373573E-3
456.472206E-3
457.783699E-3
458.443451E-3
459.108353E-3
459.083176E-3
458.501244E-3
457.852936E-3
456.685638E-3
455.753517E-3
454.765892E-3
453.965950E-3
453.572845E-3
453.434372E-3
453.840065E-3
454.100990E-3
454.475212E-3
455.767250E-3
456.671333E-3
457.882118E-3
458.762741E-3
459.910011E-3
460.901642E-3
461.551666E-3
462.530708E-3
463.026810E-3
463.864517E-3
464.272499E-3
464.509392E-3
464.911652E-3
465.188599E-3
465.547371E-3
465.673256E-3
465.684700E-3
466.051483E-3
465.677261E-3
465.855217E-3
466.102982E-3
465.986824E-3
466.338730E-3
466.282082E-3
466.081810E-3
466.199112E-3
466.133881E-3
466.382217E-3
466.303825E-3
466.411972E-3
466.470337E-3
466.354179E-3
466.949272E-3
466.930962E-3
467.223930E-3
467.662811E-3
467.946625E-3
468.420982E-3
468.773460E-3
469.060707E-3
469.877243E-3
470.214844E-3
471.027946E-3
471.343231E-3
471.540070E-3
472.061920E-3
471.926308E-3
471.779251E-3
470.689774E-3
468.797493E-3
465.818596E-3
461.221504E-3
456.349754E-3
451.161575E-3
446.149635E-3
442.367935E-3
439.387894E-3
437.857246E-3
437.574005E-3
438.103294E-3
439.583588E-3
441.279602E-3
443.488312E-3
445.478439E-3
447.255135E-3
448.803520E-3
450.026894E-3
450.876045E-3
451.261711E-3
451.256561E-3
451.520348E-3
451.534081E-3
452.015877E-3
452.538872E-3
453.547096E-3
454.961014E-3
455.736351E-3
456.863594E-3
457.248688E-3
457.181168E-3
456.915092E-3
455.936050E-3
455.248260E-3
454.141617E-3
453.365707E-3
452.786636E-3
452.522278E-3
453.083611E-3
453.226662E-3
453.662109E-3
454.577065E-3
455.228233E-3
456.568909E-3
457.482147E-3
458.601952E-3
459.597588E-3
460.354042E-3
461.268425E-3
461.882973E-3
462.701225E-3
463.458824E-3
463.634491E-3
464.275360E-3
464.532280E-3
464.750862E-3
465.269279E-3
465.357399E-3
465.716171E-3
465.740776E-3
465.866661E-3
466.157913E-3
466.090393E-3
466.219139E-3
466.247749E-3
466.271210E-3
466.458893E-3
466.193390E-3
466.298103E-3
466.269493E-3
466.490936E-3
466.753578E-3
466.511536E-3
466.987038E-3
467.020798E-3
466.967010E-3
467.315483E-3
467.237663E-3
467.749786E-3
467.971802E-3
468.290520E-3
468.840408E-3
468.974876E-3
469.356537E-3
469.716454E-3
470.127296E-3
470.949554E-3
471.110344E-3
471.564674E-3
471.555519E-3
471.328926E-3
471.263123E-3
470.111275E-3
468.148041E-3
464.459038E-3
459.646797E-3
454.506111E-3
448.540306E-3
443.489456E-3
439.664268E-3
436.797523E-3
435.639954E-3
435.178757E-3
436.223602E-3
437.414360E-3
439.267731E-3
441.578293E-3
443.280029E-3
445.250702E-3
446.597672E-3
448.072815E-3
449.031258E-3
449.434090E-3
449.807167E-3
449.768257E-3
449.962234E-3
449.975967E-3
450.248909E-3
451.297760E-3
452.596664E-3
453.971672E-3
455.779839E-3
456.600952E-3
457.098770E-3
457.062149E-3
456.393814E-3
455.889702E-3
454.992485E-3
454.940414E-3
454.193687E-3
453.985977E-3
454.170227E-3
454.000282E-3
454.430008E-3
454.940987E-3
455.699730E-3
456.746292E-3
457.596016E-3
458.523560E-3
459.336662E-3
460.168076E-3
461.251259E-3
461.475563E-3
462.353897E-3
463.005638E-3
463.564682E-3
463.953781E-3
464.132881E-3
464.480209E-3
464.805794E-3
464.918518E-3
465.336800E-3
464.966583E-3
465.215492E-3
465.447807E-3
465.549088E-3
465.670395E-3
465.775681E-3
466.044044E-3
466.361618E-3
466.373062E-3
466.433716E-3
466.311836E-3
466.513252E-3
466.640854E-3
466.740990E-3
466.939545E-3
466.889191E-3
467.390442E-3
467.761230E-3
468.085098E-3
468.582344E-3
468.495941E-3
468.890762E-3
469.458389E-3
469.765663E-3
470.313263E-3
470.880890E-3
471.794128E-3
471.961784E-3
471.851349E-3
471.979523E-3
471.318054E-3
470.597649E-3
468.535995E-3
465.093613E-3
460.667038E-3
455.371284E-3
450.462341E-3
445.943642E-3
442.211151E-3
439.802170E-3
438.526726E-3
438.734436E-3
439.764404E-3
441.377449E-3
443.439102E-3
445.432091E-3
447.447968E-3
449.128532E-3
450.541878E-3
451.771545E-3
452.301979E-3
453.185463E-3
453.644371E-3
453.709602E-3
453.848076E-3
454.151917E-3
455.074883E-3
456.246758E-3
457.273865E-3
458.594513E-3
459.182167E-3
459.975815E-3
459.927750E-3
459.235954E-3
458.915520E-3
457.925034E-3
457.568550E-3
457.150269E-3
456.877899E-3
456.931114E-3
456.793213E-3
457.610893E-3
458.181953E-3
458.910942E-3
459.844780E-3
460.662460E-3
461.871529E-3
462.896347E-3
463.814163E-3
464.834976E-3
465.703011E-3
466.685486E-3
466.958427E-3
467.498589E-3
468.149757E-3
468.418121E-3
469.248390E-3
469.331932E-3
469.454384E-3
469.821739E-3
469.658661E-3
469.821167E-3
469.928741E-3
469.774818E-3
469.968796E-3
469.737625E-3
469.985390E-3
469.947624E-3
469.820023E-3
469.999695E-3
469.949913E-3
470.291519E-3
470.373344E-3
470.515823E-3
471.128082E-3
471.314621E-3
471.882248E-3
472.303963E-3
472.705078E-3
473.372841E-3
473.815155E-3
474.465752E-3
474.718666E-3
474.682045E-3
474.661446E-3
474.077225E-3
473.002052E-3
470.393944E-3
466.762733E-3
462.502670E-3
457.597160E-3
452.960587E-3
448.740578E-3
445.882416E-3
444.046783E-3
443.141556E-3
443.824196E-3
444.762611E-3
446.522141E-3
448.578072E-3
450.338745E-3
452.106285E-3
453.770828E-3
454.962730E-3
456.088257E-3
456.547165E-3
457.030678E-3
457.253838E-3
457.491875E-3
458.003998E-3
458.775330E-3
460.083389E-3
460.923386E-3
462.191391E-3
463.164711E-3
463.544655E-3
463.809013E-3
463.462257E-3
462.615395E-3
462.107277E-3
461.151695E-3
460.818672E-3
460.428429E-3
460.153770E-3
460.360336E-3
460.641861E-3
461.258698E-3
461.901855E-3
462.586212E-3
463.668823E-3
464.296532E-3
465.533066E-3
466.449738E-3
467.364120E-3
468.526840E-3
468.882751E-3
469.756508E-3
470.289230E-3
470.729828E-3
471.321487E-3
471.347809E-3
471.714592E-3
471.864510E-3
471.929741E-3
472.212410E-3
472.103119E-3
472.170639E-3
472.129440E-3
471.954918E-3
471.862221E-3
471.817017E-3
471.871948E-3
471.980667E-3
471.740913E-3
472.008133E-3
471.830750E-3
472.327995E-3
472.422409E-3
472.806931E-3
473.403168E-3
473.594856E-3
474.125290E-3
474.786186E-3
475.024796E-3
475.576973E-3
475.714874E-3
475.863647E-3
475.990105E-3
475.856209E-3
475.688553E-3
474.157333E-3
471.972656E-3
468.324852E-3
463.859367E-3
459.263420E-3
454.604530E-3
450.783920E-3
447.830200E-3
446.191978E-3
445.733643E-3
445.983124E-3
447.308922E-3
449.139977E-3
450.929260E-3
453.279877E-3
454.922676E-3
456.480789E-3
457.955933E-3
458.677483E-3
459.514618E-3
459.710312E-3
460.173225E-3
460.741997E-3
461.495590E-3
462.950706E-3
463.715744E-3
464.793777E-3
465.367126E-3
465.634346E-3
465.665245E-3
464.698219E-3
463.649940E-3
462.686348E-3
461.531067E-3
460.795212E-3
459.959793E-3
459.808159E-3
460.007858E-3
460.303116E-3
460.905075E-3
461.610031E-3
462.544441E-3
463.358688E-3
464.136887E-3
465.299034E-3
466.022301E-3
467.041969E-3
467.651367E-3
468.360901E-3
469.032097E-3
469.235802E-3
469.733620E-3
469.963646E-3
469.898415E-3
470.531273E-3
470.456314E-3
470.686340E-3
470.790482E-3
470.682907E-3
470.740700E-3
470.363617E-3
470.375633E-3
470.451736E-3
470.133018E-3
470.326424E-3
470.359039E-3
470.242882E-3
470.397377E-3
470.221138E-3
470.767593E-3
