Notes :


2023-12-10 ¿ÀÈÄ 10:04:20
Volts
Ch : LED 2,Ch : LED 3,
430.166817E-3,522.270012E-3
430.738449E-3,522.455406E-3
431.327248E-3,522.621346E-3
431.438828E-3,522.849655E-3
431.941223E-3,523.138046E-3
432.055092E-3,523.037338E-3
432.617569E-3,523.348618E-3
433.051872E-3,523.607254E-3
433.055305E-3,523.780060E-3
433.511353E-3,523.848724E-3
433.657837E-3,523.874474E-3
433.547401E-3,523.659325E-3
433.986855E-3,524.089050E-3
433.600044E-3,523.589516E-3
434.298134E-3,524.094772E-3
434.117317E-3,523.568344E-3
434.186554E-3,523.804665E-3
434.090996E-3,524.194336E-3
433.718491E-3,523.449326E-3
434.015465E-3,523.705673E-3
433.577156E-3,523.817825E-3
433.733368E-3,523.889923E-3
433.902740E-3,523.818398E-3
433.638954E-3,523.794937E-3
433.804321E-3,524.046707E-3
433.681870E-3,523.866463E-3
433.763123E-3,523.814964E-3
434.244347E-3,523.944855E-3
433.988571E-3,523.538589E-3
434.899521E-3,524.320793E-3
434.960175E-3,524.403191E-3
435.451698E-3,524.268150E-3
435.792732E-3,524.775124E-3
435.868263E-3,524.511337E-3
436.599541E-3,524.963951E-3
436.219597E-3,524.732208E-3
435.685730E-3,524.588585E-3
434.282684E-3,524.298477E-3
431.477165E-3,523.076248E-3
428.452492E-3,522.509766E-3
424.415016E-3,521.315002E-3
420.816422E-3,520.178032E-3
417.363167E-3,519.209862E-3
414.661789E-3,517.859459E-3
413.697624E-3,517.552757E-3
413.165474E-3,517.545319E-3
414.007187E-3,517.592239E-3
415.091515E-3,518.083191E-3
416.491127E-3,517.988777E-3
418.830299E-3,519.187546E-3
420.017052E-3,519.202423E-3
422.003174E-3,519.819832E-3
423.549271E-3,520.599174E-3
424.677658E-3,520.218658E-3
425.795746E-3,520.923042E-3
426.511574E-3,521.088982E-3
426.744461E-3,521.078110E-3
427.115250E-3,521.177101E-3
426.590538E-3,520.943642E-3
427.138138E-3,521.256638E-3
426.970482E-3,521.497536E-3
427.311516E-3,521.397400E-3
428.198433E-3,521.904373E-3
428.315163E-3,521.937561E-3
428.889656E-3,522.232819E-3
428.853035E-3,522.048569E-3
429.046440E-3,522.011948E-3
428.797531E-3,522.159576E-3
427.991295E-3,521.577644E-3
427.777290E-3,521.694946E-3
426.954460E-3,521.685219E-3
426.734161E-3,521.480370E-3
426.556206E-3,521.495247E-3
426.121902E-3,521.272087E-3
426.330185E-3,521.118164E-3
426.412010E-3,521.007156E-3
426.860619E-3,521.290970E-3
427.662849E-3,521.430016E-3
427.576447E-3,520.993996E-3
428.594398E-3,521.840286E-3
429.091644E-3,521.918678E-3
429.548836E-3,522.201920E-3
430.578804E-3,522.466850E-3
430.881500E-3,522.625923E-3
431.865692E-3,523.184395E-3
432.218742E-3,523.166084E-3
432.634735E-3,523.168373E-3
433.341980E-3,523.733139E-3
433.296204E-3,523.371506E-3
434.048080E-3,524.023247E-3
434.182549E-3,523.925972E-3
434.707832E-3,524.406052E-3
434.984207E-3,524.344826E-3
435.069466E-3,523.986053E-3
435.407639E-3,524.435234E-3
435.241699E-3,524.394608E-3
434.918976E-3,524.253845E-3
435.327530E-3,524.463272E-3
434.972191E-3,524.442101E-3
435.512352E-3,524.613762E-3
435.455704E-3,524.448967E-3
435.425949E-3,524.043846E-3
435.456276E-3,524.143982E-3
435.218239E-3,524.230385E-3
435.377312E-3,524.240112E-3
434.945297E-3,523.972321E-3
435.225677E-3,524.205780E-3
435.065460E-3,524.338531E-3
435.096359E-3,524.156570E-3
435.258865E-3,524.423218E-3
435.147858E-3,523.916245E-3
435.560989E-3,524.395752E-3
435.812187E-3,524.596024E-3
435.503769E-3,524.553108E-3
436.295700E-3,524.806023E-3
436.517143E-3,524.349976E-3
436.806107E-3,524.589729E-3
437.258148E-3,524.855232E-3
437.389755E-3,524.570274E-3
437.828636E-3,525.030899E-3
437.217522E-3,524.600601E-3
436.883926E-3,524.625206E-3
435.594749E-3,524.620056E-3
432.573509E-3,523.741722E-3
429.391479E-3,522.808456E-3
425.169182E-3,521.419144E-3
421.120262E-3,520.133972E-3
417.835236E-3,518.950653E-3
414.615440E-3,517.972755E-3
413.330841E-3,517.462349E-3
412.846756E-3,517.286110E-3
413.134003E-3,517.056084E-3
414.518738E-3,517.751884E-3
416.093445E-3,518.036270E-3
418.121910E-3,518.721199E-3
419.716644E-3,519.029045E-3
421.321106E-3,519.436455E-3
423.058319E-3,519.963455E-3
423.962402E-3,520.413780E-3
425.288773E-3,520.827484E-3
425.525665E-3,520.925903E-3
425.753403E-3,520.728493E-3
426.059532E-3,521.173096E-3
425.811195E-3,521.063805E-3
426.074982E-3,521.247482E-3
425.531387E-3,521.075821E-3
425.870132E-3,521.286964E-3
426.573944E-3,521.543312E-3
426.837158E-3,521.242905E-3
427.560425E-3,521.767616E-3
427.976418E-3,521.059227E-3
427.952385E-3,521.418571E-3
428.149223E-3,521.949577E-3
427.823639E-3,521.447754E-3
427.564430E-3,521.806526E-3
426.631165E-3,521.372795E-3
426.375389E-3,521.259499E-3
426.219749E-3,521.480370E-3
425.755119E-3,520.742798E-3
426.029205E-3,521.079254E-3
425.899887E-3,520.929909E-3
426.227188E-3,521.035194E-3
426.403427E-3,521.260071E-3
426.747894E-3,521.311569E-3
427.690887E-3,521.303558E-3
427.605057E-3,521.811676E-3
428.325462E-3,521.825409E-3
429.483604E-3,522.208786E-3
429.771423E-3,521.947289E-3
430.495262E-3,522.346115E-3
430.897522E-3,522.908020E-3
431.493759E-3,522.973251E-3
432.131195E-3,522.983551E-3
432.230186E-3,523.040771E-3
432.872772E-3,523.283958E-3
432.684517E-3,523.089409E-3
433.058739E-3,523.023033E-3
433.458138E-3,523.408699E-3
433.452988E-3,523.315430E-3
434.000015E-3,523.654747E-3
433.625221E-3,523.623848E-3
433.693886E-3,523.680496E-3
434.024620E-3,523.927689E-3
434.079552E-3,523.380089E-3
434.203148E-3,523.289680E-3
434.235191E-3,523.214722E-3
434.079552E-3,523.236465E-3
434.240913E-3,523.676491E-3
433.956528E-3,523.188400E-3
434.175682E-3,523.442459E-3
433.720207E-3,523.402977E-3
433.655548E-3,523.487663E-3
434.174538E-3,523.717117E-3
433.944511E-3,523.404121E-3
433.990288E-3,523.544312E-3
434.212303E-3,523.721695E-3
433.951950E-3,523.361778E-3
434.453201E-3,523.659325E-3
434.344482E-3,523.556900E-3
435.013390E-3,523.897362E-3
434.524727E-3,523.909378E-3
435.153580E-3,523.726273E-3
435.674858E-3,524.003220E-3
435.526085E-3,524.020386E-3
435.882568E-3,523.970032E-3
435.982132E-3,524.172592E-3
436.149788E-3,524.411774E-3
435.704613E-3,524.305344E-3
434.206009E-3,523.332024E-3
431.734657E-3,522.979546E-3
427.844238E-3,521.775055E-3
423.851967E-3,520.430374E-3
420.182991E-3,519.699097E-3
416.689682E-3,518.225670E-3
414.470673E-3,517.826271E-3
413.014412E-3,517.159653E-3
412.893105E-3,516.992569E-3
413.539696E-3,517.015457E-3
414.289284E-3,517.108727E-3
416.290855E-3,517.942429E-3
417.907906E-3,518.511200E-3
419.541550E-3,518.787575E-3
421.350288E-3,519.489670E-3
422.633171E-3,519.558334E-3
423.954964E-3,520.170593E-3
424.723434E-3,520.222092E-3
425.536537E-3,520.401764E-3
425.696754E-3,520.880699E-3
425.408936E-3,520.572853E-3
425.593185E-3,520.603752E-3
425.667000E-3,520.679855E-3
425.796890E-3,520.943069E-3
426.320457E-3,520.995712E-3
426.458359E-3,521.049500E-3
427.206802E-3,521.394539E-3
427.602196E-3,521.211433E-3
427.641106E-3,521.578217E-3
427.906036E-3,521.503258E-3
427.403641E-3,521.125031E-3
427.064323E-3,521.368790E-3
426.481247E-3,520.840073E-3
425.715065E-3,520.650101E-3
425.523376E-3,520.719910E-3
424.950600E-3,520.162010E-3
425.032997E-3,520.567703E-3
425.003815E-3,520.327950E-3
425.244141E-3,520.032692E-3
425.437546E-3,520.392036E-3
425.541115E-3,520.026970E-3
426.216316E-3,520.551682E-3
426.323318E-3,520.528793E-3
427.048874E-3,520.639229E-3
427.688026E-3,521.200562E-3
427.852821E-3,520.984268E-3
428.809547E-3,521.596527E-3
428.953743E-3,521.524429E-3
429.481316E-3,521.622849E-3
429.993439E-3,521.738434E-3
429.910469E-3,521.565056E-3
430.531883E-3,522.046280E-3
430.713844E-3,522.022247E-3
431.120682E-3,522.061157E-3
431.460571E-3,522.461128E-3
431.304359E-3,522.347832E-3
431.579018E-3,522.564125E-3
431.712341E-3,522.525215E-3
431.801033E-3,522.474861E-3
431.835365E-3,522.784996E-3
431.866837E-3,522.350693E-3
432.152939E-3,522.694588E-3
431.969833E-3,522.407341E-3
432.159805E-3,522.701454E-3
432.205582E-3,523.120880E-3
431.947517E-3,522.540665E-3
432.302856E-3,522.811890E-3
431.968117E-3,522.629356E-3
431.786728E-3,522.616196E-3
432.222748E-3,522.803879E-3
431.855965E-3,522.592735E-3
432.381248E-3,522.886848E-3
432.131195E-3,522.912025E-3
432.325745E-3,522.756958E-3
432.681656E-3,522.980690E-3
432.758331E-3,522.574425E-3
433.316231E-3,523.159218E-3
433.596039E-3,523.131180E-3
433.987427E-3,523.441887E-3
434.294701E-3,523.769188E-3
434.313583E-3,523.283386E-3
434.769630E-3,523.773193E-3
434.779358E-3,523.500824E-3
434.531021E-3,523.473358E-3
434.224892E-3,523.805237E-3
432.439041E-3,522.766113E-3
429.753685E-3,522.336960E-3
426.196861E-3,521.167946E-3
422.189140E-3,519.864464E-3
418.695259E-3,519.170952E-3
415.205383E-3,517.625999E-3
413.330841E-3,516.937637E-3
412.273407E-3,516.743088E-3
412.118912E-3,516.693878E-3
413.344574E-3,516.886139E-3
414.295578E-3,516.683578E-3
416.418457E-3,517.514992E-3
418.050957E-3,518.128395E-3
419.726944E-3,518.686295E-3
421.618652E-3,519.223595E-3
422.673225E-3,519.163513E-3
424.222183E-3,520.044136E-3
424.849892E-3,520.187187E-3
425.219536E-3,520.142555E-3
425.566864E-3,520.432663E-3
425.322533E-3,520.201492E-3
425.699043E-3,520.461845E-3
426.061821E-3,520.717621E-3
426.436615E-3,520.798874E-3
426.727867E-3,521.052933E-3
427.022552E-3,520.757675E-3
427.776146E-3,521.419144E-3
427.777290E-3,521.213722E-3
427.854538E-3,521.188545E-3
427.701759E-3,521.332741E-3
426.568222E-3,520.886993E-3
426.314163E-3,521.029472E-3
425.759125E-3,520.532799E-3
424.849892E-3,520.187759E-3
424.754906E-3,520.602608E-3
424.292564E-3,519.939423E-3
424.452782E-3,520.151138E-3
424.313164E-3,520.095634E-3
424.718285E-3,519.901085E-3
425.390625E-3,520.159149E-3
425.672722E-3,519.817543E-3
426.163101E-3,520.200920E-3
426.839447E-3,520.389175E-3
427.692032E-3,520.734215E-3
428.062248E-3,521.153069E-3
428.503418E-3,520.826912E-3
429.377174E-3,521.349907E-3
429.841232E-3,521.455193E-3
430.301285E-3,521.479797E-3
430.911255E-3,521.803665E-3
431.011391E-3,521.760178E-3
431.720924E-3,522.676277E-3
431.920624E-3,522.560120E-3
432.061958E-3,522.489166E-3
432.439613E-3,522.846222E-3
432.241631E-3,522.607040E-3
432.729721E-3,522.733498E-3
433.083916E-3,522.645378E-3
433.323097E-3,522.719765E-3
433.281326E-3,523.067093E-3
433.157730E-3,522.798157E-3
433.579445E-3,522.953224E-3
433.634377E-3,523.156929E-3
433.686447E-3,523.100281E-3
433.949661E-3,523.186111E-3
433.383751E-3,522.992134E-3
433.798027E-3,523.286247E-3
433.404350E-3,523.486519E-3
433.415222E-3,523.332596E-3
433.650970E-3,523.456764E-3
433.232689E-3,523.326874E-3
433.912468E-3,523.568344E-3
434.119606E-3,523.491669E-3
434.085274E-3,523.582649E-3
434.784508E-3,523.800659E-3
434.612846E-3,523.242760E-3
435.169029E-3,523.707390E-3
435.577583E-3,523.802948E-3
435.737801E-3,523.937416E-3
436.179543E-3,524.340820E-3
436.070824E-3,524.032974E-3
436.604118E-3,524.192619E-3
436.195564E-3,524.228096E-3
435.376167E-3,523.763466E-3
433.539391E-3,523.584938E-3
430.123329E-3,522.424507E-3
426.904106E-3,521.903801E-3
422.710419E-3,520.475578E-3
418.869781E-3,519.107437E-3
415.938950E-3,518.325806E-3
413.559151E-3,517.667198E-3
413.242722E-3,517.208862E-3
413.148880E-3,517.238617E-3
414.014626E-3,517.508125E-3
415.333557E-3,517.545891E-3
416.694832E-3,517.683792E-3
418.951607E-3,518.731499E-3
420.585823E-3,519.369507E-3
422.113609E-3,519.811821E-3
423.603630E-3,520.425797E-3
424.119759E-3,520.198631E-3
424.988365E-3,520.687294E-3
425.610352E-3,520.577431E-3
425.915909E-3,520.521355E-3
426.324463E-3,520.604897E-3
425.581741E-3,520.373154E-3
425.942802E-3,520.618057E-3
425.978279E-3,520.850372E-3
426.176834E-3,521.029472E-3
426.837158E-3,521.309280E-3
427.132416E-3,521.318436E-3
427.998734E-3,521.663475E-3
428.184700E-3,521.797943E-3
428.242493E-3,521.669769E-3
428.167534E-3,521.826553E-3
427.438545E-3,521.328163E-3
427.225685E-3,521.543312E-3
426.623154E-3,521.134186E-3
426.325035E-3,520.613480E-3
426.012611E-3,520.929909E-3
425.574875E-3,520.518494E-3
426.075554E-3,520.785141E-3
425.913048E-3,521.039772E-3
426.434326E-3,520.727921E-3
426.866341E-3,521.159363E-3
426.983643E-3,521.003723E-3
428.077698E-3,521.530151E-3
428.597832E-3,521.886635E-3
428.821564E-3,521.884918E-3
429.773140E-3,522.142410E-3
430.097580E-3,522.015953E-3
431.272888E-3,522.534370E-3
431.545258E-3,522.605324E-3
431.987572E-3,522.624779E-3
432.603264E-3,523.166084E-3
432.647896E-3,522.990990E-3
433.419800E-3,523.204994E-3
433.728218E-3,523.266792E-3
433.874702E-3,523.291969E-3
434.264946E-3,523.426437E-3
433.815193E-3,523.602676E-3
434.457779E-3,523.944283E-3
434.506989E-3,523.600388E-3
434.415436E-3,523.684502E-3
434.588242E-3,524.078178E-3
434.371376E-3,523.658180E-3
434.914970E-3,524.008369E-3
434.997940E-3,523.829842E-3
434.480095E-3,523.915100E-3
434.654617E-3,523.958588E-3
434.390259E-3,523.806381E-3
434.758759E-3,523.745155E-3
434.721565E-3,523.642731E-3
434.714127E-3,523.497963E-3
434.955025E-3,523.861313E-3
434.741592E-3,523.670769E-3
434.873772E-3,524.119949E-3
435.026550E-3,524.087334E-3
435.260010E-3,523.814964E-3
435.496902E-3,524.240685E-3
435.409927E-3,523.972321E-3
435.920334E-3,524.161720E-3
436.128044E-3,524.395180E-3
436.359215E-3,524.436951E-3
436.667061E-3,524.657249E-3
436.742592E-3,524.434662E-3
437.132263E-3,524.972534E-3
437.405205E-3,524.630928E-3
437.110519E-3,524.418640E-3
436.398697E-3,524.584579E-3
434.546471E-3,523.550606E-3
432.163811E-3,523.326874E-3
428.269386E-3,521.988487E-3
424.030495E-3,520.532227E-3
420.424461E-3,519.839287E-3
416.980362E-3,518.584442E-3
415.322685E-3,518.158150E-3
414.141655E-3,517.778778E-3
414.056969E-3,517.411423E-3
414.954758E-3,517.635727E-3
415.810204E-3,517.761040E-3
417.911911E-3,518.437958E-3
419.495201E-3,519.181252E-3
421.245575E-3,519.510269E-3
423.150444E-3,519.927979E-3
424.297142E-3,520.503044E-3
425.423241E-3,520.571709E-3
426.079559E-3,521.015739E-3
426.474953E-3,520.684433E-3
426.989937E-3,521.260071E-3
426.666641E-3,521.022606E-3
426.708412E-3,521.250916E-3
426.791382E-3,521.302414E-3
426.885796E-3,521.047783E-3
427.571297E-3,521.544456E-3
427.738380E-3,521.229744E-3
428.474808E-3,521.748161E-3
428.977203E-3,521.687508E-3
429.162598E-3,521.480942E-3
429.150009E-3,521.839714E-3
428.319168E-3,521.220589E-3
427.964973E-3,521.570206E-3
427.385330E-3,521.329308E-3
426.807404E-3,521.178818E-3
426.536751E-3,521.224022E-3
426.017189E-3,520.928764E-3
426.226044E-3,520.923042E-3
426.415443E-3,520.765686E-3
426.441193E-3,520.484734E-3
426.872635E-3,521.084404E-3
426.940727E-3,520.999718E-3
427.796745E-3,521.274948E-3
428.405571E-3,521.182823E-3
428.803253E-3,521.129036E-3
429.380035E-3,521.939278E-3
429.714203E-3,521.848869E-3
430.622864E-3,522.451401E-3
431.247139E-3,522.174454E-3
431.763268E-3,522.319794E-3
432.374382E-3,522.708893E-3
432.451057E-3,522.659683E-3
433.052444E-3,523.064232E-3
433.351707E-3,523.031044E-3
433.333397E-3,523.081970E-3
433.926773E-3,523.271370E-3
433.842087E-3,523.067665E-3
434.002304E-3,523.411560E-3
433.942795E-3,523.705673E-3
434.005737E-3,523.511124E-3
434.143066E-3,523.529434E-3
434.029198E-3,523.527718E-3
434.367943E-3,523.582649E-3
434.346771E-3,523.712540E-3
434.387398E-3,523.647881E-3
434.500694E-3,523.532867E-3
434.380531E-3,523.326874E-3
434.369659E-3,523.551750E-3
434.415436E-3,523.412704E-3
434.359932E-3,523.198128E-3
434.437752E-3,523.555183E-3
434.237480E-3,523.245049E-3
434.653473E-3,523.779488E-3
434.487534E-3,523.500252E-3
434.583092E-3,523.503685E-3
434.624290E-3,523.980904E-3
434.513855E-3,523.479080E-3
434.868050E-3,523.693657E-3
435.333824E-3,523.831558E-3
435.165024E-3,523.879051E-3
435.437393E-3,524.114227E-3
435.756683E-3,523.749161E-3
436.196136E-3,524.147987E-3
436.153793E-3,524.483871E-3
436.383247E-3,524.267006E-3
436.729431E-3,524.251556E-3
435.939217E-3,524.164009E-3
435.356140E-3,524.128532E-3
433.580017E-3,523.626709E-3
430.222893E-3,522.502899E-3
426.484108E-3,521.412849E-3
422.352791E-3,519.925690E-3
419.048309E-3,519.056511E-3
416.234207E-3,518.103790E-3
414.222336E-3,517.338753E-3
413.684464E-3,517.088699E-3
413.703346E-3,516.848946E-3
414.965057E-3,517.266655E-3
416.504288E-3,517.664337E-3
418.180847E-3,518.125534E-3
420.308876E-3,519.037056E-3
421.678734E-3,519.219589E-3
423.397064E-3,519.912529E-3
424.602127E-3,520.364571E-3
425.700760E-3,520.620346E-3
426.599693E-3,521.044922E-3
426.699829E-3,520.912170E-3
427.359009E-3,521.270943E-3
427.266884E-3,521.314430E-3
427.207375E-3,521.421432E-3
427.795601E-3,521.741295E-3
427.969551E-3,521.507835E-3
428.661346E-3,521.694374E-3
429.021263E-3,522.246552E-3
429.385185E-3,522.036552E-3
429.639244E-3,522.401619E-3
429.163170E-3,521.971893E-3
429.016685E-3,522.221947E-3
428.293419E-3,521.985626E-3
427.575302E-3,521.383667E-3
426.914978E-3,521.174812E-3
426.199722E-3,520.563698E-3
426.065826E-3,520.579720E-3
425.914764E-3,520.846367E-3
425.613213E-3,520.754814E-3
425.946808E-3,520.777702E-3
426.109314E-3,520.711327E-3
426.922417E-3,520.872116E-3
427.372742E-3,521.442032E-3
427.690887E-3,521.436882E-3
428.749466E-3,521.780777E-3
428.940010E-3,521.681213E-3
429.860687E-3,521.924400E-3
430.132484E-3,522.275162E-3
430.505562E-3,522.169304E-3
431.249428E-3,522.609329E-3
431.363297E-3,522.455978E-3
432.032776E-3,522.715187E-3
432.219887E-3,522.766685E-3
432.344055E-3,522.731209E-3
432.984924E-3,522.858810E-3
433.122253E-3,522.877693E-3
433.317375E-3,523.190117E-3
433.304787E-3,523.206139E-3
433.422661E-3,523.023033E-3
433.557701E-3,523.229027E-3
433.460426E-3,522.914886E-3
434.003448E-3,523.566628E-3
433.891869E-3,523.389244E-3
433.822060E-3,523.407555E-3
434.020615E-3,523.321724E-3
433.748817E-3,523.345757E-3
434.073830E-3,523.444176E-3
433.943939E-3,523.499107E-3
433.703613E-3,523.386383E-3
433.921623E-3,523.455620E-3
433.860397E-3,523.259354E-3
434.040070E-3,523.295403E-3
433.991432E-3,523.313141E-3
433.984566E-3,523.406982E-3
434.524155E-3,523.659325E-3
434.211159E-3,523.321724E-3
434.683800E-3,523.483658E-3
434.793663E-3,523.535156E-3
435.066605E-3,523.440742E-3
435.268021E-3,523.655319E-3
435.217667E-3,523.705673E-3
435.786438E-3,524.157715E-3
436.136627E-3,523.990631E-3
436.018181E-3,523.935699E-3
435.994148E-3,523.873329E-3
434.605980E-3,523.438454E-3
432.729149E-3,523.360634E-3
429.873276E-3,522.193336E-3
426.132202E-3,520.899010E-3
422.748184E-3,520.108795E-3
418.786812E-3,518.714905E-3
416.246796E-3,517.877769E-3
414.405441E-3,517.146492E-3
413.431549E-3,516.733932E-3
413.711357E-3,517.032623E-3
414.237213E-3,517.103004E-3
416.103172E-3,517.595673E-3
417.888451E-3,518.340111E-3
419.401360E-3,518.555260E-3
421.238708E-3,519.226456E-3
422.676659E-3,519.338608E-3
424.023056E-3,519.808388E-3
425.086784E-3,519.889641E-3
425.559998E-3,520.072174E-3
425.882149E-3,520.191765E-3
425.987434E-3,519.994926E-3
426.356506E-3,520.169449E-3
426.571655E-3,520.476723E-3
426.687241E-3,520.314217E-3
426.858330E-3,520.719337E-3
426.927567E-3,520.579147E-3
427.606201E-3,521.074104E-3
428.413010E-3,521.356773E-3
428.602409E-3,521.472359E-3
428.806686E-3,521.443176E-3
428.379250E-3,521.123314E-3
428.181267E-3,521.108437E-3
427.749825E-3,520.800591E-3
426.868629E-3,520.751953E-3
426.696396E-3,520.668983E-3
426.112175E-3,520.413208E-3
425.788879E-3,520.402908E-3
426.085854E-3,520.604897E-3
425.949097E-3,520.346832E-3
426.192284E-3,520.772552E-3
426.489258E-3,520.442390E-3
427.109528E-3,520.687866E-3
427.554703E-3,520.777130E-3
428.083992E-3,520.999146E-3
428.891373E-3,521.436310E-3
429.343987E-3,521.497536E-3
430.145073E-3,521.738434E-3
430.732727E-3,521.955872E-3
430.945015E-3,522.027969E-3
431.697464E-3,522.240829E-3
431.873131E-3,522.357559E-3
432.504845E-3,522.681427E-3
432.595825E-3,522.621346E-3
432.888794E-3,522.815895E-3
433.507347E-3,523.223305E-3
433.348846E-3,523.104286E-3
433.806038E-3,523.470497E-3
433.997726E-3,523.523140E-3
434.095573E-3,523.342896E-3
434.208870E-3,523.545456E-3
434.017754E-3,523.076820E-3
434.449768E-3,523.492241E-3
434.532166E-3,523.503113E-3
434.435463E-3,523.198700E-3
434.366226E-3,523.403549E-3
434.200859E-3,522.920036E-3
434.363365E-3,523.179245E-3
434.052658E-3,523.056221E-3
433.966255E-3,523.096275E-3
434.152222E-3,523.433876E-3
433.847809E-3,523.280525E-3
434.164810E-3,523.667908E-3
434.461784E-3,523.727417E-3
434.284973E-3,523.422432E-3
434.621429E-3,523.635292E-3
434.413719E-3,523.287392E-3
434.861183E-3,523.730278E-3
435.037994E-3,523.563194E-3
435.224533E-3,523.748589E-3
435.870552E-3,524.051285E-3
435.866547E-3,524.137688E-3
436.404419E-3,524.245262E-3
436.617279E-3,523.975182E-3
436.696243E-3,523.963737E-3
436.873627E-3,524.277878E-3
435.843658E-3,523.698235E-3
434.168816E-3,523.346901E-3
431.213379E-3,522.627640E-3
427.573013E-3,521.319580E-3
423.569870E-3,520.472145E-3
419.297791E-3,519.021606E-3
416.656494E-3,518.148994E-3
414.418602E-3,517.452049E-3
413.390350E-3,517.077255E-3
413.610077E-3,517.211723E-3
413.807487E-3,516.886711E-3
415.227127E-3,517.304993E-3
416.828728E-3,517.648315E-3
418.482971E-3,518.185616E-3
420.324326E-3,518.815613E-3
421.635246E-3,518.718910E-3
423.160744E-3,519.540596E-3
423.920631E-3,519.953156E-3
424.485970E-3,520.031548E-3
425.316238E-3,520.364571E-3
425.316238E-3,520.258141E-3
425.534821E-3,520.266151E-3
425.281334E-3,519.966888E-3
425.164604E-3,520.171738E-3
425.566864E-3,520.497894E-3
425.425529E-3,520.195198E-3
425.992584E-3,520.544243E-3
426.828003E-3,520.642662E-3
426.980209E-3,520.680428E-3
427.267456E-3,520.893860E-3
427.213669E-3,520.691872E-3
427.377892E-3,520.811462E-3
426.873207E-3,520.780563E-3
426.303291E-3,520.485306E-3
426.088715E-3,520.635223E-3
425.517082E-3,520.220375E-3
425.679016E-3,520.165443E-3
425.555420E-3,520.403481E-3
425.065613E-3,519.889069E-3
425.518227E-3,520.214653E-3
425.507355E-3,519.831848E-3
426.121902E-3,520.150566E-3
426.523590E-3,520.201492E-3
426.958466E-3,520.357704E-3
427.749825E-3,520.794296E-3
427.888870E-3,520.854950E-3
428.722000E-3,521.183968E-3
429.378891E-3,521.405411E-3
429.755974E-3,521.144485E-3
430.344772E-3,521.584511E-3
430.403137E-3,521.213722E-3
430.941010E-3,521.275520E-3
431.497765E-3,521.609688E-3
431.509781E-3,521.617699E-3
432.140350E-3,522.365570E-3
432.151794E-3,522.164726E-3
432.533455E-3,522.461700E-3
432.666206E-3,522.488022E-3
432.508850E-3,522.484589E-3
433.004379E-3,522.785568E-3
432.532883E-3,522.570419E-3
432.599258E-3,522.698593E-3
432.449913E-3,522.480011E-3
432.397270E-3,522.264862E-3
432.526588E-3,522.611618E-3
432.300568E-3,522.434807E-3
432.336617E-3,522.630501E-3
432.702827E-3,522.414207E-3
432.520866E-3,522.426796E-3
432.630730E-3,522.699738E-3
432.337761E-3,522.478294E-3
432.322311E-3,522.782707E-3
432.355499E-3,522.569275E-3
432.624435E-3,522.744370E-3
432.789803E-3,522.932625E-3
432.528877E-3,522.515488E-3
433.015823E-3,522.813606E-3
433.479881E-3,522.923470E-3
433.309364E-3,522.695732E-3
433.872986E-3,523.064232E-3
434.026337E-3,522.920036E-3
434.498978E-3,523.114586E-3
434.972191E-3,523.489952E-3
434.669495E-3,523.382378E-3
434.845734E-3,523.574638E-3
433.976555E-3,523.147202E-3
433.131981E-3,522.884560E-3
430.830002E-3,522.288895E-3
427.476311E-3,521.051216E-3
423.747253E-3,520.210648E-3
419.428825E-3,518.582726E-3
416.126633E-3,517.530441E-3
413.792610E-3,516.759109E-3
412.027931E-3,516.216660E-3
412.124062E-3,516.289902E-3
412.239075E-3,515.933990E-3
413.337135E-3,516.319084E-3
414.543915E-3,516.555405E-3
416.063118E-3,516.999435E-3
417.823219E-3,517.563057E-3
419.292068E-3,517.817116E-3
420.689964E-3,518.084908E-3
421.769142E-3,518.855095E-3
422.323036E-3,518.686295E-3
423.197365E-3,519.356918E-3
423.432541E-3,519.212723E-3
423.642540E-3,519.518852E-3
423.793030E-3,519.706535E-3
423.771858E-3,519.240761E-3
424.017334E-3,519.643593E-3
424.071693E-3,519.339752E-3
424.901962E-3,519.795227E-3
425.103951E-3,519.938278E-3
425.532532E-3,519.944572E-3
426.185989E-3,520.529366E-3
425.483894E-3,520.011520E-3
425.447273E-3,520.065880E-3
424.899673E-3,519.953728E-3
424.016190E-3,519.554329E-3
423.699760E-3,519.574928E-3
423.045731E-3,519.503403E-3
423.122978E-3,519.263649E-3
422.812843E-3,519.081688E-3
422.690392E-3,519.129753E-3
422.982216E-3,519.348335E-3
423.123550E-3,519.288254E-3
424.020195E-3,519.307137E-3
424.252510E-3,519.595528E-3
424.908257E-3,519.493103E-3
425.622368E-3,520.024109E-3
426.099586E-3,520.071602E-3
427.022552E-3,520.743942E-3
427.039719E-3,520.777702E-3
427.526093E-3,520.690155E-3
428.197861E-3,520.958519E-3
427.963829E-3,520.773125E-3
428.632736E-3,521.095276E-3
429.023552E-3,521.498108E-3
429.426956E-3,521.594810E-3
429.911041E-3,521.910667E-3
429.721069E-3,521.588516E-3
430.211449E-3,521.399689E-3
430.450058E-3,522.120094E-3
430.388832E-3,522.034264E-3
430.836296E-3,522.168159E-3
430.525589E-3,522.369003E-3
430.676079E-3,522.289467E-3
430.902100E-3,522.311211E-3
430.527878E-3,522.114944E-3
430.678940E-3,522.369576E-3
430.303574E-3,521.939278E-3
430.259514E-3,521.840286E-3
430.282974E-3,521.875191E-3
430.107307E-3,521.983337E-3
430.471802E-3,522.343826E-3
430.468369E-3,522.190475E-3
430.353928E-3,522.139549E-3
430.584526E-3,522.027969E-3
430.715561E-3,521.708107E-3
431.322670E-3,522.310638E-3
431.156158E-3,522.103500E-3
431.883430E-3,522.212791E-3
432.056236E-3,522.214508E-3
431.949806E-3,522.224236E-3
432.666206E-3,522.578430E-3
432.753181E-3,522.707176E-3
433.195496E-3,522.647095E-3
432.942581E-3,522.621918E-3
431.976700E-3,522.122383E-3
430.549049E-3,521.878624E-3
427.714920E-3,521.159363E-3
424.832153E-3,520.425797E-3
420.797539E-3,519.346046E-3
416.865349E-3,517.799950E-3
414.007759E-3,516.692162E-3
411.596489E-3,515.950012E-3
410.853767E-3,515.356636E-3
410.135078E-3,515.422440E-3
410.488129E-3,515.326881E-3
411.870575E-3,515.825844E-3
413.418388E-3,516.208076E-3
415.154457E-3,516.898727E-3
416.705704E-3,517.547035E-3
417.859840E-3,517.374229E-3
419.412804E-3,518.105507E-3
420.233917E-3,518.181610E-3
420.964622E-3,518.301773E-3
421.793747E-3,518.922615E-3
421.599770E-3,518.444824E-3
422.332191E-3,518.859673E-3
421.954536E-3,518.657112E-3
422.116470E-3,519.089699E-3
422.605133E-3,519.148636E-3
422.785950E-3,519.081688E-3
423.937798E-3,519.550896E-3
424.075699E-3,519.509697E-3
424.472809E-3,519.926262E-3
424.567223E-3,519.797516E-3
424.366379E-3,519.564629E-3
424.189568E-3,519.909096E-3
423.683739E-3,519.394684E-3
423.383904E-3,519.377518E-3
423.293495E-3,519.260788E-3
422.578239E-3,518.793869E-3
422.481537E-3,518.908882E-3
422.331047E-3,518.878555E-3
422.330475E-3,519.108582E-3
422.698975E-3,518.942642E-3
423.076057E-3,518.774986E-3
423.770142E-3,519.365501E-3
424.116898E-3,519.303131E-3
425.020409E-3,519.718552E-3
425.586319E-3,520.089912E-3
426.028633E-3,520.305634E-3
426.714706E-3,520.755959E-3
427.022552E-3,520.512772E-3
427.982140E-3,520.893288E-3
428.816414E-3,521.395683E-3
428.866768E-3,520.949936E-3
429.515648E-3,521.570206E-3
429.722786E-3,521.280098E-3
429.822922E-3,521.516418E-3
430.286980E-3,521.934128E-3
430.442047E-3,521.756172E-3
430.690956E-3,522.144127E-3
430.508423E-3,521.914673E-3
430.241203E-3,521.936989E-3
430.755615E-3,522.060585E-3
430.816269E-3,521.675491E-3
430.941582E-3,522.222519E-3
431.191635E-3,522.105217E-3
430.978203E-3,522.301483E-3
431.191635E-3,521.997070E-3
430.731583E-3,521.720123E-3
431.242561E-3,522.100067E-3
431.008530E-3,521.896935E-3
430.961609E-3,522.028542E-3
430.805397E-3,521.923256E-3
430.604553E-3,521.985054E-3
431.369591E-3,522.279739E-3
431.298065E-3,522.094345E-3
431.313515E-3,522.446823E-3
431.464577E-3,522.422218E-3
431.472015E-3,522.245979E-3
432.389259E-3,522.581291E-3
432.548332E-3,522.308922E-3
432.582664E-3,522.677994E-3
432.769775E-3,522.866249E-3
433.056450E-3,522.789574E-3
433.677864E-3,523.011017E-3
433.342552E-3,522.599030E-3
433.505630E-3,522.979546E-3
433.277893E-3,522.887993E-3
432.082558E-3,522.207069E-3
430.317879E-3,522.284317E-3
427.111244E-3,521.195412E-3
423.529243E-3,520.174026E-3
419.489479E-3,518.689156E-3
415.692329E-3,517.456627E-3
412.869644E-3,516.734505E-3
410.651207E-3,515.931702E-3
409.736824E-3,515.344620E-3
409.721375E-3,515.105438E-3
410.330772E-3,515.158653E-3
411.853981E-3,516.024399E-3
413.042450E-3,516.107941E-3
414.710426E-3,516.661263E-3
416.420174E-3,517.328453E-3
417.783737E-3,517.782211E-3
419.169617E-3,518.552971E-3
419.797325E-3,518.172455E-3
420.542336E-3,518.567276E-3
420.930290E-3,518.489456E-3
420.955467E-3,518.539810E-3
421.279907E-3,518.971825E-3
421.093941E-3,518.758392E-3
420.957756E-3,519.025040E-3
421.075058E-3,518.865395E-3
421.372032E-3,518.609619E-3
422.374535E-3,519.280815E-3
422.475243E-3,519.362640E-3
423.352432E-3,519.706535E-3
423.676872E-3,519.659615E-3
423.734665E-3,519.476509E-3
424.041367E-3,519.633865E-3
423.584747E-3,519.290543E-3
423.231697E-3,519.220161E-3
422.784233E-3,519.077110E-3
422.448921E-3,519.184113E-3
422.492409E-3,519.238472E-3
421.899605E-3,518.865967E-3
422.114182E-3,518.864250E-3
422.351646E-3,519.005585E-3
422.543335E-3,518.946648E-3
422.987366E-3,519.244194E-3
423.089790E-3,518.902588E-3
423.675728E-3,519.141769E-3
424.224472E-3,519.479942E-3
425.023842E-3,519.858742E-3
425.875282E-3,520.100212E-3
426.044655E-3,519.759750E-3
426.450348E-3,520.190048E-3
427.091217E-3,520.263290E-3
427.139282E-3,520.242691E-3
427.956390E-3,520.658684E-3
428.022194E-3,520.655823E-3
