Notes :


2023-11-04 ¿ÀÈÄ 7:20:16
Volts
Ch : LED 2,
642.116547E-3
640.581322E-3
639.179420E-3
637.528610E-3
636.260605E-3
635.318756E-3
634.871864E-3
634.488487E-3
634.176636E-3
634.202385E-3
634.295082E-3
634.400940E-3
634.174919E-3
633.789253E-3
633.382416E-3
632.775307E-3
631.958771E-3
631.050682E-3
630.228996E-3
629.418755E-3
628.676605E-3
627.691269E-3
626.958847E-3
626.117706E-3
625.365257E-3
624.750710E-3
624.131012E-3
623.618889E-3
622.980309E-3
622.515678E-3
622.177505E-3
621.764374E-3
621.231079E-3
620.850563E-3
620.618248E-3
620.241737E-3
619.932175E-3
619.632339E-3
619.489288E-3
619.246101E-3
618.918228E-3
618.587494E-3
618.428421E-3
618.123436E-3
617.911148E-3
617.666817E-3
617.496872E-3
617.290878E-3
616.969872E-3
616.808510E-3
616.679764E-3
616.264343E-3
615.876961E-3
615.568542E-3
615.340805E-3
615.078735E-3
614.777184E-3
614.593506E-3
614.457321E-3
614.229012E-3
614.017296E-3
613.958931E-3
613.866806E-3
613.624763E-3
613.393021E-3
613.117218E-3
612.694931E-3
612.190819E-3
611.806297E-3
611.386299E-3
610.999489E-3
610.733986E-3
610.668755E-3
610.549164E-3
610.482216E-3
610.448456E-3
611.183739E-3
613.256836E-3
616.542435E-3
620.854568E-3
625.823593E-3
631.218338E-3
636.186218E-3
640.129280E-3
642.683601E-3
643.949318E-3
643.729591E-3
642.345428E-3
640.231133E-3
637.798691E-3
635.178566E-3
632.502365E-3
630.380058E-3
628.688049E-3
627.533340E-3
626.761436E-3
626.468468E-3
626.395226E-3
626.612091E-3
626.937103E-3
627.325058E-3
627.338791E-3
626.788330E-3
625.921440E-3
624.958420E-3
623.900414E-3
623.139381E-3
622.691345E-3
622.705078E-3
623.099899E-3
623.636627E-3
624.263763E-3
624.855423E-3
625.322342E-3
625.801277E-3
625.835037E-3
625.674248E-3
625.452232E-3
625.134087E-3
624.695778E-3
624.077797E-3
623.511314E-3
622.899628E-3
622.287941E-3
621.795273E-3
621.428490E-3
620.944405E-3
620.646286E-3
620.257187E-3
619.928169E-3
619.598579E-3
619.355392E-3
619.065285E-3
618.860435E-3
618.676758E-3
618.504524E-3
618.224716E-3
618.049622E-3
617.920303E-3
617.772675E-3
617.608452E-3
617.495728E-3
617.479134E-3
617.252541E-3
617.215347E-3
617.094040E-3
617.050552E-3
616.972733E-3
616.837120E-3
616.695786E-3
616.646576E-3
616.565895E-3
616.486931E-3
616.247177E-3
616.089249E-3
615.978813E-3
615.892982E-3
615.889549E-3
615.725327E-3
615.624619E-3
615.485001E-3
615.377426E-3
615.144539E-3
614.788628E-3
614.597511E-3
614.409256E-3
614.018440E-3
613.703728E-3
613.306046E-3
613.051414E-3
612.884331E-3
612.796783E-3
612.815666E-3
612.901497E-3
613.414764E-3
614.661598E-3
616.890335E-3
620.553017E-3
625.011635E-3
630.337715E-3
635.731888E-3
640.785027E-3
644.903183E-3
647.499847E-3
648.693466E-3
648.389626E-3
647.024345E-3
644.845963E-3
642.303658E-3
639.636612E-3
637.269402E-3
635.124207E-3
633.511162E-3
632.169342E-3
631.498146E-3
631.129646E-3
631.157684E-3
631.456947E-3
631.890678E-3
632.279205E-3
632.389641E-3
632.146454E-3
631.274986E-3
630.292511E-3
629.288292E-3
628.329277E-3
627.739334E-3
627.442932E-3
627.501297E-3
627.893257E-3
628.321266E-3
628.811073E-3
629.400444E-3
629.835892E-3
630.112839E-3
630.142021E-3
629.969788E-3
629.643059E-3
629.083443E-3
628.570747E-3
628.032303E-3
627.401161E-3
626.619530E-3
626.056480E-3
625.646782E-3
625.117493E-3
624.706650E-3
624.290657E-3
623.855209E-3
623.647499E-3
623.463249E-3
623.139381E-3
622.826385E-3
622.572899E-3
622.375488E-3
621.985245E-3
621.719170E-3
621.644783E-3
621.485710E-3
621.325493E-3
621.105194E-3
621.054840E-3
620.936394E-3
620.736694E-3
620.648003E-3
620.589066E-3
620.496941E-3
620.342445E-3
620.148468E-3
619.948196E-3
619.715881E-3
619.446945E-3
619.187164E-3
618.933678E-3
618.721962E-3
618.423843E-3
618.273354E-3
618.055344E-3
617.871666E-3
617.710304E-3
617.558670E-3
617.605019E-3
617.399597E-3
617.337227E-3
617.126083E-3
617.048264E-3
616.787338E-3
616.444588E-3
616.216278E-3
616.002274E-3
615.724182E-3
615.348244E-3
615.140533E-3
614.962578E-3
614.987755E-3
615.058136E-3
615.493011E-3
617.126656E-3
619.982529E-3
623.942757E-3
628.817368E-3
634.279060E-3
639.974785E-3
645.007324E-3
648.881149E-3
651.266670E-3
652.190781E-3
651.785088E-3
650.217819E-3
648.027420E-3
645.459938E-3
642.681313E-3
640.372467E-3
638.439560E-3
636.867714E-3
635.866928E-3
635.335922E-3
635.239220E-3
635.386848E-3
635.614014E-3
635.979080E-3
636.450005E-3
636.639977E-3
636.286926E-3
635.437202E-3
634.261322E-3
632.835960E-3
631.548500E-3
630.501366E-3
629.902840E-3
629.509735E-3
629.647064E-3
629.927444E-3
630.346870E-3
630.814934E-3
631.116486E-3
631.296158E-3
631.357384E-3
631.194878E-3
630.883026E-3
630.401230E-3
629.780388E-3
629.204750E-3
628.432274E-3
627.713585E-3
627.088165E-3
626.334572E-3
625.761223E-3
625.098038E-3
624.656296E-3
624.248886E-3
623.792839E-3
623.355675E-3
623.041534E-3
622.651863E-3
622.354317E-3
622.057915E-3
621.845627E-3
621.535492E-3
621.257973E-3
621.070290E-3
620.909500E-3
620.784187E-3
620.642281E-3
620.480347E-3
620.439720E-3
620.225716E-3
620.217133E-3
620.066643E-3
619.904709E-3
619.708443E-3
619.620895E-3
619.493294E-3
619.157982E-3
618.843269E-3
618.596077E-3
618.325996E-3
618.096542E-3
617.800713E-3
617.545509E-3
617.395592E-3
617.294884E-3
617.104912E-3
617.013931E-3
616.871452E-3
616.761017E-3
616.546440E-3
616.485786E-3
616.145897E-3
615.900993E-3
615.652657E-3
615.297318E-3
615.006065E-3
614.575195E-3
614.366341E-3
614.398956E-3
614.301109E-3
614.262772E-3
614.190102E-3
614.509392E-3
615.614891E-3
617.930603E-3
621.532631E-3
626.103401E-3
631.342506E-3
636.713219E-3
641.449356E-3
645.388985E-3
647.872353E-3
648.514366E-3
648.046875E-3
646.566010E-3
644.308090E-3
641.764069E-3
639.125633E-3
636.710358E-3
634.614372E-3
633.082581E-3
632.099533E-3
631.403732E-3
631.140518E-3
631.281853E-3
631.540489E-3
631.871796E-3
632.137871E-3
632.240868E-3
631.620026E-3
630.656433E-3
629.412460E-3
628.405952E-3
627.699852E-3
627.253532E-3
627.270126E-3
627.603722E-3
628.309250E-3
628.916931E-3
629.546928E-3
630.078506E-3
630.325127E-3
630.336571E-3
630.173492E-3
629.810715E-3
629.391861E-3
628.834534E-3
628.316116E-3
627.710724E-3
627.029800E-3
626.548576E-3
626.059914E-3
625.582695E-3
625.147247E-3
624.754715E-3
624.588203E-3
624.263191E-3
623.939896E-3
623.689270E-3
623.423195E-3
623.325920E-3
623.059273E-3
622.937393E-3
622.850990E-3
622.693062E-3
622.625542E-3
622.443008E-3
622.394943E-3
622.448158E-3
622.334290E-3
622.234726E-3
622.187805E-3
622.171783E-3
621.989250E-3
621.816444E-3
621.764374E-3
621.581841E-3
621.438789E-3
621.358109E-3
621.195602E-3
621.148109E-3
620.862007E-3
620.626259E-3
620.457458E-3
620.368767E-3
620.115280E-3
619.905853E-3
619.741631E-3
619.597435E-3
619.248962E-3
618.890190E-3
618.446159E-3
618.109131E-3
617.722893E-3
617.300606E-3
617.183304E-3
617.106056E-3
617.043686E-3
617.120934E-3
617.320633E-3
617.712021E-3
618.755722E-3
620.813370E-3
624.209976E-3
628.581619E-3
633.709145E-3
639.079857E-3
644.150162E-3
648.284340E-3
651.051521E-3
652.393913E-3
652.262306E-3
651.072693E-3
648.977852E-3
646.405792E-3
643.864059E-3
641.370964E-3
639.370537E-3
637.612724E-3
636.409378E-3
635.818291E-3
635.414886E-3
635.367393E-3
635.614586E-3
635.992813E-3
636.385918E-3
636.356735E-3
635.875511E-3
635.024071E-3
633.798409E-3
632.766151E-3
631.831169E-3
631.365967E-3
631.324196E-3
631.461525E-3
631.969643E-3
632.724953E-3
633.309746E-3
633.871651E-3
634.083366E-3
634.408951E-3
634.346581E-3
634.043884E-3
633.707428E-3
633.304596E-3
632.696915E-3
631.927872E-3
631.317329E-3
630.901337E-3
630.254173E-3
629.793549E-3
629.316330E-3
629.038811E-3
628.647423E-3
628.154182E-3
627.977371E-3
627.807426E-3
627.446938E-3
627.201462E-3
626.933670E-3
626.887894E-3
626.482773E-3
626.162338E-3
625.958633E-3
625.753212E-3
625.689125E-3
625.507736E-3
625.266838E-3
625.250244E-3
625.076866E-3
624.977875E-3
624.787331E-3
624.538994E-3
624.387360E-3
624.126434E-3
624.029732E-3
623.799133E-3
623.468971E-3
623.155403E-3
622.880173E-3
622.667313E-3
622.349167E-3
622.167778E-3
622.019577E-3
621.854210E-3
621.661949E-3
621.511459E-3
621.423912E-3
621.355820E-3
621.113205E-3
621.007347E-3
620.750427E-3
620.464897E-3
620.279503E-3
619.930458E-3
619.652939E-3
619.297600E-3
619.026947E-3
619.116211E-3
619.083595E-3
619.228935E-3
619.667816E-3
620.773315E-3
623.181725E-3
626.839256E-3
631.420898E-3
636.833954E-3
642.453575E-3
647.918129E-3
652.270889E-3
655.106163E-3
656.508064E-3
656.497192E-3
655.419731E-3
653.265953E-3
650.897598E-3
648.288918E-3
645.941162E-3
643.957329E-3
642.438698E-3
641.447639E-3
641.060257E-3
641.021347E-3
641.281700E-3
641.756058E-3
642.347717E-3
642.864418E-3
643.117332E-3
643.053246E-3
642.384338E-3
641.171265E-3
639.757347E-3
638.297081E-3
637.267685E-3
636.421394E-3
635.948181E-3
636.005402E-3
636.436844E-3
636.902046E-3
637.348366E-3
637.940598E-3
638.207817E-3
638.343430E-3
638.263321E-3
638.037300E-3
637.795258E-3
637.272835E-3
636.659431E-3
636.028862E-3
635.338783E-3
634.716797E-3
633.901405E-3
633.349800E-3
632.854843E-3
632.397079E-3
631.966209E-3
631.574249E-3
631.145668E-3
630.720520E-3
630.326843E-3
629.964066E-3
629.535484E-3
629.211617E-3
629.078293E-3
628.754997E-3
628.454590E-3
628.274345E-3
628.091240E-3
627.933884E-3
627.735901E-3
627.662086E-3
627.415466E-3
627.296448E-3
627.065849E-3
626.725960E-3
626.412964E-3
626.075935E-3
625.863075E-3
625.528336E-3
625.185013E-3
624.827957E-3
624.478340E-3
624.046898E-3
623.779678E-3
623.408318E-3
623.163414E-3
622.940254E-3
622.809219E-3
622.719955E-3
622.586632E-3
622.465324E-3
622.226715E-3
622.126579E-3
621.848488E-3
621.573830E-3
621.393585E-3
620.983315E-3
620.625687E-3
620.344734E-3
619.905281E-3
619.672394E-3
619.492149E-3
619.503021E-3
619.575691E-3
619.520760E-3
619.997978E-3
621.221924E-3
623.708725E-3
627.405167E-3
631.996536E-3
637.245369E-3
642.744255E-3
647.713280E-3
651.520729E-3
653.815269E-3
654.600906E-3
654.006386E-3
652.405357E-3
650.119972E-3
647.586250E-3
644.875717E-3
642.484474E-3
640.469742E-3
638.952827E-3
638.112831E-3
637.778664E-3
637.706566E-3
637.954330E-3
638.359451E-3
638.955688E-3
639.348793E-3
639.307022E-3
638.793182E-3
637.863922E-3
636.462021E-3
634.998322E-3
633.894539E-3
633.263969E-3
633.011627E-3
633.040237E-3
633.434486E-3
634.112549E-3
634.661293E-3
635.195160E-3
635.367393E-3
635.581970E-3
635.351372E-3
634.955406E-3
634.510803E-3
634.050751E-3
633.484840E-3
632.770157E-3
632.148743E-3
631.455803E-3
630.882454E-3
630.319977E-3
629.818153E-3
629.283142E-3
628.898621E-3
628.341293E-3
627.913284E-3
627.508163E-3
627.039528E-3
626.739120E-3
626.493645E-3
626.247597E-3
626.040459E-3
625.720596E-3
625.606728E-3
625.393867E-3
625.333214E-3
625.126648E-3
624.993896E-3
624.880028E-3
624.803925E-3
624.650574E-3
624.605370E-3
624.467468E-3
624.259186E-3
624.017715E-3
623.880959E-3
623.666954E-3
623.441505E-3
623.332787E-3
623.200607E-3
623.081017E-3
622.941971E-3
622.704506E-3
622.604942E-3
622.584915E-3
622.453880E-3
622.254753E-3
621.996689E-3
621.905136E-3
621.700859E-3
621.356392E-3
621.063423E-3
620.834541E-3
620.524979E-3
620.385933E-3
620.381927E-3
620.485497E-3
620.574188E-3
620.621681E-3
620.710945E-3
621.261406E-3
622.550011E-3
624.808502E-3
628.395081E-3
632.831955E-3
637.893105E-3
643.012619E-3
647.733879E-3
651.389694E-3
653.552628E-3
654.192352E-3
653.541756E-3
651.886940E-3
649.520874E-3
646.846962E-3
644.340134E-3
641.998100E-3
640.205956E-3
638.735962E-3
637.754631E-3
637.314606E-3
637.185860E-3
637.279701E-3
637.618446E-3
637.905693E-3
638.011551E-3
637.561226E-3
636.581039E-3
635.376549E-3
634.168625E-3
633.150673E-3
632.517242E-3
632.345581E-3
632.683754E-3
633.383560E-3
634.146881E-3
634.899902E-3
635.646629E-3
636.107826E-3
636.305809E-3
636.361885E-3
636.062050E-3
635.520172E-3
635.018349E-3
634.298515E-3
633.431053E-3
632.754135E-3
632.087517E-3
631.586266E-3
630.948257E-3
630.437851E-3
630.056190E-3
629.719734E-3
629.348946E-3
628.952980E-3
628.660011E-3
628.435135E-3
628.266335E-3
627.981377E-3
627.660942E-3
627.495003E-3
627.318192E-3
626.993752E-3
626.920509E-3
626.799774E-3
626.783752E-3
626.637840E-3
626.451874E-3
626.388359E-3
626.206970E-3
626.092529E-3
625.995827E-3
625.938034E-3
625.745773E-3
625.507164E-3
625.303459E-3
625.090027E-3
624.790764E-3
624.521828E-3
624.276924E-3
624.212837E-3
624.060631E-3
623.834610E-3
623.701859E-3
623.620033E-3
623.476410E-3
623.372841E-3
623.169708E-3
623.113060E-3
622.871017E-3
622.663879E-3
622.215843E-3
621.893120E-3
621.573257E-3
621.326065E-3
621.000481E-3
620.793915E-3
620.750999E-3
620.839691E-3
620.908928E-3
621.203041E-3
622.154045E-3
624.160767E-3
627.675247E-3
632.010841E-3
637.316322E-3
643.058395E-3
648.413086E-3
653.019905E-3
656.290054E-3
657.873917E-3
658.066177E-3
656.917763E-3
655.028343E-3
652.500343E-3
649.822426E-3
647.444916E-3
645.236206E-3
643.608284E-3
642.515945E-3
641.951180E-3
641.923141E-3
642.177200E-3
642.610931E-3
643.175125E-3
643.727875E-3
644.131279E-3
643.995667E-3
643.529892E-3
642.324829E-3
640.789604E-3
639.409447E-3
638.140297E-3
637.342644E-3
636.660576E-3
636.589050E-3
636.871719E-3
637.291718E-3
637.893677E-3
638.427544E-3
638.789749E-3
638.999748E-3
638.992310E-3
638.950539E-3
638.682175E-3
638.253593E-3
637.659645E-3
636.957550E-3
636.302948E-3
635.709000E-3
634.959412E-3
634.388924E-3
633.939171E-3
633.463669E-3
632.972145E-3
632.500076E-3
632.169342E-3
631.739044E-3
631.261826E-3
630.984306E-3
630.642700E-3
630.459023E-3
630.109406E-3
629.790115E-3
629.531479E-3
629.286575E-3
629.145241E-3
628.924942E-3
628.822517E-3
628.698921E-3
628.579903E-3
628.392792E-3
628.188515E-3
627.924156E-3
627.787971E-3
627.529907E-3
627.261543E-3
626.977158E-3
626.668739E-3
626.386070E-3
626.095390E-3
625.734329E-3
625.290298E-3
625.047684E-3
624.776459E-3
624.632263E-3
624.478912E-3
624.237442E-3
624.151039E-3
623.956490E-3
623.727608E-3
623.562241E-3
623.205185E-3
622.912788E-3
622.445869E-3
622.188950E-3
621.889687E-3
621.485138E-3
621.164131E-3
620.812225E-3
620.593071E-3
620.559883E-3
620.642281E-3
620.856857E-3
621.695137E-3
623.690414E-3
626.875305E-3
631.147385E-3
636.198807E-3
641.527176E-3
646.675301E-3
651.088142E-3
654.037285E-3
655.343056E-3
655.287552E-3
654.101372E-3
651.937294E-3
649.300003E-3
646.598053E-3
644.241714E-3
642.045021E-3
640.422249E-3
639.339638E-3
638.817215E-3
638.682747E-3
638.737679E-3
639.212036E-3
639.761353E-3
640.254021E-3
640.544701E-3
640.410805E-3
639.875793E-3
638.602638E-3
637.291145E-3
635.981941E-3
634.965706E-3
634.251022E-3
633.973503E-3
634.085655E-3
634.535408E-3
635.173988E-3
635.777664E-3
