Notes :


2023-11-06 ¿ÀÈÄ 10:46:59
Volts
Ch : LED 2,
392.680550E-3
392.587280E-3
392.485428E-3
392.503738E-3
392.473412E-3
392.386436E-3
392.346954E-3
392.291451E-3
392.221642E-3
392.173004E-3
392.107201E-3
392.128372E-3
392.110062E-3
391.920662E-3
392.007065E-3
391.988182E-3
391.963005E-3
392.028809E-3
391.909218E-3
391.882324E-3
391.821098E-3
391.636276E-3
391.680336E-3
391.540146E-3
391.677475E-3
391.490364E-3
391.380501E-3
391.371918E-3
391.386795E-3
391.485214E-3
391.734695E-3
392.256546E-3
392.926598E-3
393.669891E-3
394.182587E-3
394.631195E-3
395.147896E-3
395.389366E-3
395.438576E-3
395.463181E-3
395.385361E-3
395.268631E-3
395.135880E-3
394.779396E-3
394.650078E-3
394.421196E-3
394.286156E-3
394.180870E-3
394.194031E-3
394.255257E-3
394.222641E-3
394.435501E-3
394.274712E-3
394.164848E-3
394.255257E-3
394.032097E-3
393.869019E-3
393.795776E-3
393.696785E-3
393.700790E-3
393.664742E-3
393.634987E-3
393.622971E-3
393.634415E-3
393.708801E-3
393.869591E-3
393.935394E-3
393.949127E-3
393.908501E-3
393.952560E-3
393.949699E-3
393.911934E-3
393.839264E-3
393.792343E-3
393.716812E-3
393.663597E-3
393.648148E-3
393.569183E-3
393.445587E-3
393.396950E-3
393.376350E-3
393.260193E-3
393.266487E-3
393.115425E-3
393.115425E-3
393.160057E-3
393.024445E-3
392.955780E-3
392.910004E-3
392.860794E-3
392.744637E-3
392.685699E-3
392.639351E-3
392.523766E-3
392.480850E-3
392.439651E-3
392.423630E-3
392.474556E-3
392.404747E-3
392.342949E-3
392.330933E-3
392.255974E-3
392.273140E-3
392.173576E-3
392.139244E-3
392.075729E-3
392.105484E-3
392.065430E-3
392.036247E-3
391.909790E-3
391.973305E-3
391.896057E-3
391.886902E-3
392.128944E-3
392.508316E-3
393.075943E-3
393.665886E-3
394.372559E-3
394.960785E-3
395.538139E-3
395.831108E-3
395.881462E-3
396.053123E-3
395.952988E-3
395.907784E-3
395.731544E-3
395.464897E-3
395.318985E-3
395.082092E-3
394.980240E-3
394.939041E-3
394.842911E-3
394.801712E-3
394.816589E-3
394.787407E-3
394.880104E-3
394.800568E-3
394.800568E-3
394.655800E-3
394.649506E-3
394.414902E-3
394.232941E-3
394.267273E-3
394.208336E-3
394.242096E-3
394.274712E-3
394.303322E-3
394.347382E-3
394.559669E-3
394.543648E-3
394.586563E-3
394.575691E-3
394.582558E-3
394.528198E-3
394.520760E-3
394.476128E-3
394.484711E-3
394.402313E-3
394.365120E-3
394.326210E-3
394.204903E-3
394.222641E-3
394.261551E-3
394.105911E-3
393.931961E-3
394.014931E-3
393.978882E-3
393.990898E-3
393.997765E-3
393.949699E-3
393.842697E-3
393.724251E-3
393.759727E-3
393.505096E-3
393.559456E-3
393.529701E-3
393.470764E-3
393.458176E-3
393.497658E-3
393.434715E-3
393.438721E-3
393.368912E-3
393.524551E-3
393.410683E-3
393.374634E-3
393.366623E-3
393.282509E-3
393.207550E-3
393.210983E-3
393.168640E-3
393.078804E-3
392.819023E-3
392.947197E-3
392.916298E-3
392.991257E-3
392.959213E-3
392.943764E-3
393.084526E-3
393.472481E-3
394.028091E-3
394.366264E-3
395.101547E-3
395.803642E-3
396.361542E-3
396.663666E-3
396.792412E-3
396.783257E-3
396.819878E-3
396.672249E-3
396.719742E-3
396.438217E-3
396.201897E-3
395.959282E-3
395.783043E-3
395.621109E-3
395.577049E-3
395.563889E-3
395.657730E-3
395.713806E-3
395.705223E-3
395.674324E-3
395.494652E-3
395.396233E-3
395.249176E-3
395.130157E-3
395.086098E-3
395.081520E-3
395.068359E-3
395.073509E-3
395.211411E-3
395.202255E-3
395.298958E-3
395.430565E-3
395.490074E-3
395.536423E-3
395.538139E-3
395.510674E-3
395.506096E-3
395.389938E-3
395.335579E-3
395.250893E-3
395.131302E-3
395.064354E-3
395.112419E-3
395.082664E-3
394.957352E-3
394.823456E-3
394.789696E-3
394.764519E-3
394.575691E-3
394.545937E-3
394.384003E-3
394.430351E-3
394.286728E-3
394.149399E-3
394.224358E-3
394.081879E-3
394.006348E-3
393.913651E-3
393.782616E-3
393.801498E-3
393.703651E-3
393.729401E-3
393.601227E-3
393.538284E-3
393.538284E-3
393.471336E-3
393.475342E-3
393.447304E-3
393.442154E-3
393.292809E-3
393.218994E-3
393.205833E-3
393.166351E-3
393.050766E-3
392.923737E-3
392.770958E-3
392.723465E-3
392.617035E-3
392.463684E-3
392.535782E-3
392.551231E-3
392.459106E-3
392.451096E-3
392.555809E-3
392.880249E-3
393.368340E-3
393.953705E-3
394.572258E-3
395.201111E-3
395.755577E-3
396.074867E-3
396.306610E-3
396.302605E-3
396.258545E-3
396.094894E-3
395.946121E-3
395.757294E-3
395.584488E-3
395.377350E-3
395.240021E-3
395.111847E-3
395.132446E-3
395.090675E-3
395.047760E-3
395.130157E-3
395.202827E-3
395.252609E-3
395.204544E-3
395.055771E-3
394.968224E-3
394.815445E-3
394.751358E-3
394.745064E-3
394.663811E-3
394.649506E-3
394.675827E-3
394.743919E-3
394.833755E-3
394.790268E-3
394.884682E-3
394.901848E-3
394.810867E-3
394.939613E-3
394.897842E-3
394.906998E-3
394.818878E-3
394.818306E-3
394.699860E-3
394.692993E-3
394.589424E-3
394.297028E-3
394.401741E-3
394.352531E-3
394.294167E-3
394.260406E-3
394.178009E-3
394.166565E-3
394.036674E-3
393.996620E-3
393.837547E-3
393.790627E-3
393.802643E-3
393.722534E-3
393.628693E-3
393.587494E-3
393.487930E-3
393.481064E-3
393.418121E-3
393.455887E-3
393.332863E-3
393.236732E-3
393.290520E-3
393.217850E-3
393.221855E-3
393.201828E-3
393.101120E-3
393.063354E-3
392.846489E-3
392.949486E-3
392.926598E-3
392.825890E-3
392.838478E-3
392.823601E-3
392.745781E-3
392.687416E-3
392.630196E-3
392.694855E-3
392.517471E-3
392.456818E-3
392.479134E-3
392.342949E-3
392.262840E-3
392.334366E-3
392.412186E-3
392.603302E-3
393.026733E-3
393.642426E-3
394.320488E-3
394.892120E-3
395.568466E-3
395.936966E-3
396.311760E-3
396.372414E-3
396.462822E-3
396.473122E-3
396.258545E-3
396.215630E-3
396.050835E-3
395.954704E-3
395.841408E-3
395.709229E-3
395.720673E-3
395.661736E-3
395.622253E-3
395.719528E-3
395.706367E-3
395.698929E-3
395.685196E-3
395.629120E-3
395.531273E-3
395.589066E-3
395.308113E-3
395.191956E-3
395.194817E-3
395.111275E-3
395.040894E-3
394.995689E-3
394.997406E-3
394.986534E-3
395.174789E-3
395.165634E-3
395.179939E-3
395.269775E-3
395.157051E-3
395.169067E-3
395.154762E-3
395.099831E-3
395.051193E-3
394.909286E-3
394.807434E-3
394.686699E-3
394.717598E-3
394.644356E-3
394.605446E-3
394.536781E-3
394.520760E-3
394.480705E-3
394.362259E-3
394.369698E-3
394.361687E-3
394.279289E-3
394.159126E-3
394.148254E-3
394.001198E-3
394.013786E-3
393.886185E-3
394.029236E-3
393.938828E-3
393.883324E-3
393.859863E-3
393.786621E-3
393.718529E-3
393.674469E-3
393.552017E-3
393.658447E-3
393.589211E-3
393.590355E-3
393.587494E-3
393.541718E-3
393.539429E-3
393.522835E-3
393.510246E-3
393.391228E-3
393.409538E-3
393.535423E-3
393.507957E-3
393.473053E-3
393.499374E-3
393.402100E-3
393.348312E-3
393.309402E-3
393.190956E-3
393.301964E-3
393.218994E-3
393.241882E-3
393.171501E-3
393.383789E-3
393.798637E-3
394.415474E-3
394.982529E-3
395.634270E-3
396.306038E-3
396.723175E-3
396.988678E-3
397.143745E-3
397.116280E-3
397.061348E-3
396.995544E-3
396.819878E-3
396.712875E-3
396.530914E-3
396.272278E-3
396.244240E-3
396.090317E-3
396.123505E-3
396.058846E-3
396.110916E-3
396.175003E-3
396.002197E-3
396.069145E-3
396.057129E-3
396.000481E-3
395.933533E-3
395.829391E-3
395.789337E-3
395.630836E-3
395.663452E-3
395.875168E-3
395.694351E-3
395.748138E-3
395.830536E-3
395.929527E-3
395.928955E-3
395.910072E-3
395.927238E-3
396.013641E-3
396.221924E-3
396.070862E-3
395.963860E-3
395.928383E-3
395.870590E-3
395.741272E-3
395.712662E-3
395.696068E-3
395.621109E-3
395.489502E-3
395.442581E-3
395.343018E-3
395.248032E-3
395.216560E-3
395.109558E-3
395.054626E-3
394.871521E-3
394.848061E-3
394.905281E-3
394.794273E-3
394.724464E-3
394.747925E-3
394.605446E-3
394.626045E-3
394.547081E-3
394.666100E-3
394.612885E-3
394.480133E-3
394.425774E-3
394.401169E-3
394.353104E-3
394.358826E-3
394.319344E-3
394.224358E-3
394.187164E-3
394.211197E-3
394.077873E-3
394.038963E-3
394.023514E-3
393.933105E-3
393.866158E-3
393.812370E-3
393.696213E-3
393.541718E-3
393.548012E-3
393.546295E-3
393.601227E-3
393.514824E-3
393.414116E-3
393.529129E-3
393.749428E-3
394.139671E-3
394.757652E-3
395.452881E-3
396.037102E-3
396.521187E-3
396.928024E-3
397.052193E-3
397.128296E-3
397.190094E-3
397.023010E-3
396.922874E-3
396.720886E-3
396.563530E-3
396.259117E-3
396.021080E-3
395.959854E-3
395.825958E-3
395.920372E-3
395.932388E-3
395.792198E-3
395.837975E-3
395.804214E-3
395.725250E-3
395.720100E-3
395.653152E-3
395.458603E-3
395.250893E-3
395.176506E-3
395.108414E-3
395.161057E-3
395.061493E-3
395.050049E-3
395.155907E-3
395.212555E-3
395.127869E-3
395.353317E-3
395.324707E-3
395.286369E-3
395.261192E-3
395.234299E-3
395.270348E-3
395.083809E-3
395.057487E-3
394.977951E-3
394.985390E-3
394.913864E-3
394.752502E-3
394.653511E-3
394.563103E-3
394.406891E-3
394.435501E-3
394.409752E-3
394.376564E-3
394.418907E-3
394.290733E-3
394.187164E-3
394.040680E-3
393.948555E-3
393.901634E-3
393.911934E-3
393.827248E-3
393.819809E-3
393.863297E-3
393.762016E-3
393.589783E-3
393.550301E-3
393.596649E-3
393.629265E-3
393.485641E-3
393.419266E-3
393.481064E-3
393.432999E-3
393.348312E-3
393.269348E-3
393.247032E-3
393.325996E-3
393.303680E-3
393.278503E-3
393.182945E-3
393.215561E-3
393.129730E-3
393.050766E-3
393.000412E-3
392.941475E-3
392.854500E-3
392.897987E-3
392.825890E-3
392.611313E-3
392.801857E-3
392.757225E-3
392.922592E-3
393.180656E-3
393.673325E-3
394.308472E-3
394.881248E-3
395.561028E-3
395.983887E-3
396.413040E-3
396.647072E-3
396.744919E-3
396.800995E-3
396.622467E-3
396.538353E-3
396.374702E-3
396.072006E-3
396.141243E-3
395.915222E-3
395.738411E-3
395.759010E-3
395.744133E-3
395.862579E-3
395.836258E-3
395.908928E-3
395.840836E-3
395.820808E-3
395.845985E-3
395.719528E-3
395.609665E-3
395.482635E-3
395.329285E-3
395.223427E-3
395.256615E-3
395.241165E-3
395.272064E-3
395.129585E-3
395.186806E-3
395.240593E-3
395.276642E-3
395.164490E-3
395.250893E-3
395.387077E-3
395.163345E-3
394.984245E-3
395.217133E-3
395.118713E-3
394.912148E-3
394.920731E-3
394.955635E-3
394.886971E-3
394.727898E-3
394.688988E-3
394.616318E-3
394.607735E-3
394.383430E-3
394.462395E-3
394.450951E-3
394.250679E-3
394.114494E-3
394.250679E-3
394.234657E-3
394.016075E-3
393.905067E-3
393.940544E-3
393.882179E-3
393.678474E-3
393.705940E-3
393.676758E-3
393.747139E-3
393.581200E-3
393.527985E-3
393.521690E-3
393.454742E-3
393.388367E-3
393.395233E-3
393.403816E-3
393.339157E-3
393.395233E-3
393.305969E-3
393.277931E-3
393.211555E-3
393.276787E-3
393.196106E-3
393.141747E-3
393.081093E-3
393.093681E-3
392.817879E-3
392.887115E-3
392.725182E-3
392.986107E-3
392.810440E-3
392.697716E-3
392.772102E-3
392.753792E-3
392.583275E-3
392.629623E-3
393.035889E-3
393.501663E-3
394.016075E-3
394.718170E-3
395.383072E-3
395.944977E-3
396.268845E-3
396.599007E-3
397.096825E-3
396.837044E-3
396.720314E-3
396.624184E-3
396.546936E-3
396.334076E-3
396.022224E-3
395.960426E-3
395.931816E-3
395.650864E-3
395.820808E-3
395.899773E-3
395.958710E-3
395.931244E-3
395.926094E-3
396.104622E-3
395.992470E-3
395.877457E-3
395.892906E-3
395.830536E-3
395.569038E-3
395.442009E-3
395.464325E-3
395.422554E-3
395.412254E-3
395.346451E-3
395.376205E-3
395.463753E-3
395.629692E-3
395.601654E-3
395.524979E-3
395.626831E-3
395.760727E-3
395.695496E-3
395.424843E-3
395.589066E-3
395.511246E-3
395.331573E-3
395.304108E-3
395.274353E-3
395.298958E-3
395.115280E-3
395.147324E-3
394.929314E-3
394.964218E-3
394.832611E-3
394.908714E-3
394.963646E-3
394.782257E-3
394.589424E-3
394.683266E-3
394.671249E-3
394.631195E-3
394.414902E-3
394.418907E-3
394.443512E-3
394.305038E-3
394.306755E-3
394.285011E-3
394.240952E-3
394.106483E-3
394.105911E-3
394.206619E-3
394.105339E-3
394.016075E-3
393.994331E-3
393.982887E-3
393.966866E-3
393.860435E-3
393.938255E-3
394.095039E-3
393.933678E-3
393.921661E-3
393.839264E-3
393.736267E-3
393.603516E-3
393.586922E-3
393.606949E-3
393.549156E-3
393.387794E-3
393.515968E-3
393.420982E-3
393.344879E-3
393.356895E-3
393.579483E-3
393.946266E-3
394.433212E-3
395.006561E-3
395.610237E-3
396.197319E-3
396.573830E-3
396.906281E-3
397.088814E-3
397.025871E-3
396.989822E-3
396.802711E-3
396.738625E-3
396.574974E-3
396.385002E-3
396.154976E-3
396.010208E-3
395.864296E-3
395.791626E-3
395.841980E-3
395.872307E-3
395.821953E-3
395.838547E-3
395.903206E-3
395.845985E-3
395.662880E-3
395.570183E-3
395.411682E-3
395.209694E-3
395.031166E-3
395.051765E-3
395.026016E-3
394.976807E-3
395.103836E-3
395.120430E-3
395.170784E-3
395.237732E-3
395.231438E-3
395.337296E-3
395.284653E-3
395.154762E-3
395.143318E-3
395.070076E-3
394.960213E-3
394.907570E-3
394.924736E-3
394.772530E-3
394.476700E-3
394.616318E-3
394.561958E-3
394.470406E-3
394.382858E-3
394.225502E-3
394.129372E-3
394.148827E-3
394.089317E-3
394.067574E-3
393.899345E-3
393.833542E-3
393.815804E-3
393.708229E-3
393.741989E-3
393.586922E-3
393.552589E-3
393.491936E-3
393.367195E-3
393.390083E-3
393.338585E-3
393.382645E-3
393.295097E-3
393.233871E-3
393.299675E-3
393.307114E-3
393.229866E-3
393.175507E-3
393.034172E-3
393.035316E-3
393.045616E-3
393.022728E-3
392.978096E-3
392.935181E-3
392.925453E-3
392.807579E-3
392.811012E-3
392.766953E-3
392.697716E-3
392.733192E-3
392.582130E-3
392.570114E-3
392.526627E-3
392.455673E-3
392.516899E-3
392.741776E-3
393.265343E-3
393.813515E-3
394.397163E-3
395.035172E-3
395.511246E-3
395.985603E-3
396.470261E-3
396.530914E-3
396.450806E-3
396.417046E-3
396.395874E-3
396.228790E-3
396.003342E-3
395.890617E-3
395.650291E-3
395.602226E-3
395.483208E-3
395.419121E-3
395.518684E-3
395.422554E-3
395.461464E-3
395.500946E-3
395.500946E-3
395.504379E-3
395.435715E-3
395.416260E-3
395.286942E-3
395.174217E-3
395.027161E-3
394.960785E-3
394.973373E-3
394.995117E-3
394.870377E-3
394.791985E-3
394.895554E-3
394.996834E-3
394.965363E-3
395.063782E-3
395.054626E-3
395.086670E-3
395.085526E-3
395.123863E-3
394.964790E-3
394.833183E-3
394.836617E-3
394.727898E-3
394.694138E-3
394.614029E-3
394.549370E-3
394.557953E-3
394.449234E-3
394.408607E-3
394.279861E-3
394.316483E-3
394.174004E-3
394.075584E-3
394.080734E-3
393.955994E-3
393.780899E-3
393.751717E-3
393.709946E-3
393.752289E-3
393.663597E-3
393.589783E-3
393.526840E-3
393.506241E-3
393.378639E-3
393.013573E-3
393.198967E-3
393.196106E-3
393.263626E-3
393.171501E-3
393.036461E-3
393.110275E-3
393.070221E-3
393.086243E-3
393.157768E-3
392.931747E-3
392.808151E-3
392.873955E-3
392.865944E-3
392.838478E-3
392.776108E-3
392.763519E-3
392.641640E-3
392.720604E-3
392.555809E-3
392.468834E-3
392.435646E-3
392.429352E-3
392.366409E-3
392.290878E-3
392.028809E-3
392.061996E-3
392.182159E-3
392.298317E-3
