Notes :


2023-11-11 ¿ÀÀü 12:04:11
Volts
Ch : LED 2,
727.989578E-3
727.848244E-3
727.295494E-3
727.122116E-3
726.734161E-3
726.464653E-3
726.170540E-3
725.956535E-3
725.632095E-3
725.277901E-3
724.816132E-3
724.896812E-3
724.600983E-3
724.549484E-3
724.290848E-3
724.156952E-3
724.029922E-3
723.666573E-3
723.468590E-3
723.410797E-3
723.100090E-3
722.961617E-3
722.492409E-3
722.379684E-3
722.098732E-3
721.695900E-3
721.517372E-3
721.179199E-3
720.811272E-3
720.681953E-3
720.351219E-3
720.187569E-3
719.840240E-3
719.781876E-3
719.659996E-3
719.641685E-3
719.385338E-3
719.155884E-3
719.097519E-3
718.829727E-3
718.621445E-3
718.581963E-3
718.151093E-3
717.753983E-3
717.584038E-3
717.038155E-3
716.702271E-3
716.275978E-3
716.100311E-3
715.881729E-3
715.840530E-3
715.961266E-3
716.273117E-3
717.728233E-3
720.391846E-3
724.495125E-3
729.763985E-3
735.458565E-3
741.113663E-3
746.150780E-3
749.849510E-3
752.531433E-3
753.653526E-3
753.490448E-3
752.299118E-3
750.497818E-3
748.441887E-3
746.246910E-3
744.175529E-3
742.460632E-3
740.767479E-3
739.856529E-3
739.102364E-3
738.716698E-3
738.696098E-3
738.700104E-3
739.006805E-3
739.088058E-3
739.049721E-3
738.284111E-3
737.164307E-3
735.743523E-3
734.165955E-3
733.241844E-3
732.709694E-3
732.686806E-3
733.126831E-3
733.778000E-3
734.521866E-3
735.546112E-3
736.155510E-3
736.758041E-3
736.992645E-3
737.077904E-3
736.790085E-3
736.371231E-3
735.966110E-3
735.082626E-3
734.247208E-3
733.261299E-3
732.286835E-3
731.369019E-3
730.385971E-3
729.484177E-3
728.750038E-3
728.189278E-3
727.784157E-3
727.210808E-3
726.987076E-3
726.528740E-3
726.153374E-3
726.014328E-3
725.764275E-3
725.562286E-3
725.256729E-3
724.954033E-3
724.845314E-3
724.481392E-3
724.291420E-3
724.229050E-3
723.851967E-3
723.925209E-3
723.538399E-3
723.502350E-3
723.238564E-3
722.942734E-3
722.898102E-3
722.670364E-3
722.443771E-3
722.126198E-3
721.996307E-3
721.829224E-3
721.406364E-3
721.105385E-3
720.879936E-3
720.533180E-3
720.253372E-3
719.887161E-3
719.958687E-3
719.472885E-3
719.254875E-3
719.150734E-3
718.752480E-3
718.646622E-3
718.365097E-3
717.952538E-3
717.865562E-3
717.383194E-3
717.015839E-3
716.548347E-3
716.068268E-3
715.780449E-3
715.343857E-3
714.940453E-3
714.702988E-3
714.481544E-3
714.711571E-3
714.985657E-3
716.267967E-3
718.960190E-3
722.827148E-3
728.174973E-3
733.953094E-3
739.841080E-3
745.291328E-3
749.581146E-3
752.773476E-3
754.110718E-3
754.434586E-3
753.351402E-3
751.708031E-3
749.965096E-3
747.846794E-3
745.945930E-3
744.215584E-3
742.646599E-3
741.794014E-3
740.963745E-3
740.689659E-3
740.693092E-3
741.005516E-3
741.299057E-3
741.569138E-3
741.785431E-3
741.724205E-3
740.760612E-3
739.615631E-3
737.828636E-3
736.310577E-3
735.189629E-3
734.532738E-3
734.426880E-3
734.577370E-3
735.152435E-3
735.758972E-3
736.435890E-3
737.218094E-3
737.634659E-3
737.940216E-3
737.943077E-3
737.646675E-3
737.347984E-3
736.550331E-3
735.692596E-3
734.928703E-3
734.050369E-3
733.226967E-3
732.091713E-3
731.267738E-3
730.536461E-3
729.843521E-3
729.513359E-3
728.800964E-3
728.556061E-3
728.186417E-3
727.767563E-3
727.563858E-3
727.117538E-3
726.831436E-3
726.535034E-3
726.287842E-3
726.126480E-3
725.735664E-3
725.606346E-3
725.361443E-3
725.073051E-3
724.870491E-3
724.493980E-3
724.544907E-3
724.310875E-3
724.196434E-3
724.130630E-3
723.900032E-3
723.610497E-3
723.560143E-3
723.120689E-3
723.097229E-3
722.668648E-3
722.453499E-3
722.280121E-3
721.733665E-3
721.664429E-3
721.230698E-3
720.992661E-3
720.727158E-3
720.433617E-3
720.215607E-3
719.835663E-3
719.744110E-3
719.477463E-3
719.207382E-3
719.185638E-3
718.903542E-3
718.757629E-3
718.461227E-3
718.387413E-3
718.214035E-3
717.696190E-3
717.242432E-3
716.845894E-3
716.320038E-3
715.854836E-3
715.362740E-3
714.996529E-3
714.634895E-3
714.344788E-3
714.520454E-3
715.052032E-3
716.318893E-3
718.995094E-3
723.154449E-3
728.716850E-3
734.535027E-3
740.545464E-3
746.063232E-3
750.373650E-3
753.355408E-3
754.768753E-3
754.917526E-3
754.074669E-3
752.482224E-3
750.494385E-3
748.376656E-3
746.546173E-3
744.763756E-3
743.369865E-3
742.626572E-3
741.987419E-3
741.790009E-3
742.076683E-3
742.334747E-3
742.910385E-3
743.326378E-3
743.399048E-3
743.366432E-3
742.580795E-3
741.559410E-3
739.863968E-3
738.407707E-3
737.203789E-3
736.461067E-3
736.279678E-3
736.393547E-3
736.818123E-3
737.493324E-3
738.161659E-3
738.824272E-3
739.199066E-3
739.352417E-3
739.415359E-3
739.054298E-3
738.526726E-3
737.818909E-3
737.160873E-3
736.296844E-3
735.478592E-3
734.656906E-3
733.669853E-3
732.817841E-3
732.147217E-3
731.347275E-3
730.971909E-3
730.392265E-3
729.858398E-3
729.698181E-3
729.266739E-3
728.984642E-3
728.490257E-3
728.281403E-3
727.975273E-3
727.666283E-3
727.387047E-3
727.085495E-3
726.924133E-3
726.634598E-3
726.367950E-3
726.339912E-3
725.990295E-3
725.878716E-3
725.732803E-3
725.551414E-3
725.478745E-3
725.164604E-3
725.132561E-3
724.933434E-3
724.401855E-3
724.155807E-3
723.831367E-3
723.641396E-3
723.296928E-3
722.920990E-3
722.669792E-3
722.389984E-3
722.120476E-3
721.869850E-3
721.584320E-3
721.459579E-3
721.130562E-3
721.000671E-3
720.838165E-3
720.561218E-3
720.518875E-3
720.233917E-3
720.007896E-3
719.650841E-3
719.262314E-3
718.920708E-3
718.385124E-3
718.078995E-3
717.781448E-3
717.324829E-3
717.114830E-3
716.858482E-3
716.710281E-3
716.846466E-3
716.844749E-3
717.697334E-3
719.688034E-3
723.239136E-3
728.017616E-3
733.390617E-3
739.260864E-3
744.427872E-3
748.985481E-3
752.044487E-3
753.766251E-3
754.105568E-3
753.144836E-3
751.594734E-3
749.601746E-3
747.477150E-3
745.493317E-3
743.532372E-3
741.989708E-3
740.606689E-3
739.768982E-3
739.399338E-3
739.227676E-3
739.493179E-3
739.721489E-3
739.771843E-3
739.704895E-3
739.108658E-3
737.960243E-3
736.431313E-3
734.849739E-3
733.824921E-3
733.114243E-3
733.105087E-3
733.519936E-3
734.034348E-3
735.097504E-3
735.856819E-3
736.826134E-3
737.378311E-3
737.628937E-3
737.725639E-3
737.539101E-3
737.050438E-3
736.413002E-3
735.526085E-3
734.672928E-3
733.634377E-3
732.719421E-3
731.834793E-3
730.923843E-3
730.131912E-3
729.464722E-3
728.855896E-3
728.383255E-3
727.761269E-3
727.412796E-3
726.995659E-3
726.695824E-3
726.484108E-3
726.125336E-3
726.004601E-3
725.617218E-3
725.366592E-3
725.176048E-3
724.857903E-3
724.727440E-3
724.545479E-3
724.299431E-3
724.125481E-3
723.960686E-3
723.823929E-3
723.517799E-3
723.286057E-3
723.094940E-3
722.936440E-3
722.820282E-3
722.571945E-3
722.282410E-3
722.103310E-3
721.789742E-3
721.528244E-3
721.174622E-3
720.941734E-3
720.766068E-3
720.383263E-3
720.100594E-3
719.739532E-3
719.691467E-3
719.398499E-3
719.163895E-3
719.127274E-3
718.720436E-3
718.403435E-3
718.304443E-3
717.859268E-3
717.615509E-3
717.015266E-3
716.578674E-3
716.182137E-3
715.712357E-3
715.359306E-3
714.946175E-3
714.889526E-3
714.900970E-3
715.072060E-3
716.042519E-3
717.693329E-3
720.836449E-3
725.539970E-3
731.133270E-3
737.166595E-3
742.858887E-3
747.899437E-3
751.707458E-3
753.911018E-3
754.796219E-3
754.214287E-3
753.008080E-3
751.146126E-3
748.965454E-3
747.148705E-3
745.279312E-3
743.692017E-3
742.604828E-3
741.832924E-3
741.616058E-3
741.403198E-3
741.645813E-3
742.149925E-3
742.435455E-3
742.987633E-3
742.758179E-3
742.608833E-3
741.406059E-3
739.774704E-3
738.242340E-3
736.861610E-3
735.871696E-3
735.489464E-3
735.302925E-3
735.693741E-3
736.100006E-3
736.837006E-3
737.644958E-3
737.977409E-3
738.395691E-3
738.440895E-3
738.293839E-3
737.849808E-3
737.212944E-3
736.588669E-3
735.651970E-3
734.852600E-3
733.962822E-3
732.993507E-3
732.323456E-3
731.391907E-3
730.718422E-3
730.167961E-3
729.704475E-3
729.290199E-3
728.970337E-3
728.593826E-3
728.312874E-3
727.972412E-3
727.810478E-3
727.467155E-3
727.197075E-3
726.965332E-3
726.738739E-3
726.624298E-3
726.270103E-3
726.036644E-3
725.771141E-3
725.387192E-3
725.360298E-3
725.062752E-3
724.954033E-3
724.829292E-3
724.517441E-3
724.374390E-3
724.101448E-3
723.856544E-3
723.688889E-3
723.330688E-3
723.064041E-3
722.637749E-3
722.399139E-3
722.110176E-3
721.729660E-3
721.505928E-3
721.103096E-3
720.870209E-3
720.786095E-3
720.446777E-3
720.275688E-3
719.939232E-3
719.701767E-3
719.698334E-3
719.227409E-3
719.074631E-3
718.804550E-3
718.429184E-3
718.090439E-3
717.673302E-3
717.305946E-3
716.746330E-3
716.447067E-3
716.255379E-3
715.883446E-3
716.061401E-3
716.069984E-3
716.746330E-3
718.335915E-3
721.205521E-3
725.567436E-3
730.953026E-3
736.932564E-3
742.909813E-3
748.071671E-3
752.249908E-3
754.932976E-3
756.179810E-3
756.169510E-3
755.027962E-3
753.473854E-3
751.510620E-3
749.414635E-3
747.667122E-3
746.019173E-3
744.890785E-3
743.923759E-3
743.504333E-3
743.642807E-3
743.785858E-3
744.293404E-3
744.633865E-3
744.925117E-3
745.048141E-3
744.743729E-3
743.914032E-3
742.267799E-3
740.689087E-3
739.233398E-3
738.139915E-3
737.730217E-3
737.702179E-3
737.977409E-3
738.625717E-3
739.287758E-3
740.033913E-3
740.483665E-3
740.804100E-3
740.829277E-3
740.533447E-3
740.203285E-3
739.709473E-3
739.000511E-3
738.240623E-3
737.288475E-3
736.670494E-3
735.579872E-3
734.874916E-3
734.057236E-3
733.417511E-3
732.709122E-3
732.212448E-3
731.835937E-3
731.488609E-3
731.084061E-3
730.736160E-3
730.336761E-3
729.995728E-3
729.831505E-3
729.376602E-3
729.235840E-3
729.024696E-3
728.827286E-3
728.566360E-3
728.305435E-3
728.129196E-3
728.001595E-3
727.788734E-3
727.718353E-3
727.426529E-3
727.275467E-3
727.055168E-3
726.857185E-3
726.709557E-3
726.402855E-3
726.154518E-3
725.921059E-3
725.739098E-3
725.459862E-3
725.020981E-3
724.936867E-3
724.469376E-3
724.366951E-3
724.000168E-3
723.732376E-3
723.766708E-3
723.545265E-3
723.380470E-3
723.215103E-3
722.882652E-3
722.764778E-3
722.511864E-3
722.246361E-3
721.919060E-3
721.402359E-3
721.029854E-3
720.677376E-3
720.318031E-3
719.903755E-3
719.408798E-3
719.262314E-3
719.106102E-3
719.038582E-3
719.098091E-3
719.507217E-3
721.078491E-3
724.081421E-3
728.365517E-3
733.675575E-3
739.213943E-3
744.903374E-3
749.468422E-3
753.024673E-3
755.082321E-3
755.763817E-3
755.420494E-3
754.004860E-3
752.125740E-3
750.205421E-3
748.005867E-3
746.290970E-3
744.592094E-3
743.238831E-3
742.471504E-3
741.832352E-3
741.726494E-3
741.827202E-3
742.172241E-3
742.288971E-3
741.964531E-3
741.607475E-3
740.307999E-3
738.736153E-3
737.345123E-3
735.900307E-3
735.372162E-3
735.138702E-3
735.479164E-3
736.167526E-3
736.979485E-3
738.068962E-3
738.961601E-3
739.391327E-3
739.913177E-3
740.013313E-3
739.864540E-3
739.342117E-3
738.716698E-3
737.933350E-3
736.974907E-3
736.112022E-3
735.124969E-3
734.267235E-3
733.340263E-3
732.331467E-3
731.788445E-3
731.202507E-3
730.591393E-3
730.213165E-3
729.624367E-3
729.465866E-3
729.150009E-3
728.814697E-3
728.667068E-3
728.318596E-3
728.183556E-3
727.916336E-3
727.684593E-3
727.622795E-3
727.203369E-3
727.092361E-3
726.802254E-3
726.718140E-3
726.486969E-3
726.217461E-3
726.079559E-3
725.732231E-3
725.478745E-3
725.445557E-3
725.086212E-3
724.986076E-3
724.721146E-3
724.384689E-3
724.168396E-3
723.825073E-3
723.557854E-3
723.253441E-3
723.009682E-3
722.777939E-3
722.313881E-3
722.040367E-3
721.725082E-3
721.570015E-3
721.514511E-3
721.047020E-3
720.907974E-3
720.771217E-3
720.520592E-3
720.444489E-3
720.120049E-3
719.952393E-3
719.578171E-3
719.173622E-3
718.850899E-3
718.226051E-3
717.740250E-3
717.344856E-3
716.950607E-3
716.703987E-3
716.473389E-3
716.693687E-3
717.274475E-3
718.516159E-3
721.481323E-3
725.727654E-3
731.373596E-3
737.563705E-3
743.459702E-3
749.058151E-3
753.275299E-3
756.211281E-3
757.499313E-3
757.432938E-3
756.427002E-3
754.657745E-3
752.728844E-3
750.667763E-3
748.714256E-3
747.216797E-3
745.895576E-3
745.195198E-3
744.830704E-3
744.735718E-3
745.034981E-3
745.317078E-3
746.030617E-3
746.374512E-3
746.539307E-3
746.353340E-3
745.497322E-3
744.276810E-3
742.428017E-3
740.732574E-3
739.575577E-3
738.498116E-3
738.315582E-3
738.519287E-3
738.855171E-3
739.649391E-3
740.219879E-3
740.802956E-3
741.441536E-3
741.527939E-3
741.371727E-3
741.011810E-3
740.587807E-3
739.827919E-3
738.966751E-3
738.038635E-3
737.016106E-3
736.216736E-3
735.369873E-3
734.608269E-3
733.925629E-3
733.283615E-3
732.739449E-3
732.353783E-3
731.859970E-3
731.583595E-3
731.203651E-3
730.890656E-3
730.483818E-3
730.135918E-3
729.800606E-3
729.460716E-3
729.347992E-3
729.123116E-3
728.855896E-3
728.545761E-3
728.205299E-3
728.006172E-3
727.898026E-3
727.627945E-3
727.511787E-3
727.195358E-3
727.015686E-3
726.878929E-3
726.531601E-3
726.480675E-3
726.117897E-3
725.938225E-3
725.505066E-3
725.141144E-3
724.847603E-3
724.552345E-3
724.258232E-3
723.968697E-3
723.466873E-3
723.252296E-3
722.890091E-3
722.687531E-3
722.328758E-3
722.046089E-3
721.800041E-3
721.556282E-3
721.447563E-3
721.329689E-3
721.037292E-3
720.978355E-3
720.759773E-3
720.693970E-3
720.449066E-3
720.094872E-3
719.918060E-3
719.420815E-3
719.024849E-3
718.414879E-3
718.145943E-3
717.911339E-3
717.388344E-3
717.328262E-3
717.350578E-3
717.481613E-3
718.313599E-3
720.281410E-3
723.861122E-3
728.762627E-3
734.547615E-3
740.740013E-3
746.513557E-3
751.677704E-3
755.385017E-3
757.573700E-3
758.470345E-3
758.033180E-3
756.727409E-3
754.829407E-3
752.707672E-3
750.745583E-3
748.847580E-3
747.418213E-3
746.396828E-3
745.686722E-3
745.426941E-3
745.551682E-3
746.007156E-3
746.502113E-3
747.049141E-3
747.429085E-3
747.294617E-3
746.919823E-3
745.771408E-3
744.020462E-3
742.383957E-3
740.845299E-3
739.858818E-3
739.359283E-3
739.344978E-3
739.890289E-3
740.241623E-3
741.226959E-3
742.020035E-3
742.448044E-3
742.947006E-3
742.798233E-3
742.703247E-3
742.272949E-3
741.549110E-3
740.840149E-3
739.810753E-3
738.982773E-3
738.052940E-3
737.132263E-3
736.336327E-3
735.468864E-3
734.810829E-3
734.239769E-3
733.918190E-3
733.601189E-3
732.982063E-3
732.695961E-3
732.218742E-3
731.905746E-3
731.720352E-3
731.306648E-3
731.094360E-3
730.775070E-3
730.534172E-3
730.387688E-3
730.208588E-3
729.983711E-3
729.671288E-3
729.474449E-3
729.412079E-3
729.211235E-3
729.136276E-3
729.001236E-3
728.866768E-3
728.757477E-3
728.231049E-3
728.031921E-3
727.741814E-3
727.380753E-3
727.182198E-3
726.863480E-3
726.447487E-3
726.052666E-3
725.682449E-3
725.471878E-3
725.137138E-3
724.937439E-3
724.732590E-3
724.397278E-3
724.274254E-3
723.945808E-3
723.807907E-3
723.696327E-3
723.412514E-3
723.193932E-3
722.871780E-3
722.704124E-3
722.440338E-3
722.134781E-3
721.796036E-3
721.194077E-3
720.819855E-3
720.528603E-3
720.110321E-3
719.712067E-3
719.434547E-3
719.425392E-3
719.383621E-3
719.506645E-3
