Notes :


2023-11-06 ¿ÀÈÄ 11:04:36
Volts
Ch : LED 2,
442.102432E-3
442.184830E-3
442.054367E-3
441.959381E-3
441.775131E-3
441.748238E-3
441.709900E-3
441.382027E-3
441.313934E-3
441.156006E-3
441.068459E-3
440.974617E-3
440.844154E-3
440.850449E-3
440.687370E-3
440.703392E-3
440.616417E-3
440.568352E-3
440.559769E-3
440.455055E-3
440.335464E-3
440.366364E-3
440.340042E-3
440.315437E-3
440.131760E-3
440.155792E-3
440.237617E-3
440.273094E-3
440.305710E-3
440.345764E-3
440.202141E-3
440.302277E-3
440.222740E-3
440.342903E-3
440.277672E-3
440.211296E-3
440.121460E-3
440.157509E-3
440.093994E-3
440.103722E-3
440.057373E-3
440.069962E-3
439.899445E-3
439.910316E-3
439.862823E-3
439.831352E-3
439.808464E-3
439.818192E-3
439.771271E-3
439.739227E-3
439.589882E-3
439.435959E-3
439.345551E-3
439.244843E-3
439.212227E-3
439.157867E-3
439.164162E-3
439.125824E-3
439.098930E-3
439.051437E-3
439.224815E-3
439.623070E-3
440.183258E-3
440.936852E-3
441.777992E-3
442.529297E-3
443.214798E-3
443.543816E-3
443.918610E-3
444.114304E-3
444.023895E-3
443.906593E-3
443.566132E-3
443.261147E-3
442.953300E-3
442.590523E-3
442.398834E-3
442.070961E-3
441.928482E-3
441.773415E-3
441.667557E-3
441.662407E-3
441.562271E-3
441.555977E-3
441.499901E-3
441.276741E-3
441.159439E-3
441.067314E-3
440.921402E-3
440.892220E-3
440.822411E-3
440.924263E-3
440.982628E-3
441.137695E-3
441.236687E-3
441.340256E-3
441.480446E-3
441.392326E-3
441.405487E-3
441.353989E-3
441.304207E-3
441.279602E-3
441.089630E-3
440.900230E-3
440.843010E-3
440.571785E-3
440.460205E-3
440.271378E-3
440.163231E-3
440.052795E-3
439.919472E-3
439.835930E-3
439.717484E-3
439.684868E-3
439.568710E-3
439.497185E-3
439.507484E-3
439.402199E-3
439.371300E-3
439.353561E-3
439.236259E-3
439.155006E-3
439.203644E-3
439.228821E-3
439.156723E-3
439.057159E-3
439.154434E-3
439.006805E-3
438.990211E-3
439.035416E-3
439.036560E-3
438.981628E-3
438.765335E-3
438.782501E-3
438.780785E-3
438.754463E-3
438.805962E-3
438.659477E-3
438.566780E-3
438.486671E-3
438.515854E-3
438.412857E-3
438.372803E-3
438.393974E-3
438.316727E-3
438.288116E-3
438.353920E-3
438.206863E-3
438.162231E-3
438.168526E-3
438.099289E-3
438.155937E-3
438.104439E-3
437.994003E-3
437.934494E-3
437.834358E-3
437.785721E-3
437.646675E-3
437.735939E-3
437.723923E-3
437.697601E-3
437.706757E-3
438.027763E-3
438.550186E-3
439.300346E-3
440.196419E-3
441.124535E-3
441.771698E-3
442.456055E-3
442.944145E-3
443.234253E-3
443.384743E-3
443.380737E-3
443.268013E-3
443.023109E-3
442.782784E-3
442.504692E-3
442.193985E-3
441.937637E-3
441.831207E-3
441.673851E-3
441.691017E-3
441.617775E-3
441.670990E-3
441.648674E-3
441.665840E-3
441.763115E-3
441.735649E-3
441.650963E-3
441.538239E-3
441.379738E-3
441.312790E-3
441.164589E-3
441.169167E-3
441.226959E-3
441.246414E-3
441.495323E-3
441.567421E-3
441.660118E-3
441.761971E-3
441.821480E-3
441.938782E-3
441.875267E-3
441.823196E-3
441.757965E-3
441.659546E-3
441.612053E-3
441.389465E-3
441.275024E-3
441.325378E-3
441.074753E-3
441.015816E-3
440.776062E-3
440.743446E-3
440.695953E-3
440.547752E-3
440.590668E-3
440.467072E-3
440.290833E-3
440.258217E-3
440.213013E-3
440.247345E-3
440.110588E-3
440.043640E-3
440.060234E-3
440.005875E-3
439.964104E-3
440.043068E-3
439.933205E-3
439.841080E-3
439.762688E-3
439.795876E-3
439.631653E-3
439.663696E-3
439.628792E-3
439.611626E-3
439.633369E-3
439.516640E-3
439.427948E-3
439.393044E-3
439.344406E-3
439.391899E-3
439.221954E-3
439.168739E-3
439.228821E-3
439.177895E-3
439.101791E-3
439.049721E-3
438.999367E-3
439.013672E-3
438.958740E-3
438.993073E-3
438.942146E-3
438.851738E-3
438.823128E-3
438.799095E-3
438.785362E-3
438.697815E-3
438.692093E-3
438.645744E-3
438.502693E-3
438.502121E-3
438.414574E-3
438.466644E-3
438.387108E-3
438.401413E-3
438.581085E-3
439.008522E-3
439.709473E-3
440.604973E-3
441.411209E-3
442.302704E-3
442.995071E-3
443.560410E-3
443.830490E-3
443.983269E-3
443.999863E-3
443.811607E-3
443.714905E-3
443.485451E-3
443.175888E-3
443.019104E-3
442.710114E-3
442.539024E-3
442.455482E-3
442.330170E-3
442.450333E-3
442.482948E-3
442.630577E-3
442.650032E-3
442.541313E-3
442.497826E-3
442.504692E-3
442.414856E-3
442.335892E-3
442.183685E-3
442.052650E-3
441.970825E-3
441.996574E-3
442.109299E-3
442.117310E-3
442.251778E-3
442.251205E-3
442.361069E-3
442.424011E-3
442.390251E-3
442.406845E-3
442.409706E-3
442.328453E-3
442.260361E-3
442.161369E-3
442.090416E-3
441.882133E-3
441.770554E-3
441.679001E-3
441.431808E-3
441.435242E-3
441.298485E-3
441.240120E-3
441.178894E-3
440.974617E-3
440.918541E-3
440.859604E-3
440.803528E-3
440.651894E-3
440.642166E-3
440.645599E-3
440.538025E-3
440.511131E-3
440.490532E-3
440.324020E-3
440.378380E-3
440.295410E-3
440.225601E-3
440.114594E-3
440.001297E-3
440.040207E-3
439.991570E-3
439.878273E-3
439.866829E-3
439.762115E-3
439.772415E-3
439.750671E-3
439.660263E-3
439.505768E-3
439.412498E-3
439.455414E-3
439.324951E-3
439.209366E-3
439.142418E-3
439.062881E-3
438.971329E-3
438.812828E-3
438.880348E-3
438.878632E-3
438.686371E-3
438.672066E-3
438.589096E-3
438.558197E-3
438.516998E-3
438.428879E-3
438.451195E-3
438.442039E-3
438.347626E-3
438.376808E-3
438.212013E-3
438.177681E-3
438.057518E-3
438.016319E-3
437.904167E-3
437.741089E-3
437.806892E-3
437.757683E-3
437.700462E-3
437.719345E-3
437.836647E-3
438.341331E-3
438.864899E-3
439.684296E-3
440.603256E-3
441.409492E-3
442.100143E-3
442.588234E-3
442.886925E-3
443.047142E-3
443.024254E-3
442.947006E-3
442.787361E-3
442.494392E-3
442.210579E-3
441.929626E-3
441.745949E-3
441.491318E-3
441.340828E-3
441.256714E-3
441.190910E-3
441.300201E-3
441.233253E-3
441.185188E-3
441.262436E-3
441.210938E-3
441.172600E-3
441.054726E-3
440.944290E-3
440.887070E-3
440.631866E-3
440.707970E-3
440.748596E-3
440.748596E-3
440.840149E-3
440.912247E-3
441.023827E-3
441.011238E-3
441.074753E-3
441.077614E-3
441.013527E-3
441.067886E-3
441.103935E-3
440.917397E-3
440.912247E-3
440.671349E-3
440.573502E-3
440.362930E-3
440.255928E-3
440.144348E-3
439.982414E-3
439.982986E-3
439.809036E-3
439.746666E-3
439.689445E-3
439.590454E-3
439.500046E-3
439.550400E-3
439.517212E-3
439.472580E-3
439.346695E-3
439.348984E-3
439.290047E-3
439.203072E-3
439.309502E-3
439.268875E-3
439.271164E-3
439.258575E-3
439.175606E-3
439.060020E-3
439.022255E-3
439.046288E-3
438.941002E-3
439.003944E-3
438.996506E-3
438.902092E-3
438.827133E-3
438.789368E-3
438.755035E-3
438.716698E-3
438.576508E-3
438.614273E-3
438.596535E-3
438.509560E-3
438.391685E-3
438.320732E-3
438.297272E-3
438.229179E-3
438.244629E-3
438.169670E-3
438.144493E-3
438.161659E-3
438.103294E-3
437.995148E-3
437.995720E-3
437.889290E-3
437.881279E-3
437.818909E-3
437.750244E-3
437.745667E-3
437.607765E-3
437.622643E-3
437.601471E-3
437.700462E-3
437.705612E-3
437.794876E-3
438.315582E-3
438.876915E-3
439.680862E-3
440.591240E-3
441.309357E-3
441.986847E-3
442.441750E-3
442.730141E-3
442.841721E-3
442.877197E-3
442.831421E-3
442.536736E-3
442.198563E-3
441.961098E-3
441.682434E-3
441.403770E-3
441.169167E-3
441.075897E-3
441.090775E-3
441.038704E-3
440.986633E-3
441.045570E-3
441.057014E-3
441.070175E-3
440.982056E-3
440.988922E-3
440.813255E-3
440.658760E-3
440.627861E-3
440.646172E-3
440.686798E-3
440.675354E-3
440.695381E-3
440.816689E-3
440.884781E-3
441.034698E-3
441.028976E-3
441.098785E-3
441.079330E-3
441.077614E-3
441.159439E-3
441.030693E-3
441.000938E-3
440.883064E-3
440.734863E-3
440.674782E-3
440.447044E-3
440.431023E-3
440.345764E-3
440.269661E-3
440.156364E-3
439.982986E-3
439.886284E-3
439.934349E-3
439.816475E-3
439.849663E-3
439.744377E-3
439.683151E-3
439.615631E-3
439.556694E-3
439.572716E-3
439.568138E-3
439.462852E-3
439.530945E-3
439.546967E-3
439.529228E-3
439.456558E-3
439.375877E-3
439.395332E-3
439.403915E-3
439.415932E-3
439.358139E-3
439.410782E-3
439.278603E-3
439.233971E-3
439.228249E-3
439.187622E-3
439.145279E-3
439.184189E-3
439.089775E-3
439.150429E-3
439.112663E-3
438.979912E-3
438.949013E-3
438.904953E-3
438.891792E-3
438.721275E-3
438.688087E-3
438.737297E-3
438.574219E-3
438.594818E-3
438.474083E-3
438.355637E-3
438.457489E-3
438.364792E-3
438.331604E-3
438.241196E-3
438.250923E-3
438.287544E-3
438.620567E-3
439.057732E-3
439.770126E-3
440.469933E-3
441.194344E-3
441.803741E-3
442.312431E-3
442.626572E-3
442.747307E-3
442.758751E-3
442.678642E-3
442.477798E-3
442.244339E-3
441.890144E-3
441.632652E-3
441.345978E-3
441.155434E-3
440.968323E-3
440.798378E-3
440.770912E-3
440.569496E-3
440.677071E-3
440.633011E-3
440.489388E-3
440.412140E-3
440.099144E-3
440.202141E-3
440.000725E-3
440.022469E-3
439.963531E-3
440.053940E-3
440.220451E-3
440.323448E-3
440.430450E-3
440.571213E-3
440.575790E-3
440.662193E-3
440.642166E-3
440.646172E-3
440.651894E-3
440.436745E-3
440.278816E-3
440.200424E-3
440.093422E-3
439.934921E-3
439.757538E-3
439.720917E-3
439.639091E-3
439.478302E-3
439.441681E-3
439.220810E-3
439.163589E-3
439.073181E-3
438.961029E-3
438.871765E-3
438.786507E-3
438.728714E-3
438.711548E-3
438.673782E-3
438.662910E-3
438.731003E-3
438.623428E-3
438.521004E-3
438.434029E-3
438.423157E-3
438.300705E-3
438.411713E-3
438.268089E-3
438.234901E-3
438.305283E-3
438.293266E-3
438.318443E-3
438.205147E-3
438.135338E-3
438.115311E-3
438.014603E-3
437.984848E-3
437.907028E-3
437.913895E-3
437.855530E-3
437.687302E-3
437.764549E-3
437.687874E-3
437.610054E-3
437.579155E-3
437.421227E-3
437.404633E-3
437.194061E-3
437.145996E-3
437.104797E-3
437.099075E-3
437.054443E-3
437.061310E-3
437.312508E-3
437.820625E-3
438.512421E-3
439.278030E-3
439.967537E-3
440.628433E-3
441.276741E-3
441.641235E-3
441.935349E-3
442.036057E-3
442.021751E-3
441.917610E-3
441.733360E-3
441.500473E-3
441.200638E-3
440.881920E-3
440.730286E-3
440.413284E-3
440.330315E-3
440.281677E-3
440.283966E-3
440.332603E-3
440.243912E-3
440.296555E-3
440.160942E-3
440.080833E-3
440.004730E-3
439.800453E-3
439.748955E-3
439.695168E-3
439.770699E-3
439.895439E-3
439.948082E-3
440.001297E-3
440.127754E-3
440.132332E-3
440.247345E-3
440.298843E-3
440.385246E-3
440.376091E-3
440.361786E-3
440.283966E-3
440.153503E-3
440.120316E-3
439.938354E-3
439.791298E-3
439.687157E-3
439.545822E-3
439.435959E-3
439.371872E-3
439.174461E-3
439.139557E-3
439.003944E-3
438.939285E-3
438.916969E-3
438.740158E-3
438.863182E-3
438.777351E-3
438.691521E-3
438.553619E-3
438.519859E-3
438.558769E-3
438.578796E-3
438.516426E-3
438.518715E-3
438.427734E-3
438.490105E-3
438.396835E-3
438.384247E-3
438.300705E-3
438.236046E-3
438.282394E-3
438.184547E-3
438.385391E-3
438.268089E-3
438.156509E-3
438.210297E-3
438.262939E-3
438.229179E-3
438.147354E-3
438.052368E-3
438.072968E-3
438.023186E-3
437.943077E-3
437.924194E-3
437.767982E-3
437.797737E-3
437.603760E-3
437.593460E-3
437.480736E-3
437.385750E-3
437.378883E-3
437.354851E-3
437.427521E-3
437.503624E-3
437.791443E-3
438.373947E-3
439.037132E-3
439.912605E-3
440.662193E-3
441.384315E-3
442.005730E-3
442.385101E-3
442.582512E-3
442.660904E-3
442.584229E-3
442.442894E-3
442.144203E-3
441.886139E-3
441.680717E-3
441.431236E-3
441.295052E-3
441.146851E-3
441.084480E-3
441.044998E-3
440.972328E-3
441.058159E-3
441.032410E-3
441.099358E-3
441.138840E-3
441.047287E-3
440.977478E-3
440.822983E-3
440.713692E-3
440.674210E-3
440.507698E-3
440.619850E-3
440.586662E-3
440.742874E-3
440.693665E-3
440.788078E-3
440.884209E-3
440.813828E-3
440.891075E-3
440.793800E-3
440.798378E-3
440.758896E-3
440.667343E-3
440.645027E-3
440.514565E-3
440.355492E-3
440.220451E-3
440.100288E-3
440.039635E-3
439.934921E-3
439.744949E-3
439.739799E-3
439.552689E-3
439.505768E-3
439.451408E-3
439.336967E-3
439.407921E-3
439.288902E-3
439.221954E-3
439.141273E-3
439.077759E-3
439.197922E-3
439.128113E-3
439.093208E-3
439.141273E-3
439.037132E-3
439.057159E-3
438.973618E-3
438.971329E-3
438.943863E-3
438.927841E-3
438.982201E-3
438.844872E-3
438.848305E-3
438.850021E-3
438.846016E-3
438.833427E-3
438.781929E-3
438.696671E-3
438.701248E-3
438.658333E-3
438.664627E-3
438.650322E-3
438.590240E-3
438.357353E-3
438.398552E-3
438.309288E-3
438.237762E-3
438.214874E-3
438.149643E-3
438.042068E-3
438.042068E-3
437.888145E-3
437.842941E-3
437.920761E-3
437.955093E-3
438.157082E-3
438.597107E-3
439.322090E-3
440.000153E-3
440.813828E-3
441.605759E-3
442.105865E-3
442.575645E-3
442.910385E-3
442.968750E-3
442.962456E-3
442.720413E-3
442.520142E-3
442.283249E-3
441.982269E-3
441.731071E-3
441.430664E-3
441.365433E-3
441.247559E-3
441.074181E-3
441.058731E-3
441.119957E-3
441.169167E-3
441.182327E-3
441.132545E-3
441.173744E-3
440.960312E-3
440.820122E-3
440.698242E-3
440.589523E-3
440.665627E-3
440.598106E-3
440.769768E-3
440.841866E-3
440.863609E-3
441.014099E-3
441.033554E-3
441.113663E-3
441.161728E-3
441.127396E-3
441.178322E-3
441.037560E-3
440.864754E-3
440.797806E-3
440.587234E-3
440.495110E-3
440.378952E-3
440.296555E-3
440.098572E-3
439.910889E-3
439.898872E-3
439.812469E-3
439.722061E-3
439.663696E-3
439.640808E-3
439.558411E-3
439.438248E-3
439.450264E-3
439.332390E-3
439.355850E-3
439.451408E-3
439.329529E-3
439.346695E-3
439.358711E-3
439.231110E-3
439.204788E-3
439.195633E-3
439.197922E-3
439.175034E-3
439.091492E-3
439.177322E-3
439.029121E-3
439.033127E-3
439.096069E-3
439.057159E-3
439.115524E-3
438.973618E-3
438.945007E-3
438.950157E-3
438.945580E-3
438.883209E-3
438.815689E-3
438.737869E-3
438.670349E-3
438.545036E-3
438.518715E-3
438.472939E-3
438.287544E-3
438.210869E-3
438.139915E-3
438.081551E-3
438.039207E-3
438.060951E-3
437.980843E-3
437.928772E-3
438.059807E-3
438.419151E-3
439.087486E-3
439.689445E-3
440.509415E-3
441.223526E-3
441.781998E-3
442.363358E-3
442.596817E-3
442.774773E-3
442.816544E-3
442.579651E-3
442.470360E-3
442.179680E-3
441.960526E-3
441.559410E-3
441.255569E-3
441.010666E-3
440.983772E-3
440.876770E-3
440.812683E-3
440.727425E-3
440.768623E-3
440.739441E-3
440.724564E-3
440.727425E-3
440.531731E-3
440.281105E-3
440.201569E-3
440.043068E-3
440.094566E-3
440.080833E-3
440.199280E-3
440.346336E-3
440.364647E-3
440.459633E-3
440.459061E-3
440.517426E-3
440.552902E-3
440.562057E-3
440.627289E-3
440.498543E-3
440.338898E-3
440.142632E-3
440.040779E-3
440.016174E-3
439.748955E-3
439.697456E-3
439.537239E-3
439.348984E-3
439.282608E-3
439.161873E-3
439.037132E-3
439.011955E-3
438.902092E-3
438.918114E-3
438.807678E-3
438.777924E-3
438.681793E-3
438.632584E-3
438.601685E-3
438.533592E-3
438.486671E-3
438.427734E-3
438.354492E-3
