Notes :


2023-10-21 ¿ÀÈÄ 10:57:54
Volts
Ch : LED 2,
301.110077E-3
300.457191E-3
301.033401E-3
301.257706E-3
301.618767E-3
302.493095E-3
302.548027E-3
303.488159E-3
304.212570E-3
304.756165E-3
305.369568E-3
305.010796E-3
305.347824E-3
305.279160E-3
304.888344E-3
304.760742E-3
303.911591E-3
303.727913E-3
303.448105E-3
302.902222E-3
303.072166E-3
302.146339E-3
302.287102E-3
302.206993E-3
301.840782E-3
302.284241E-3
301.530647E-3
301.523209E-3
301.609612E-3
301.306343E-3
301.999855E-3
301.241112E-3
301.389885E-3
301.657677E-3
301.527786E-3
302.482224E-3
301.858521E-3
301.887131E-3
302.206421E-3
301.900864E-3
302.736282E-3
302.124023E-3
302.179527E-3
302.281380E-3
301.803017E-3
302.641296E-3
301.711464E-3
301.564980E-3
301.557541E-3
301.246834E-3
301.999855E-3
301.221085E-3
301.187897E-3
301.253128E-3
300.759315E-3
301.596451E-3
300.783920E-3
300.743866E-3
300.917244E-3
300.609970E-3
301.388741E-3
300.606537E-3
300.699806E-3
300.885201E-3
300.457764E-3
301.379013E-3
300.555038E-3
300.642586E-3
300.817108E-3
300.474358E-3
301.280022E-3
300.544739E-3
300.541878E-3
300.725555E-3
300.383949E-3
301.231384E-3
300.566483E-3
300.480080E-3
300.658607E-3
300.401688E-3
301.225662E-3
300.858307E-3
301.183319E-3
301.856804E-3
302.260780E-3
303.600883E-3
303.487015E-3
304.111290E-3
304.673195E-3
304.588509E-3
305.347824E-3
304.714966E-3
304.438019E-3
304.237747E-3
303.461838E-3
303.814316E-3
302.824974E-3
302.512550E-3
302.372932E-3
301.909447E-3
302.380943E-3
301.704597E-3
301.588440E-3
301.520348E-3
301.168442E-3
301.750374E-3
301.063728E-3
301.051140E-3
301.171875E-3
300.859451E-3
301.655388E-3
301.376152E-3
301.443100E-3
301.750374E-3
301.621628E-3
302.401543E-3
302.071381E-3
302.110291E-3
302.301407E-3
302.022743E-3
302.523994E-3
302.090836E-3
301.864243E-3
301.954079E-3
301.311493E-3
301.906586E-3
301.455116E-3
301.260567E-3
301.284027E-3
301.030540E-3
301.586151E-3
301.208496E-3
300.986481E-3
301.070595E-3
300.700378E-3
301.383018E-3
301.040268E-3
300.835991E-3
300.878334E-3
300.668907E-3
301.367569E-3
301.016808E-3
300.887489E-3
301.021385E-3
300.375938E-3
301.209068E-3
301.124954E-3
300.889778E-3
300.975037E-3
300.481224E-3
301.203346E-3
301.024818E-3
300.833130E-3
300.998497E-3
300.407982E-3
301.042557E-3
301.077461E-3
301.106644E-3
301.633072E-3
301.715469E-3
303.052711E-3
303.624344E-3
304.011726E-3
304.790497E-3
304.698372E-3
305.688286E-3
305.720901E-3
305.411339E-3
305.354691E-3
304.460335E-3
304.801369E-3
304.346466E-3
303.717613E-3
303.497887E-3
302.608109E-3
303.128815E-3
302.914238E-3
302.418709E-3
302.541733E-3
301.788139E-3
302.595520E-3
302.305412E-3
301.832771E-3
302.016449E-3
301.287460E-3
302.098846E-3
301.976967E-3
301.700592E-3
302.086830E-3
301.500320E-3
302.503967E-3
302.565765E-3
302.406693E-3
302.782631E-3
302.138901E-3
303.041267E-3
302.925682E-3
302.519989E-3
302.667618E-3
301.939201E-3
302.687645E-3
302.497673E-3
301.959229E-3
302.010155E-3
301.315498E-3
301.987267E-3
301.784706E-3
301.330948E-3
301.613045E-3
301.083755E-3
301.609612E-3
301.594162E-3
301.329803E-3
301.488876E-3
300.930405E-3
301.494598E-3
301.492310E-3
301.223373E-3
301.428223E-3
300.982475E-3
301.436234E-3
301.558685E-3
301.265717E-3
301.488876E-3
301.033401E-3
301.586151E-3
301.513481E-3
301.240540E-3
301.470566E-3
301.043701E-3
301.621056E-3
301.560402E-3
301.469421E-3
301.454544E-3
300.962448E-3
301.365280E-3
301.631355E-3
301.794434E-3
302.667618E-3
302.847862E-3
303.983116E-3
304.701233E-3
305.216217E-3
305.879402E-3
305.605316E-3
306.179237E-3
306.219292E-3
305.844498E-3
305.699730E-3
304.738426E-3
304.792786E-3
304.565620E-3
303.920746E-3
303.822899E-3
303.052711E-3
303.282738E-3
303.264427E-3
303.040695E-3
303.190041E-3
302.556610E-3
302.856445E-3
302.860451E-3
302.647591E-3
302.742004E-3
302.046776E-3
302.526283E-3
302.600670E-3
302.700806E-3
302.853584E-3
302.342033E-3
302.866173E-3
303.056145E-3
303.037834E-3
303.295326E-3
302.744865E-3
303.095055E-3
303.095627E-3
302.899933E-3
303.208351E-3
302.584076E-3
302.735710E-3
302.693367E-3
302.420998E-3
302.707100E-3
301.983261E-3
302.059364E-3
302.090836E-3
302.029037E-3
302.485657E-3
301.686287E-3
301.728058E-3
301.897430E-3
301.618195E-3
302.177238E-3
301.596451E-3
301.720619E-3
301.855659E-3
301.582718E-3
302.235603E-3
301.639938E-3
301.731491E-3
302.003288E-3
301.716614E-3
302.430153E-3
301.797867E-3
301.808739E-3
302.022743E-3
301.645660E-3
302.314568E-3
301.582718E-3
301.645660E-3
301.846504E-3
301.303482E-3
302.244186E-3
301.526642E-3
301.678276E-3
301.900864E-3
301.552391E-3
302.823830E-3
302.574921E-3
303.340530E-3
304.146767E-3
304.562759E-3
306.061935E-3
305.741501E-3
306.048775E-3
306.527710E-3
306.277084E-3
306.773758E-3
305.731773E-3
305.395889E-3
305.143547E-3
304.529572E-3
304.973030E-3
303.937340E-3
303.765106E-3
303.626633E-3
303.324509E-3
304.028320E-3
303.135681E-3
303.082466E-3
303.060722E-3
302.777481E-3
303.448105E-3
302.663612E-3
302.580070E-3
302.683067E-3
302.383804E-3
303.211784E-3
302.697945E-3
302.840996E-3
303.099632E-3
302.913094E-3
303.792572E-3
303.144264E-3
303.125381E-3
303.393173E-3
302.957726E-3
303.611755E-3
302.962875E-3
302.900505E-3
302.859879E-3
302.625275E-3
303.061867E-3
302.292252E-3
302.101707E-3
302.221298E-3
301.947212E-3
302.481651E-3
301.916313E-3
301.832199E-3
301.918030E-3
301.769257E-3
302.424431E-3
301.833344E-3
301.667404E-3
301.734352E-3
301.510048E-3
302.185249E-3
301.717758E-3
301.626205E-3
301.714325E-3
301.473427E-3
302.116585E-3
301.704025E-3
301.629066E-3
301.733780E-3
301.144981E-3
301.817322E-3
301.537514E-3
301.402473E-3
301.503754E-3
301.206779E-3
301.772690E-3
301.381874E-3
301.288033E-3
301.355553E-3
301.049995E-3
302.197838E-3
302.245331E-3
302.687645E-3
303.517914E-3
303.836060E-3
305.161858E-3
305.264282E-3
305.350113E-3
305.602455E-3
305.162430E-3
305.586433E-3
304.985619E-3
304.460335E-3
304.142761E-3
303.348541E-3
303.714752E-3
303.128815E-3
302.845573E-3
302.784348E-3
302.150917E-3
302.817535E-3
302.515411E-3
302.194977E-3
302.203560E-3
301.628494E-3
302.235031E-3
302.070236E-3
301.758957E-3
301.965523E-3
301.585007E-3
302.444458E-3
302.610397E-3
302.426147E-3
302.849579E-3
302.315712E-3
303.067589E-3
303.086472E-3
302.836418E-3
303.033829E-3
302.436447E-3
303.111076E-3
302.918816E-3
302.501106E-3
302.587509E-3
301.943779E-3
302.562904E-3
302.241898E-3
301.925468E-3
302.010727E-3
301.272583E-3
302.191544E-3
301.948357E-3
301.597595E-3
301.848793E-3
301.158142E-3
302.004433E-3
301.893425E-3
301.582718E-3
301.756096E-3
301.031685E-3
301.930046E-3
301.896286E-3
301.568985E-3
301.843643E-3
301.091766E-3
302.046776E-3
301.871109E-3
301.539803E-3
301.670837E-3
301.049423E-3
301.700592E-3
301.733208E-3
301.494026E-3
301.705742E-3
301.105499E-3
301.736641E-3
301.766968E-3
301.629639E-3
302.110291E-3
302.120018E-3
303.262138E-3
304.097557E-3
304.479218E-3
305.292320E-3
305.364990E-3
306.192398E-3
306.428719E-3
306.092834E-3
306.138039E-3
305.315781E-3
305.378723E-3
305.140114E-3
304.545021E-3
304.409981E-3
303.582001E-3
303.926468E-3
303.677559E-3
303.329086E-3
303.434944E-3
302.879906E-3
303.225517E-3
303.182030E-3
302.876472E-3
302.960014E-3
302.295113E-3
302.642441E-3
302.662468E-3
302.521706E-3
302.793503E-3
302.313423E-3
302.921104E-3
303.216934E-3
303.219795E-3
303.448105E-3
302.924538E-3
303.307343E-3
303.396606E-3
303.242111E-3
303.257561E-3
302.604103E-3
302.863884E-3
302.894783E-3
302.799797E-3
302.824402E-3
302.047920E-3
302.339172E-3
302.299118E-3
302.307129E-3
302.326584E-3
301.659966E-3
301.967239E-3
301.954651E-3
302.008438E-3
302.231598E-3
301.620483E-3
301.850510E-3
302.047348E-3
301.963234E-3
302.283669E-3
301.636505E-3
301.932907E-3
302.028465E-3
301.792145E-3
302.427864E-3
301.811028E-3
301.892281E-3
302.038765E-3
301.759529E-3
302.341461E-3
301.750374E-3
301.661110E-3
301.795578E-3
301.490021E-3
302.076530E-3
301.463699E-3
301.560974E-3
301.701736E-3
301.462555E-3
302.273941E-3
301.952362E-3
302.426147E-3
303.290749E-3
303.631210E-3
305.072021E-3
305.148697E-3
305.788994E-3
306.412697E-3
306.337738E-3
307.246971E-3
306.278229E-3
306.043625E-3
305.760384E-3
305.046844E-3
305.548668E-3
304.268074E-3
303.975105E-3
303.913879E-3
303.449821E-3
304.114723E-3
303.277016E-3
303.202057E-3
303.374290E-3
302.909088E-3
303.636360E-3
302.742577E-3
302.617836E-3
302.671623E-3
302.264214E-3
303.162003E-3
302.408409E-3
302.482796E-3
302.687645E-3
302.461624E-3
303.441811E-3
302.866173E-3
303.081894E-3
303.212357E-3
303.076744E-3
303.828621E-3
303.028107E-3
302.919388E-3
302.946854E-3
302.594376E-3
303.115654E-3
302.508545E-3
302.372932E-3
302.491951E-3
302.174950E-3
302.667618E-3
302.077103E-3
302.031326E-3
302.140617E-3
301.933479E-3
302.502823E-3
301.940918E-3
302.037621E-3
302.091408E-3
301.803589E-3
302.478790E-3
301.969528E-3
301.862526E-3
302.052498E-3
301.708031E-3
302.569771E-3
302.029037E-3
301.959801E-3
302.172661E-3
301.892281E-3
302.564621E-3
302.120018E-3
302.071953E-3
302.157211E-3
301.766396E-3
302.257919E-3
301.910019E-3
301.710892E-3
301.835060E-3
301.456833E-3
301.983833E-3
301.619911E-3
301.496887E-3
301.526642E-3
301.346970E-3
301.983833E-3
301.913452E-3
302.215576E-3
302.947426E-3
303.374290E-3
304.794502E-3
305.200768E-3
305.671120E-3
306.184959E-3
306.048775E-3
306.742859E-3
306.348038E-3
305.838203E-3
305.572701E-3
304.681206E-3
304.951286E-3
304.347038E-3
303.877831E-3
303.763390E-3
302.733421E-3
303.441811E-3
303.390312E-3
303.090477E-3
303.198051E-3
302.631569E-3
303.156281E-3
303.000069E-3
302.592659E-3
302.626991E-3
302.033043E-3
302.682495E-3
302.678490E-3
302.588654E-3
302.877045E-3
302.475929E-3
303.304482E-3
303.372002E-3
303.188324E-3
303.368568E-3
302.887917E-3
303.363991E-3
303.218651E-3
302.881050E-3
302.989769E-3
302.257347E-3
302.894783E-3
302.606964E-3
302.193832E-3
302.372932E-3
301.573563E-3
302.345467E-3
302.174950E-3
301.844215E-3
302.007294E-3
301.190758E-3
302.042198E-3
301.985550E-3
301.611900E-3
301.844788E-3
301.078606E-3
301.863098E-3
301.754951E-3
301.484299E-3
301.753807E-3
301.131248E-3
301.803017E-3
301.799011E-3
301.530075E-3
301.869392E-3
301.258278E-3
301.998138E-3
301.928902E-3
301.640511E-3
301.733780E-3
301.242256E-3
301.666832E-3
301.700592E-3
301.377869E-3
301.706886E-3
301.110077E-3
301.621056E-3
301.701164E-3
301.593590E-3
302.091408E-3
302.085114E-3
303.184319E-3
303.970528E-3
304.503250E-3
305.338097E-3
305.440521E-3
306.231308E-3
306.509399E-3
306.325150E-3
306.365204E-3
305.511475E-3
305.588150E-3
305.274582E-3
304.766464E-3
304.449463E-3
303.575134E-3
303.693008E-3
303.576851E-3
303.378868E-3
303.524780E-3
302.906227E-3
303.130531E-3
303.140259E-3
302.787209E-3
302.818680E-3
302.375793E-3
302.677345E-3
302.756882E-3
302.681923E-3
303.004646E-3
302.496529E-3
302.974892E-3
303.231812E-3
303.212357E-3
303.493881E-3
303.120232E-3
303.483582E-3
303.519630E-3
303.381729E-3
303.604889E-3
302.898216E-3
303.079033E-3
303.076172E-3
302.720261E-3
303.134537E-3
302.296829E-3
302.497101E-3
302.519989E-3
302.136040E-3
302.741432E-3
301.954079E-3
302.037048E-3
302.265930E-3
301.825333E-3
302.553749E-3
301.884270E-3
301.942062E-3
302.156067E-3
301.819611E-3
302.526855E-3
301.967239E-3
302.016449E-3
302.197838E-3
301.844215E-3
302.614403E-3
302.065659E-3
302.058220E-3
302.354622E-3
301.863670E-3
302.803230E-3
302.149200E-3
302.236748E-3
302.353477E-3
301.944923E-3
302.790070E-3
301.928329E-3
301.910591E-3
302.008438E-3
301.531792E-3
302.441597E-3
301.708031E-3
301.866531E-3
302.180672E-3
302.196121E-3
303.631783E-3
303.639221E-3
304.474068E-3
305.431366E-3
306.019592E-3
307.368851E-3
307.038116E-3
307.173729E-3
307.361984E-3
306.719398E-3
307.184029E-3
306.041908E-3
305.700302E-3
305.377007E-3
304.722977E-3
305.052567E-3
304.160500E-3
303.896713E-3
304.085541E-3
303.715897E-3
304.370499E-3
303.806877E-3
303.810883E-3
303.852081E-3
303.516197E-3
303.930473E-3
303.331947E-3
303.134537E-3
303.233528E-3
303.026962E-3
303.646660E-3
303.204918E-3
303.220940E-3
303.500748E-3
303.311348E-3
304.198837E-3
303.700447E-3
303.599167E-3
303.738785E-3
303.526497E-3
304.052353E-3
303.429222E-3
303.211212E-3
303.172874E-3
302.803802E-3
303.296471E-3
302.806664E-3
302.639008E-3
302.647018E-3
301.826477E-3
302.656746E-3
302.324295E-3
302.258492E-3
302.329445E-3
301.993561E-3
302.604103E-3
302.262497E-3
302.128029E-3
302.184105E-3
301.490021E-3
302.497673E-3
302.213287E-3
302.057076E-3
302.136040E-3
301.848793E-3
302.557755E-3
302.223015E-3
302.166367E-3
302.377510E-3
301.463127E-3
302.546310E-3
302.294540E-3
302.182388E-3
302.330589E-3
302.031326E-3
302.792931E-3
302.458191E-3
302.260780E-3
302.261925E-3
301.857948E-3
302.523994E-3
302.330017E-3
302.131462E-3
302.221298E-3
301.479149E-3
302.191544E-3
302.315140E-3
302.509689E-3
303.322792E-3
303.595161E-3
305.058861E-3
305.854797E-3
306.348610E-3
307.241821E-3
307.165146E-3
307.873535E-3
307.884979E-3
307.420349E-3
307.320786E-3
306.234741E-3
306.628990E-3
306.206703E-3
305.453682E-3
305.423927E-3
304.380798E-3
305.025673E-3
304.706383E-3
304.289246E-3
304.594231E-3
303.943634E-3
304.786491E-3
304.609680E-3
304.166222E-3
304.293251E-3
303.568268E-3
304.294968E-3
304.270935E-3
303.899002E-3
304.248047E-3
303.721619E-3
304.654312E-3
304.773903E-3
304.585075E-3
304.875183E-3
304.392242E-3
305.113792E-3
305.028534E-3
304.761887E-3
304.842567E-3
304.270935E-3
304.826546E-3
304.668617E-3
304.193687E-3
304.321861E-3
303.691292E-3
304.147911E-3
304.154778E-3
303.936195E-3
304.066658E-3
303.515053E-3
303.917885E-3
303.871536E-3
303.587723E-3
303.855515E-3
303.413200E-3
303.821754E-3
303.966522E-3
303.662682E-3
303.929329E-3
303.313065E-3
303.864098E-3
303.932190E-3
303.964233E-3
304.185677E-3
303.573418E-3
303.989983E-3
304.095268E-3
304.100990E-3
304.218864E-3
303.634071E-3
304.059219E-3
304.091263E-3
303.915024E-3
304.098701E-3
303.467560E-3
303.803444E-3
303.865814E-3
303.614616E-3
303.869820E-3
303.295326E-3
303.620911E-3
303.722763E-3
303.852654E-3
304.220581E-3
304.134178E-3
305.260849E-3
305.964088E-3
306.726837E-3
307.780838E-3
307.890701E-3
308.724976E-3
309.063721E-3
309.075165E-3
309.035683E-3
308.227730E-3
308.196259E-3
307.799149E-3
307.174873E-3
307.058144E-3
306.033897E-3
306.008720E-3
305.831337E-3
305.417633E-3
305.684853E-3
305.159569E-3
305.318642E-3
305.270004E-3
304.948997E-3
305.320930E-3
304.553032E-3
304.600525E-3
304.677200E-3
304.534721E-3
305.265427E-3
304.740143E-3
305.084610E-3
305.371284E-3
305.161858E-3
306.091118E-3
305.608749E-3
305.597878E-3
305.710030E-3
305.385017E-3
306.007004E-3
305.336952E-3
