Notes :


2023-10-25 ¿ÀÈÄ 9:50:57
Volts
Ch : LED 2,
219.087410E-3
218.875122E-3
218.935776E-3
218.942642E-3
218.732071E-3
218.714333E-3
218.623924E-3
218.764687E-3
218.746376E-3
218.613052E-3
218.738365E-3
218.556976E-3
218.550682E-3
218.589020E-3
218.368149E-3
218.387032E-3
218.213654E-3
218.285179E-3
218.165016E-3
218.084908E-3
218.144989E-3
217.991066E-3
218.055725E-3
218.146706E-3
218.146706E-3
218.639374E-3
219.333458E-3
220.454979E-3
221.741295E-3
222.707176E-3
224.005508E-3
224.753380E-3
225.374794E-3
225.636292E-3
225.468636E-3
225.134468E-3
224.501038E-3
223.911667E-3
223.311996E-3
222.535515E-3
222.065163E-3
221.674347E-3
221.669769E-3
221.657181E-3
221.579933E-3
221.806526E-3
221.903229E-3
222.019386E-3
222.087479E-3
221.909523E-3
221.826553E-3
221.524429E-3
221.381378E-3
221.185684E-3
220.996284E-3
221.037483E-3
220.769691E-3
220.977974E-3
221.114731E-3
221.159363E-3
221.436882E-3
221.399117E-3
221.366501E-3
221.309853E-3
221.045494E-3
220.942497E-3
220.671844E-3
220.517349E-3
220.394897E-3
220.055008E-3
220.041847E-3
219.804382E-3
219.669914E-3
219.663620E-3
219.513702E-3
219.594955E-3
219.423866E-3
219.419861E-3
219.373512E-3
219.279099E-3
219.285393E-3
219.246483E-3
219.236183E-3
219.289398E-3
219.156647E-3
219.283676E-3
219.178391E-3
219.251633E-3
219.331741E-3
219.117165E-3
219.356918E-3
219.198418E-3
219.128609E-3
219.196701E-3
218.748665E-3
219.217873E-3
219.032478E-3
219.067383E-3
219.093704E-3
218.885994E-3
219.082832E-3
218.848228E-3
218.851089E-3
218.969536E-3
218.766403E-3
218.935776E-3
218.767548E-3
218.716049E-3
218.730927E-3
218.440819E-3
218.559837E-3
218.396187E-3
218.407059E-3
218.457413E-3
218.166161E-3
218.388176E-3
218.246269E-3
218.161583E-3
218.371582E-3
218.488884E-3
219.245911E-3
219.990921E-3
221.071243E-3
222.333527E-3
223.344040E-3
224.699593E-3
225.280380E-3
225.655746E-3
225.830841E-3
225.494957E-3
225.302696E-3
224.531364E-3
223.869324E-3
223.237610E-3
222.497177E-3
222.331238E-3
221.802521E-3
221.617699E-3
221.660614E-3
221.218872E-3
221.680641E-3
221.641159E-3
221.767044E-3
221.962166E-3
221.751022E-3
221.681786E-3
221.292114E-3
221.015167E-3
220.910454E-3
220.730782E-3
220.968246E-3
220.754814E-3
220.905876E-3
220.991707E-3
220.796585E-3
221.259499E-3
221.180534E-3
221.163368E-3
221.260071E-3
221.091843E-3
221.076965E-3
220.724487E-3
220.618057E-3
220.426369E-3
220.137978E-3
220.165443E-3
219.790649E-3
219.678497E-3
219.629860E-3
219.439888E-3
219.439316E-3
219.180679E-3
219.118309E-3
219.248772E-3
219.212151E-3
219.402122E-3
219.181252E-3
219.156647E-3
219.283676E-3
219.113159E-3
219.243622E-3
219.103432E-3
219.034767E-3
219.152069E-3
219.032478E-3
219.191551E-3
219.055939E-3
219.015312E-3
219.093704E-3
218.991852E-3
219.096565E-3
218.999863E-3
218.980408E-3
218.918037E-3
218.882561E-3
218.967247E-3
218.785286E-3
218.736649E-3
218.839645E-3
218.817902E-3
218.903732E-3
218.734360E-3
218.606186E-3
218.785286E-3
218.583298E-3
218.724060E-3
218.503189E-3
218.393898E-3
218.375015E-3
218.308067E-3
218.366432E-3
218.199921E-3
218.023682E-3
218.142700E-3
218.135834E-3
218.505478E-3
218.942070E-3
219.565201E-3
220.605469E-3
221.666336E-3
223.274231E-3
224.331093E-3
225.149918E-3
225.835419E-3
225.866318E-3
225.953865E-3
225.504684E-3
224.815750E-3
224.248123E-3
223.520279E-3
222.951508E-3
222.398186E-3
221.945572E-3
221.875763E-3
221.646309E-3
221.792793E-3
221.758461E-3
221.822548E-3
222.009087E-3
221.970749E-3
222.185326E-3
222.057152E-3
221.796227E-3
221.589661E-3
221.161652E-3
221.122169E-3
220.913887E-3
220.704460E-3
220.850372E-3
220.722771E-3
221.006584E-3
221.079254E-3
221.112442E-3
221.268082E-3
221.208572E-3
221.291542E-3
221.011734E-3
220.808601E-3
220.703888E-3
220.364571E-3
220.351982E-3
220.154572E-3
219.794083E-3
219.799805E-3
219.182396E-3
219.452477E-3
219.299698E-3
219.152069E-3
219.305992E-3
219.153786E-3
219.313431E-3
219.295120E-3
219.086838E-3
219.213867E-3
219.132042E-3
219.198990E-3
219.219017E-3
219.074821E-3
219.152069E-3
218.944931E-3
219.065666E-3
219.005585E-3
218.867111E-3
218.942642E-3
218.705177E-3
218.882561E-3
218.805313E-3
218.747520E-3
218.808746E-3
218.556404E-3
218.661118E-3
218.677711E-3
218.569565E-3
218.479156E-3
218.368721E-3
218.459129E-3
218.437386E-3
218.249702E-3
218.385887E-3
218.275452E-3
218.360710E-3
218.440247E-3
218.192482E-3
218.258858E-3
218.045425E-3
218.121529E-3
218.105507E-3
217.975616E-3
217.984772E-3
217.793083E-3
217.908096E-3
217.849731E-3
217.747307E-3
217.956734E-3
218.218803E-3
219.098282E-3
220.029259E-3
221.126175E-3
222.504616E-3
223.506546E-3
224.597740E-3
225.097275E-3
225.199127E-3
225.231743E-3
224.605751E-3
224.202919E-3
223.483658E-3
222.683144E-3
222.008514E-3
221.333885E-3
221.172523E-3
220.919609E-3
220.585442E-3
220.686722E-3
220.568848E-3
220.877266E-3
220.865250E-3
220.886993E-3
220.952225E-3
220.702171E-3
220.701027E-3
220.372581E-3
220.104218E-3
220.034409E-3
220.008659E-3
220.104218E-3
220.263863E-3
220.234108E-3
220.397758E-3
220.422363E-3
220.649529E-3
220.671272E-3
220.503616E-3
220.408058E-3
220.266151E-3
220.218086E-3
219.978905E-3
219.665337E-3
219.538307E-3
219.314003E-3
219.259644E-3
219.140053E-3
218.837929E-3
218.869400E-3
218.705177E-3
218.758392E-3
218.700027E-3
218.620491E-3
218.790436E-3
218.601608E-3
218.673134E-3
218.686867E-3
218.510628E-3
218.554687E-3
218.444252E-3
218.633652E-3
218.592453E-3
218.519211E-3
218.690300E-3
218.552399E-3
218.643951E-3
218.621635E-3
218.396759E-3
218.543816E-3
218.491745E-3
218.653107E-3
218.609619E-3
218.492889E-3
218.609047E-3
218.535233E-3
218.702316E-3
218.579865E-3
218.377304E-3
218.437386E-3
218.308067E-3
218.444824E-3
218.370438E-3
218.132973E-3
218.205070E-3
218.109512E-3
218.149567E-3
218.074608E-3
217.876053E-3
218.058014E-3
217.974472E-3
218.348694E-3
218.795013E-3
219.371796E-3
220.487022E-3
221.476936E-3
222.822762E-3
223.869324E-3
224.515915E-3
225.088692E-3
225.195122E-3
225.113869E-3
224.798584E-3
224.017525E-3
223.513985E-3
222.726631E-3
222.251701E-3
221.772194E-3
221.257210E-3
221.182823E-3
220.895576E-3
221.019745E-3
221.071815E-3
220.950508E-3
221.186256E-3
221.054649E-3
220.984840E-3
220.921326E-3
220.491600E-3
220.302200E-3
220.108795E-3
220.005798E-3
219.950294E-3
219.700241E-3
220.087624E-3
220.160866E-3
220.305634E-3
220.527077E-3
220.496750E-3
220.789146E-3
220.548248E-3
220.478439E-3
220.355988E-3
219.974327E-3
219.990921E-3
219.548607E-3
219.411278E-3
219.289970E-3
218.948936E-3
219.043922E-3
218.710899E-3
218.669128E-3
218.679428E-3
218.443108E-3
218.800163E-3
218.465996E-3
218.462563E-3
218.516922E-3
218.359566E-3
218.579865E-3
218.432808E-3
218.459129E-3
218.612480E-3
218.381310E-3
218.629074E-3
218.443108E-3
218.400764E-3
218.399048E-3
218.262863E-3
218.421364E-3
218.319511E-3
218.289185E-3
218.323517E-3
218.286896E-3
218.456268E-3
218.338966E-3
218.251991E-3
218.314362E-3
218.174744E-3
218.321228E-3
218.041992E-3
217.950439E-3
217.929268E-3
217.702103E-3
217.920685E-3
217.680931E-3
217.608833E-3
217.698097E-3
217.589378E-3
217.990494E-3
218.307495E-3
218.885994E-3
220.014954E-3
220.995140E-3
222.354698E-3
223.265648E-3
224.003792E-3
224.618912E-3
224.671555E-3
224.884987E-3
224.329948E-3
223.705101E-3
223.262215E-3
222.475433E-3
222.180748E-3
221.547890E-3
221.247482E-3
221.129608E-3
220.983696E-3
221.207428E-3
221.073532E-3
221.134186E-3
221.328735E-3
221.280098E-3
221.409416E-3
220.999146E-3
220.729637E-3
220.549393E-3
220.216370E-3
220.175171E-3
219.893074E-3
219.897652E-3
220.009804E-3
220.136261E-3
220.429230E-3
220.402908E-3
220.455551E-3
220.548820E-3
220.425797E-3
220.425797E-3
220.005226E-3
219.847298E-3
219.679070E-3
219.475365E-3
219.429588E-3
219.093704E-3
218.950081E-3
218.817329E-3
218.570137E-3
218.624496E-3
218.412209E-3
218.321228E-3
218.321800E-3
218.155861E-3
218.297768E-3
218.147850E-3
218.132973E-3
218.219948E-3
218.072319E-3
218.131256E-3
217.978477E-3
217.987061E-3
218.075180E-3
218.029976E-3
218.184471E-3
218.050575E-3
218.058586E-3
218.075752E-3
218.011665E-3
218.163300E-3
218.019676E-3
217.943001E-3
217.974472E-3
217.826271E-3
217.830276E-3
217.620277E-3
217.462349E-3
217.488098E-3
217.365074E-3
217.535591E-3
217.580795E-3
217.753601E-3
218.453407E-3
219.199562E-3
220.279312E-3
221.284676E-3
222.178459E-3
223.024750E-3
223.248482E-3
223.912239E-3
223.761749E-3
223.516273E-3
223.148918E-3
222.486305E-3
222.080040E-3
221.422577E-3
220.913887E-3
220.644951E-3
220.258713E-3
220.373726E-3
220.248985E-3
220.309067E-3
220.446968E-3
220.344543E-3
220.576286E-3
220.389175E-3
220.057869E-3
219.930840E-3
219.582939E-3
219.552612E-3
219.295692E-3
219.097137E-3
219.343758E-3
219.264221E-3
219.533157E-3
219.499969E-3
219.528580E-3
219.669342E-3
219.629860E-3
219.714546E-3
219.514847E-3
219.306564E-3
219.126320E-3
218.623924E-3
218.724060E-3
218.589020E-3
218.340683E-3
218.210793E-3
217.806816E-3
217.976761E-3
217.738152E-3
217.698669E-3
217.714691E-3
217.492104E-3
217.617416E-3
217.577362E-3
217.459488E-3
217.607689E-3
217.308426E-3
217.387962E-3
217.374229E-3
217.236328E-3
217.356491E-3
216.918182E-3
217.278099E-3
217.402840E-3
217.274666E-3
217.450333E-3
217.314148E-3
217.438316E-3
217.369080E-3
217.226028E-3
217.350769E-3
217.120743E-3
217.121315E-3
217.145920E-3
216.858673E-3
216.872406E-3
216.530800E-3
216.663551E-3
216.668129E-3
216.673279E-3
216.962242E-3
217.443466E-3
218.474579E-3
219.415855E-3
220.393753E-3
221.512985E-3
222.219086E-3
222.922897E-3
223.052788E-3
222.762108E-3
222.579575E-3
221.782494E-3
221.322441E-3
220.634079E-3
219.938278E-3
219.518280E-3
219.065666E-3
218.879128E-3
218.918610E-3
218.805313E-3
218.877983E-3
218.902016E-3
219.113159E-3
219.038773E-3
218.781853E-3
218.751526E-3
218.374443E-3
218.234253E-3
218.098640E-3
218.018532E-3
218.128967E-3
218.049431E-3
218.364143E-3
218.551826E-3
218.583298E-3
218.766403E-3
218.578148E-3
218.763542E-3
218.512344E-3
218.242836E-3
218.207932E-3
217.763329E-3
217.751884E-3
217.675209E-3
217.378807E-3
217.357063E-3
217.096710E-3
217.166519E-3
217.122459E-3
216.892433E-3
216.959381E-3
216.753960E-3
216.979980E-3
216.973686E-3
216.771126E-3
216.868973E-3
216.766548E-3
216.878700E-3
216.824913E-3
216.740799E-3
216.891289E-3
216.769981E-3
217.042923E-3
216.927910E-3
216.753960E-3
216.827774E-3
216.784286E-3
217.024612E-3
216.929054E-3
216.724205E-3
216.810608E-3
216.619492E-3
216.755104E-3
216.567993E-3
216.317940E-3
216.399765E-3
216.190338E-3
216.264153E-3
216.316223E-3
216.260147E-3
216.847801E-3
217.330170E-3
218.385887E-3
219.393539E-3
220.400047E-3
221.563911E-3
222.300339E-3
223.043633E-3
223.195267E-3
222.917747E-3
222.728920E-3
222.066307E-3
221.652031E-3
221.060944E-3
220.307922E-3
219.953728E-3
219.568634E-3
219.541168E-3
219.441605E-3
219.361496E-3
219.450760E-3
219.527435E-3
219.624138E-3
219.526291E-3
219.338036E-3
219.030190E-3
218.781853E-3
218.824768E-3
218.651390E-3
218.518066E-3
218.665695E-3
218.658257E-3
218.995857E-3
219.174957E-3
219.158936E-3
219.377518E-3
219.271088E-3
219.458199E-3
219.398117E-3
219.068527E-3
219.005013E-3
218.732071E-3
218.635941E-3
218.457413E-3
218.214798E-3
218.165016E-3
217.830276E-3
217.835426E-3
217.680931E-3
217.389679E-3
217.537308E-3
217.429733E-3
217.590523E-3
217.603683E-3
217.489243E-3
217.588806E-3
217.454338E-3
217.556190E-3
217.650032E-3
217.512131E-3
217.617416E-3
217.497826E-3
217.489243E-3
217.619705E-3
217.617416E-3
217.747307E-3
217.639160E-3
217.718124E-3
217.760468E-3
217.547035E-3
217.770195E-3
217.586517E-3
217.667198E-3
217.531586E-3
217.313004E-3
217.288971E-3
217.108727E-3
217.212868E-3
217.115021E-3
216.856956E-3
216.994286E-3
216.908455E-3
217.179680E-3
217.624855E-3
218.221664E-3
219.342041E-3
220.372581E-3
221.703529E-3
222.982979E-3
223.752594E-3
224.449539E-3
224.608612E-3
224.600029E-3
224.326515E-3
223.697662E-3
223.270226E-3
222.555542E-3
222.027397E-3
221.668625E-3
221.158218E-3
221.204567E-3
220.983124E-3
221.139336E-3
221.252060E-3
221.188545E-3
221.325302E-3
221.127892E-3
221.174812E-3
221.031761E-3
220.553398E-3
220.339966E-3
219.993210E-3
219.878197E-3
219.822693E-3
219.608688E-3
219.752312E-3
219.803810E-3
220.036125E-3
220.071602E-3
220.151711E-3
220.239830E-3
220.020103E-3
220.021820E-3
219.990349E-3
219.617271E-3
219.649887E-3
219.392395E-3
219.178391E-3
219.161797E-3
218.553543E-3
218.770409E-3
218.627930E-3
218.545532E-3
218.555832E-3
218.330956E-3
218.495178E-3
218.299484E-3
218.252563E-3
218.428230E-3
218.160439E-3
218.396759E-3
218.223953E-3
218.192482E-3
218.222237E-3
218.039131E-3
218.159294E-3
218.035698E-3
218.028831E-3
218.106651E-3
217.874908E-3
218.182755E-3
217.962456E-3
217.943573E-3
218.066025E-3
217.717552E-3
218.019676E-3
217.872620E-3
217.796516E-3
217.826271E-3
217.711258E-3
217.899513E-3
217.563629E-3
217.615128E-3
217.539024E-3
217.314720E-3
217.436600E-3
217.198563E-3
217.040062E-3
217.179108E-3
216.700172E-3
217.047501E-3
217.001152E-3
217.420006E-3
218.179893E-3
218.772697E-3
220.481300E-3
221.540451E-3
222.750664E-3
223.828697E-3
224.323082E-3
224.874687E-3
224.575996E-3
224.175453E-3
223.766327E-3
222.861099E-3
222.508049E-3
221.661758E-3
221.166801E-3
220.989418E-3
220.762253E-3
220.869255E-3
220.697594E-3
220.689011E-3
220.893288E-3
220.445251E-3
220.857239E-3
220.647240E-3
220.458984E-3
220.217514E-3
219.878769E-3
219.901657E-3
219.465637E-3
219.396400E-3
219.612694E-3
219.495964E-3
219.828987E-3
219.632149E-3
219.764900E-3
219.894791E-3
219.786072E-3
219.973183E-3
219.622421E-3
219.430161E-3
219.359207E-3
219.097710E-3
219.019318E-3
218.522644E-3
218.478012E-3
218.458557E-3
217.818832E-3
218.132973E-3
217.909241E-3
217.844582E-3
217.819977E-3
217.737579E-3
217.933273E-3
217.672348E-3
217.613411E-3
217.658043E-3
217.525291E-3
217.800522E-3
217.466354E-3
217.478371E-3
217.504120E-3
217.382240E-3
217.453194E-3
217.232895E-3
217.226028E-3
217.342758E-3
217.308998E-3
217.362213E-3
217.170525E-3
217.189407E-3
217.263222E-3
216.741371E-3
217.139626E-3
217.078400E-3
217.018890E-3
217.093277E-3
216.961098E-3
216.998291E-3
216.793442E-3
216.685867E-3
216.679001E-3
216.209221E-3
216.476440E-3
216.285896E-3
216.138840E-3
216.258430E-3
216.113663E-3
216.439247E-3
216.649818E-3
217.117310E-3
218.059731E-3
219.125748E-3
220.569420E-3
221.594810E-3
222.588730E-3
223.314285E-3
223.186111E-3
223.611259E-3
223.281097E-3
222.701454E-3
222.144127E-3
221.399117E-3
221.021461E-3
220.308495E-3
219.872475E-3
219.778061E-3
219.493675E-3
219.638443E-3
219.547462E-3
219.576645E-3
219.748878E-3
219.574928E-3
219.671059E-3
219.450188E-3
219.211578E-3
