Notes :


2023-10-22 ¿ÀÀü 9:48:56
Volts
Ch : LED 2,
273.729515E-3
269.157600E-3
267.848969E-3
264.159966E-3
260.713577E-3
258.838463E-3
255.273056E-3
256.050682E-3
254.769516E-3
253.518105E-3
255.092239E-3
253.814507E-3
256.613731E-3
256.792831E-3
257.096672E-3
258.789253E-3
257.815361E-3
260.714722E-3
260.473251E-3
260.210037E-3
261.548424E-3
260.167694E-3
262.003899E-3
261.514091E-3
261.807632E-3
263.374329E-3
261.787605E-3
264.628601E-3
263.969421E-3
264.043808E-3
265.002251E-3
263.136292E-3
264.782524E-3
264.041519E-3
262.830734E-3
263.298225E-3
260.846329E-3
262.628174E-3
261.882591E-3
260.973358E-3
262.051392E-3
260.707283E-3
263.150024E-3
262.879944E-3
262.692833E-3
264.590836E-3
262.954330E-3
265.853691E-3
265.977287E-3
265.689468E-3
267.098236E-3
265.659142E-3
267.978287E-3
267.586899E-3
267.498207E-3
268.803406E-3
267.147446E-3
269.570732E-3
269.527245E-3
268.817711E-3
270.071411E-3
267.996597E-3
270.525169E-3
270.181274E-3
269.393349E-3
270.421028E-3
268.372536E-3
270.544052E-3
269.667435E-3
268.773651E-3
269.925499E-3
267.819786E-3
270.367241E-3
269.637108E-3
269.035721E-3
270.300293E-3
268.719864E-3
271.401215E-3
270.878220E-3
270.209312E-3
271.590042E-3
270.388412E-3
272.999954E-3
272.821426E-3
271.879005E-3
272.741318E-3
270.271683E-3
270.995522E-3
267.773437E-3
263.751984E-3
261.757851E-3
257.085800E-3
256.912422E-3
254.038239E-3
251.503372E-3
251.384926E-3
249.330139E-3
251.709366E-3
251.154900E-3
251.276779E-3
253.182793E-3
252.038956E-3
255.231285E-3
255.474472E-3
254.983521E-3
256.398582E-3
255.220413E-3
257.933235E-3
257.377052E-3
256.840324E-3
258.050537E-3
256.676102E-3
259.557152E-3
259.578323E-3
259.515381E-3
261.004257E-3
259.610939E-3
262.081146E-3
260.904121E-3
260.027504E-3
260.397720E-3
258.132362E-3
259.497643E-3
258.614159E-3
257.536697E-3
258.053398E-3
255.927086E-3
258.259392E-3
257.893753E-3
257.372475E-3
259.235001E-3
257.337570E-3
260.185432E-3
259.803772E-3
260.071564E-3
261.412239E-3
260.210037E-3
263.350296E-3
262.808990E-3
262.311745E-3
263.451004E-3
261.852264E-3
264.550209E-3
264.302444E-3
264.111328E-3
264.990234E-3
263.264465E-3
265.613937E-3
265.040588E-3
264.511871E-3
265.433693E-3
263.733101E-3
266.327477E-3
265.704918E-3
265.180779E-3
265.900040E-3
263.760567E-3
266.142654E-3
265.257454E-3
264.915848E-3
265.464592E-3
262.842751E-3
265.635681E-3
265.099525E-3
265.054893E-3
266.316032E-3
264.676094E-3
267.329407E-3
267.131996E-3
266.709137E-3
268.070984E-3
266.407013E-3
268.853760E-3
268.204308E-3
267.010117E-3
267.076492E-3
263.281631E-3
263.194084E-3
259.571457E-3
256.103897E-3
254.219627E-3
249.947548E-3
250.557518E-3
248.524475E-3
247.655869E-3
248.816299E-3
246.883965E-3
249.958992E-3
249.896049E-3
250.581551E-3
252.098465E-3
250.893974E-3
253.923225E-3
253.949547E-3
253.645706E-3
255.116844E-3
253.614235E-3
256.535912E-3
256.249237E-3
256.236076E-3
258.202171E-3
256.321335E-3
259.565735E-3
259.661293E-3
259.343719E-3
259.819221E-3
257.662582E-3
259.370041E-3
257.910347E-3
256.753349E-3
257.152748E-3
254.484558E-3
256.590843E-3
255.357742E-3
254.949760E-3
255.984879E-3
254.270554E-3
257.064056E-3
256.792831E-3
256.956482E-3
258.564377E-3
257.091522E-3
260.173988E-3
259.942818E-3
259.890747E-3
261.171341E-3
259.727097E-3
262.362671E-3
261.843109E-3
261.676025E-3
263.012695E-3
261.392212E-3
263.837242E-3
262.981224E-3
263.152885E-3
264.277840E-3
262.315750E-3
264.657784E-3
263.776588E-3
263.777733E-3
264.644623E-3
262.680244E-3
265.140724E-3
264.460945E-3
263.846397E-3
264.605713E-3
262.516022E-3
264.955902E-3
264.176559E-3
263.746262E-3
264.512444E-3
262.613297E-3
265.069199E-3
264.725304E-3
264.489555E-3
265.655708E-3
263.856697E-3
266.707420E-3
266.199875E-3
266.211891E-3
267.534256E-3
265.563583E-3
267.955971E-3
266.716003E-3
265.155602E-3
263.603210E-3
258.485413E-3
257.513237E-3
253.603363E-3
250.564957E-3
249.101257E-3
245.429420E-3
246.850777E-3
245.552444E-3
245.501518E-3
246.838760E-3
245.103836E-3
248.355675E-3
248.276711E-3
248.822594E-3
250.825310E-3
249.204826E-3
252.093887E-3
251.806641E-3
251.703644E-3
252.799416E-3
251.116562E-3
253.723526E-3
253.282928E-3
253.068352E-3
254.707718E-3
253.437424E-3
256.524467E-3
256.054115E-3
255.842972E-3
256.296730E-3
253.924942E-3
255.880165E-3
254.701424E-3
253.938675E-3
254.256248E-3
251.451874E-3
253.305817E-3
252.695274E-3
252.346802E-3
253.456879E-3
251.743698E-3
254.403305E-3
253.839111E-3
253.946114E-3
255.563164E-3
254.457092E-3
257.479477E-3
257.175064E-3
257.185936E-3
258.491135E-3
256.784821E-3
259.186363E-3
258.750916E-3
258.551216E-3
260.206604E-3
257.604218E-3
260.674667E-3
260.361099E-3
260.090446E-3
261.169052E-3
259.038734E-3
261.857986E-3
261.012268E-3
260.556221E-3
261.807060E-3
259.432411E-3
262.271118E-3
261.230278E-3
260.876656E-3
261.853981E-3
259.732819E-3
262.286568E-3
261.428833E-3
261.356163E-3
262.240219E-3
260.033798E-3
262.544060E-3
261.802483E-3
261.524391E-3
262.929726E-3
261.132431E-3
264.230347E-3
263.432121E-3
263.463593E-3
264.704704E-3
263.055038E-3
266.160393E-3
265.231705E-3
264.447784E-3
264.791679E-3
261.284637E-3
261.039734E-3
256.835747E-3
253.534698E-3
251.138306E-3
246.037674E-3
247.004700E-3
244.477272E-3
243.205261E-3
243.897629E-3
242.099190E-3
245.369339E-3
244.884109E-3
245.452309E-3
247.216415E-3
246.034241E-3
249.486923E-3
249.145317E-3
249.496078E-3
250.597000E-3
248.670387E-3
251.565742E-3
250.550079E-3
250.389290E-3
251.629257E-3
249.924660E-3
253.446579E-3
253.000259E-3
253.341866E-3
254.355812E-3
252.363396E-3
254.549217E-3
253.246880E-3
252.913857E-3
252.884102E-3
250.704575E-3
252.769089E-3
251.143456E-3
250.831032E-3
251.736832E-3
249.526405E-3
252.455521E-3
251.531410E-3
251.759148E-3
253.255463E-3
251.807785E-3
254.371262E-3
254.157829E-3
254.160118E-3
255.794334E-3
253.962708E-3
256.685257E-3
256.355095E-3
256.242371E-3
257.454300E-3
255.915070E-3
258.389282E-3
257.546425E-3
257.597351E-3
258.772659E-3
256.800842E-3
259.378624E-3
258.605003E-3
258.718872E-3
259.693336E-3
257.609940E-3
259.952545E-3
259.118271E-3
258.672523E-3
259.928513E-3
257.694054E-3
260.194588E-3
259.175491E-3
258.991241E-3
259.552002E-3
257.678032E-3
260.284424E-3
259.331131E-3
259.059906E-3
260.446930E-3
258.638191E-3
261.167908E-3
260.138512E-3
260.230637E-3
261.448288E-3
259.680176E-3
262.593269E-3
261.744690E-3
262.288284E-3
262.950325E-3
260.309029E-3
263.833237E-3
262.208176E-3
260.779381E-3
259.815788E-3
255.258751E-3
254.750633E-3
250.298882E-3
247.701073E-3
246.240234E-3
242.555809E-3
243.963432E-3
242.339516E-3
242.362976E-3
243.744850E-3
242.546654E-3
245.582199E-3
245.286369E-3
246.077728E-3
247.501945E-3
246.103477E-3
249.460030E-3
248.880959E-3
249.411964E-3
250.490570E-3
247.972298E-3
251.097679E-3
250.390434E-3
251.115990E-3
253.031158E-3
251.293945E-3
254.045677E-3
253.111839E-3
252.859497E-3
253.334999E-3
250.868225E-3
252.508736E-3
250.841904E-3
250.409889E-3
250.750351E-3
248.276138E-3
250.510597E-3
249.208832E-3
249.389076E-3
250.376129E-3
248.801994E-3
251.592064E-3
250.765800E-3
251.360893E-3
253.165627E-3
251.421547E-3
254.427338E-3
253.965569E-3
254.286575E-3
255.598640E-3
253.856850E-3
256.621170E-3
255.968285E-3
256.204605E-3
257.117844E-3
254.186440E-3
257.682610E-3
256.823158E-3
257.281494E-3
258.286858E-3
255.132866E-3
258.862495E-3
257.958984E-3
257.843971E-3
258.450508E-3
256.806564E-3
259.481049E-3
258.405304E-3
258.407593E-3
259.121132E-3
256.916428E-3
259.247589E-3
258.219910E-3
258.395576E-3
258.860779E-3
256.933594E-3
259.871292E-3
259.248734E-3
259.426689E-3
260.753059E-3
258.977509E-3
261.648560E-3
260.893822E-3
261.084938E-3
262.300301E-3
260.243225E-3
262.611580E-3
261.143875E-3
259.853554E-3
258.477974E-3
253.810501E-3
253.295517E-3
249.157906E-3
246.740913E-3
245.642853E-3
242.191887E-3
243.434715E-3
241.587067E-3
241.880608E-3
242.852783E-3
241.563034E-3
244.819450E-3
244.426918E-3
245.333290E-3
246.780968E-3
245.468903E-3
248.530769E-3
247.649002E-3
247.849274E-3
249.078369E-3
247.092819E-3
250.127220E-3
249.288940E-3
249.846268E-3
250.955200E-3
249.745560E-3
252.596855E-3
251.624680E-3
251.377487E-3
252.099609E-3
249.551582E-3
251.667023E-3
249.678612E-3
249.011421E-3
249.634552E-3
245.930672E-3
249.201965E-3
247.661018E-3
248.078156E-3
249.212837E-3
247.429276E-3
250.492859E-3
249.552727E-3
250.053406E-3
251.233864E-3
248.129654E-3
252.306747E-3
251.804352E-3
252.256966E-3
254.027367E-3
252.426910E-3
255.148315E-3
254.112625E-3
254.158401E-3
255.384636E-3
253.753853E-3
256.626892E-3
255.136871E-3
255.044746E-3
255.875587E-3
254.148674E-3
257.129288E-3
255.999184E-3
255.823517E-3
256.822586E-3
255.046463E-3
257.326126E-3
256.171417E-3
256.025505E-3
257.083511E-3
254.273987E-3
257.368469E-3
256.133652E-3
256.632614E-3
257.401085E-3
255.361176E-3
257.756996E-3
256.453514E-3
256.761932E-3
258.116913E-3
256.115341E-3
259.086800E-3
258.040237E-3
258.531761E-3
259.805489E-3
257.809067E-3
261.067200E-3
259.918213E-3
259.743690E-3
260.693550E-3
257.847404E-3
259.323692E-3
255.908775E-3
253.098679E-3
250.806427E-3
245.655441E-3
245.689201E-3
242.249107E-3
240.794563E-3
240.791130E-3
238.556099E-3
240.651512E-3
239.689064E-3
240.596581E-3
242.238808E-3
241.178513E-3
244.619751E-3
243.716812E-3
244.133949E-3
245.405388E-3
244.137955E-3
246.670532E-3
245.452881E-3
246.030235E-3
247.107697E-3
245.465469E-3
248.257256E-3
247.298241E-3
247.880745E-3
249.167633E-3
247.837257E-3
250.552368E-3
248.858643E-3
248.793983E-3
249.040604E-3
246.961212E-3
248.743057E-3
247.057343E-3
246.758080E-3
247.320557E-3
245.340729E-3
247.400665E-3
246.438217E-3
246.784973E-3
248.160553E-3
246.608162E-3
249.231148E-3
248.301315E-3
249.291229E-3
250.593567E-3
247.814369E-3
251.598358E-3
250.685120E-3
251.271629E-3
252.349091E-3
251.109123E-3
253.470612E-3
252.504730E-3
252.881813E-3
253.966713E-3
252.628326E-3
255.162048E-3
253.747559E-3
253.922081E-3
254.474831E-3
251.811790E-3
255.126572E-3
254.047966E-3
254.247093E-3
254.829025E-3
253.362465E-3
255.884743E-3
254.465103E-3
254.439926E-3
255.182076E-3
252.156258E-3
255.428696E-3
254.473686E-3
254.623032E-3
255.267334E-3
254.067421E-3
256.122780E-3
254.887390E-3
255.198097E-3
255.945396E-3
254.747200E-3
257.288361E-3
256.234360E-3
256.784821E-3
257.718658E-3
256.404305E-3
259.454155E-3
258.109474E-3
258.427048E-3
258.223343E-3
256.442642E-3
257.230568E-3
253.518677E-3
250.785255E-3
248.171997E-3
244.241524E-3
244.100761E-3
240.369415E-3
239.152336E-3
238.967514E-3
236.934471E-3
239.765739E-3
238.710022E-3
239.761734E-3
240.880966E-3
240.119362E-3
243.374634E-3
242.276001E-3
243.953705E-3
244.870377E-3
243.791771E-3
246.280861E-3
244.806290E-3
245.063210E-3
246.015358E-3
244.860077E-3
247.651291E-3
246.533775E-3
247.576332E-3
248.541641E-3
247.380638E-3
249.651718E-3
247.566032E-3
247.210121E-3
247.436142E-3
245.435715E-3
247.267914E-3
245.499802E-3
245.126152E-3
245.345879E-3
244.060135E-3
246.583557E-3
245.005417E-3
245.888901E-3
246.596146E-3
244.449806E-3
248.367691E-3
247.386360E-3
248.292732E-3
249.063492E-3
247.880745E-3
251.000404E-3
249.529266E-3
250.143814E-3
250.834465E-3
249.795341E-3
252.410316E-3
250.931740E-3
251.359177E-3
252.175140E-3
250.813866E-3
253.483200E-3
252.129936E-3
252.350235E-3
252.874374E-3
251.584625E-3
254.154968E-3
252.687263E-3
252.357674E-3
252.969360E-3
251.732826E-3
254.469109E-3
252.584839E-3
252.786255E-3
253.490067E-3
251.982307E-3
254.570961E-3
252.852631E-3
253.696632E-3
254.189873E-3
252.932739E-3
255.687904E-3
254.013062E-3
254.598427E-3
255.897903E-3
254.505157E-3
257.501793E-3
256.125069E-3
256.533623E-3
257.402802E-3
255.593491E-3
258.284569E-3
255.489922E-3
254.084015E-3
252.214622E-3
248.039818E-3
247.998619E-3
243.289948E-3
241.286659E-3
240.297890E-3
237.705231E-3
239.739418E-3
237.638283E-3
238.063431E-3
239.238739E-3
238.791275E-3
242.201614E-3
241.381645E-3
242.372131E-3
243.432999E-3
242.550087E-3
245.774460E-3
244.250679E-3
244.707870E-3
245.433426E-3
244.354248E-3
247.253609E-3
246.043968E-3
246.824455E-3
247.975159E-3
247.222137E-3
250.153542E-3
247.904778E-3
247.850990E-3
247.933960E-3
245.994759E-3
247.840118E-3
245.548439E-3
246.039391E-3
245.918083E-3
244.151115E-3
246.406746E-3
244.456100E-3
244.951630E-3
245.698929E-3
244.620323E-3
247.621536E-3
246.284294E-3
246.989250E-3
248.031235E-3
247.285652E-3
250.412178E-3
248.895264E-3
249.687767E-3
250.507736E-3
249.480057E-3
252.083015E-3
250.728607E-3
251.192093E-3
251.930237E-3
250.913429E-3
253.435135E-3
251.768303E-3
252.176285E-3
252.850342E-3
251.465607E-3
254.411888E-3
252.317047E-3
252.896690E-3
253.475189E-3
252.206612E-3
254.648781E-3
252.909851E-3
253.163910E-3
253.829384E-3
252.601433E-3
254.699707E-3
252.822876E-3
253.277779E-3
253.656578E-3
252.490997E-3
255.000114E-3
253.053474E-3
253.622818E-3
254.424477E-3
253.213120E-3
255.798340E-3
254.393005E-3
255.123138E-3
255.885315E-3
253.782463E-3
257.356453E-3
256.167984E-3
256.855774E-3
257.445717E-3
254.808426E-3
257.129860E-3
253.482628E-3
251.465607E-3
248.946762E-3
243.882751E-3
243.926239E-3
239.832115E-3
238.512611E-3
237.943840E-3
235.686493E-3
237.782478E-3
236.287308E-3
237.131882E-3
238.663673E-3
238.168144E-3
241.400528E-3
240.199471E-3
241.284943E-3
242.039108E-3
241.150475E-3
243.504524E-3
242.196465E-3
242.756081E-3
243.418694E-3
241.197395E-3
244.339943E-3
243.091393E-3
243.997192E-3
245.492935E-3
244.562531E-3
247.422981E-3
245.383644E-3
245.538139E-3
245.843124E-3
243.249893E-3
245.911789E-3
243.324280E-3
243.735695E-3
243.994904E-3
242.082596E-3
244.525909E-3
242.834473E-3
243.338585E-3
244.299889E-3
243.115997E-3
245.950127E-3
244.575691E-3
245.510674E-3
246.280861E-3
245.337868E-3
248.392296E-3
246.931458E-3
247.491646E-3
248.508453E-3
247.404671E-3
250.292587E-3
248.598289E-3
249.223709E-3
250.159264E-3
248.685837E-3
251.556587E-3
249.473190E-3
249.640846E-3
250.586700E-3
249.410248E-3
251.982307E-3
250.054550E-3
251.049614E-3
251.495934E-3
249.979591E-3
252.543068E-3
250.610161E-3
250.794983E-3
251.268196E-3
249.734688E-3
252.762222E-3
250.633621E-3
251.428986E-3
251.741982E-3
250.155258E-3
252.782249E-3
251.291084E-3
251.548576E-3
252.198029E-3
251.181221E-3
253.951263E-3
252.369690E-3
252.848625E-3
254.202461E-3
253.249168E-3
255.842400E-3
253.778458E-3
254.504013E-3
254.193878E-3
250.559807E-3
252.003479E-3
247.117424E-3
245.309258E-3
242.717171E-3
238.009071E-3
239.105988E-3
235.651016E-3
235.287666E-3
235.670471E-3
234.379005E-3
237.164497E-3
235.582352E-3
236.946487E-3
238.243675E-3
237.289238E-3
240.768814E-3
239.567184E-3
