Notes :


2023-11-04 ¿ÀÈÄ 7:31:48
Volts
Ch : LED 2,
834.114075E-3
833.908653E-3
833.794785E-3
833.666611E-3
833.552742E-3
833.377647E-3
833.133316E-3
833.067513E-3
832.856941E-3
832.939339E-3
832.843781E-3
832.835770E-3
832.871246E-3
833.114433E-3
833.743858E-3
834.904861E-3
836.380577E-3
837.999344E-3
839.870453E-3
841.280365E-3
842.582130E-3
843.467331E-3
844.231224E-3
844.024658E-3
843.439865E-3
843.007278E-3
842.394447E-3
841.603088E-3
841.002274E-3
840.471840E-3
839.901924E-3
839.408112E-3
839.264488E-3
839.211845E-3
839.130592E-3
839.179802E-3
839.331436E-3
839.302254E-3
839.374924E-3
839.116859E-3
839.096832E-3
838.610458E-3
838.290024E-3
837.880898E-3
837.609100E-3
837.660027E-3
837.713814E-3
837.846565E-3
838.133812E-3
838.338661E-3
838.568115E-3
838.576126E-3
838.584709E-3
838.615608E-3
838.811302E-3
838.474846E-3
838.101196E-3
837.808228E-3
837.593079E-3
837.274361E-3
837.153625E-3
836.873245E-3
836.628914E-3
836.575699E-3
836.170006E-3
836.107063E-3
835.959435E-3
835.756302E-3
835.675621E-3
835.487938E-3
835.469627E-3
835.291672E-3
835.233879E-3
835.157776E-3
834.967232E-3
834.950638E-3
834.959793E-3
834.759521E-3
834.851074E-3
834.751511E-3
834.689713E-3
834.788132E-3
834.719467E-3
834.706879E-3
834.714890E-3
834.675980E-3
834.657097E-3
834.539795E-3
834.540367E-3
834.447670E-3
834.455681E-3
834.432220E-3
834.361267E-3
834.240532E-3
834.261131E-3
834.160995E-3
834.049988E-3
833.726692E-3
833.730698E-3
833.469200E-3
833.259773E-3
833.080101E-3
832.889557E-3
832.898140E-3
832.589149E-3
832.597160E-3
832.605743E-3
832.540512E-3
832.818031E-3
833.297539E-3
834.189606E-3
835.546303E-3
837.080956E-3
838.442802E-3
840.172577E-3
841.521835E-3
842.538643E-3
843.138313E-3
843.303680E-3
843.216133E-3
842.821884E-3
842.218781E-3
841.413116E-3
840.906143E-3
840.224075E-3
839.810371E-3
839.439583E-3
839.171219E-3
839.078522E-3
838.978386E-3
838.970375E-3
839.162064E-3
838.986969E-3
839.075661E-3
838.912582E-3
838.736343E-3
838.291168E-3
837.876320E-3
837.546730E-3
837.237167E-3
837.044334E-3
837.036324E-3
836.928177E-3
837.178802E-3
837.386513E-3
837.618256E-3
837.796783E-3
837.742996E-3
837.900925E-3
837.776184E-3
837.618256E-3
837.439728E-3
837.105560E-3
836.977959E-3
836.584282E-3
836.306190E-3
836.197472E-3
835.873604E-3
835.890198E-3
835.572624E-3
835.239601E-3
835.022736E-3
834.808159E-3
834.743500E-3
834.511185E-3
834.416199E-3
834.292603E-3
834.420776E-3
834.237671E-3
834.076881E-3
834.138107E-3
833.933830E-3
833.888054E-3
833.822823E-3
833.791351E-3
833.732986E-3
833.600807E-3
833.608246E-3
833.575630E-3
833.500671E-3
833.490372E-3
833.457184E-3
833.371925E-3
833.405685E-3
833.208847E-3
833.152199E-3
833.054924E-3
833.024025E-3
833.011436E-3
832.888985E-3
832.798004E-3
832.808304E-3
832.776833E-3
832.678413E-3
832.513618E-3
832.328796E-3
832.083893E-3
831.937408E-3
831.801796E-3
831.610680E-3
831.409264E-3
831.429863E-3
831.131172E-3
831.131172E-3
831.077957E-3
831.117439E-3
831.443596E-3
832.054710E-3
833.244896E-3
834.648514E-3
836.433220E-3
838.020515E-3
839.443016E-3
840.610886E-3
841.408539E-3
841.881752E-3
841.983032E-3
841.605949E-3
841.108131E-3
840.502167E-3
839.870453E-3
839.394379E-3
838.767815E-3
838.288879E-3
838.006783E-3
837.732697E-3
837.674904E-3
837.676048E-3
837.925529E-3
837.823677E-3
837.947273E-3
837.944412E-3
837.908936E-3
837.607956E-3
837.209702E-3
836.735344E-3
836.414337E-3
835.844994E-3
835.818100E-3
835.929680E-3
836.028671E-3
836.236954E-3
836.293602E-3
836.507607E-3
836.590576E-3
836.699867E-3
836.694717E-3
836.622047E-3
836.404037E-3
836.352539E-3
836.112785E-3
835.916519E-3
835.580635E-3
835.454750E-3
835.188675E-3
834.966660E-3
834.724045E-3
834.475708E-3
834.432220E-3
834.151268E-3
833.987617E-3
833.811951E-3
833.470917E-3
833.538437E-3
833.498383E-3
833.363342E-3
833.457184E-3
833.277512E-3
833.214569E-3
833.173370E-3
833.076096E-3
833.232307E-3
833.009720E-3
832.878685E-3
832.870102E-3
832.848358E-3
832.800293E-3
832.820892E-3
832.796288E-3
832.695007E-3
832.651520E-3
832.571983E-3
832.430077E-3
832.324791E-3
832.311058E-3
832.211494E-3
832.226372E-3
832.122803E-3
832.073593E-3
832.209778E-3
831.953430E-3
831.721687E-3
831.569481E-3
831.451607E-3
831.293106E-3
831.115723E-3
831.033897E-3
830.810165E-3
830.814171E-3
830.627060E-3
830.565834E-3
830.574417E-3
830.469131E-3
830.592728E-3
830.787849E-3
831.496811E-3
832.613754E-3
833.905220E-3
835.542297E-3
837.121582E-3
838.596725E-3
839.710808E-3
840.485001E-3
840.838051E-3
840.796852E-3
840.467262E-3
840.144539E-3
839.395523E-3
838.786125E-3
838.251114E-3
837.646866E-3
837.291527E-3
836.960793E-3
836.808586E-3
836.799431E-3
836.565399E-3
836.758232E-3
836.742783E-3
836.841774E-3
836.768532E-3
836.578560E-3
836.222076E-3
835.910797E-3
835.364914E-3
835.198402E-3
834.873962E-3
834.947777E-3
835.082245E-3
835.364914E-3
835.607529E-3
835.821533E-3
835.895348E-3
835.963440E-3
836.012077E-3
835.997200E-3
835.794640E-3
835.627556E-3
835.284233E-3
835.072517E-3
834.750366E-3
834.590721E-3
834.349251E-3
834.067154E-3
833.866310E-3
833.571053E-3
833.323288E-3
833.200264E-3
832.955360E-3
832.826042E-3
832.844925E-3
832.640648E-3
832.581711E-3
832.483292E-3
832.455254E-3
832.346535E-3
832.165146E-3
832.063866E-3
831.946564E-3
831.798363E-3
831.828690E-3
831.751442E-3
831.718826E-3
831.693649E-3
831.695366E-3
831.592369E-3
831.491661E-3
831.449890E-3
831.479645E-3
831.404114E-3
831.389236E-3
831.328011E-3
831.233025E-3
831.192970E-3
831.146622E-3
831.066513E-3
830.883408E-3
830.771828E-3
830.536079E-3
830.299187E-3
830.141830E-3
829.874039E-3
829.749298E-3
829.479790E-3
829.498672E-3
829.471207E-3
829.664612E-3
829.692650E-3
829.933548E-3
830.671120E-3
831.777191E-3
833.224297E-3
834.774971E-3
836.436081E-3
837.755013E-3
838.891983E-3
839.572906E-3
839.945412E-3
839.956284E-3
839.633560E-3
839.196396E-3
838.641357E-3
837.908363E-3
837.434578E-3
836.917305E-3
836.742210E-3
836.343384E-3
836.202621E-3
836.174583E-3
836.145973E-3
836.240959E-3
836.434364E-3
836.432076E-3
836.333084E-3
836.127663E-3
835.843849E-3
835.316849E-3
834.927177E-3
834.539795E-3
834.332085E-3
834.189606E-3
834.083748E-3
834.149551E-3
834.338379E-3
834.504318E-3
834.768105E-3
834.779549E-3
834.828186E-3
834.796715E-3
834.728622E-3
834.530067E-3
834.328079E-3
834.090042E-3
833.776474E-3
833.577919E-3
833.248901E-3
833.064651E-3
832.879829E-3
832.645798E-3
832.450676E-3
832.366562E-3
832.071877E-3
831.959724E-3
831.789207E-3
831.698227E-3
831.588936E-3
831.490517E-3
831.568336E-3
831.334305E-3
831.127167E-3
831.074524E-3
830.982971E-3
830.981827E-3
830.861092E-3
830.785561E-3
830.843925E-3
830.611610E-3
830.574989E-3
830.621338E-3
830.409622E-3
830.399895E-3
830.282021E-3
830.286026E-3
830.266571E-3
830.150414E-3
830.157280E-3
830.023956E-3
829.974174E-3
829.898643E-3
829.816818E-3
829.744148E-3
829.553032E-3
829.451180E-3
829.257774E-3
829.220009E-3
829.004288E-3
828.706169E-3
828.616333E-3
828.289032E-3
828.157425E-3
828.100204E-3
827.899933E-3
827.996635E-3
827.935982E-3
828.199768E-3
828.903580E-3
829.824257E-3
831.204987E-3
832.783699E-3
834.246826E-3
835.956001E-3
837.086105E-3
837.958145E-3
838.378716E-3
838.529778E-3
838.408470E-3
837.991905E-3
837.491226E-3
836.738777E-3
836.283875E-3
835.811234E-3
835.318565E-3
835.105133E-3
834.839058E-3
834.770966E-3
834.857368E-3
834.784126E-3
834.953499E-3
834.962654E-3
835.011864E-3
834.972382E-3
834.588432E-3
834.328079E-3
833.860588E-3
833.383942E-3
833.223724E-3
832.900429E-3
832.943344E-3
832.955933E-3
833.089256E-3
833.377075E-3
833.472061E-3
833.627701E-3
833.696938E-3
833.638573E-3
833.516693E-3
833.592224E-3
833.384514E-3
833.106995E-3
832.765388E-3
832.657814E-3
832.320786E-3
832.086754E-3
831.833267E-3
831.658745E-3
831.626701E-3
831.267929E-3
831.060219E-3
830.896568E-3
830.792999E-3
830.709457E-3
830.481720E-3
830.443382E-3
830.330086E-3
830.219650E-3
830.208206E-3
830.074310E-3
830.100632E-3
830.014801E-3
829.944992E-3
829.925537E-3
829.514694E-3
829.779053E-3
829.751015E-3
829.707527E-3
829.714966E-3
829.595947E-3
829.508400E-3
829.547310E-3
829.492378E-3
829.332161E-3
829.272652E-3
829.278374E-3
829.137611E-3
829.111290E-3
828.973961E-3
828.830338E-3
828.750229E-3
828.717041E-3
828.651237E-3
828.376007E-3
828.133392E-3
828.076744E-3
827.846718E-3
827.685928E-3
827.739716E-3
827.595520E-3
827.602959E-3
827.601242E-3
827.906799E-3
828.738785E-3
829.842567E-3
831.289673E-3
832.828331E-3
834.237099E-3
835.534859E-3
836.494446E-3
837.230301E-3
837.385368E-3
837.270355E-3
836.888123E-3
836.477852E-3
835.926819E-3
835.295677E-3
834.751511E-3
834.309196E-3
833.999634E-3
833.758736E-3
833.504105E-3
833.396530E-3
833.491516E-3
833.351898E-3
833.407974E-3
833.376503E-3
833.152771E-3
832.659531E-3
832.258415E-3
832.002640E-3
831.758308E-3
831.591225E-3
831.578636E-3
831.676483E-3
831.864738E-3
832.135963E-3
832.141685E-3
832.448387E-3
832.440376E-3
832.533646E-3
832.596016E-3
832.395744E-3
832.230377E-3
831.904793E-3
831.784058E-3
831.544876E-3
831.052208E-3
830.960655E-3
830.672836E-3
830.429077E-3
830.185318E-3
829.909515E-3
829.816818E-3
829.559898E-3
829.471207E-3
829.274368E-3
829.127312E-3
828.991699E-3
828.858376E-3
828.856659E-3
828.699303E-3
828.469849E-3
828.551674E-3
828.479004E-3
828.411484E-3
828.311920E-3
828.313637E-3
828.360558E-3
828.215790E-3
828.200912E-3
828.323364E-3
828.089333E-3
828.132820E-3
827.932549E-3
827.913094E-3
827.958298E-3
827.901077E-3
827.905655E-3
827.847290E-3
827.804375E-3
827.626419E-3
827.452469E-3
827.373505E-3
827.158356E-3
827.038193E-3
826.797295E-3
826.582718E-3
826.443672E-3
826.017380E-3
826.114655E-3
826.032829E-3
825.968170E-3
826.180458E-3
826.345253E-3
826.824760E-3
827.793503E-3
829.074669E-3
830.620766E-3
832.129097E-3
833.777618E-3
835.067368E-3
835.952568E-3
836.551094E-3
836.588860E-3
836.531067E-3
836.109924E-3
835.530281E-3
835.063362E-3
834.403038E-3
833.880043E-3
833.524704E-3
833.160782E-3
833.010292E-3
832.872963E-3
832.913589E-3
833.142471E-3
833.046913E-3
833.292389E-3
833.192825E-3
833.087540E-3
832.946205E-3
832.491875E-3
832.117081E-3
831.686783E-3
831.520844E-3
831.287956E-3
831.087112E-3
831.223297E-3
831.253052E-3
831.469345E-3
831.530571E-3
831.695938E-3
831.833267E-3
831.806374E-3
831.646729E-3
831.574059E-3
831.385231E-3
831.241035E-3
830.988121E-3
830.643654E-3
830.684280E-3
830.383873E-3
830.055428E-3
829.790497E-3
829.545593E-3
829.420853E-3
829.170799E-3
829.127312E-3
828.894997E-3
828.511047E-3
828.591728E-3
828.402901E-3
828.389168E-3
828.296471E-3
828.248978E-3
828.160858E-3
828.068733E-3
827.992058E-3
828.093910E-3
827.932549E-3
827.885056E-3
827.752876E-3
827.782631E-3
827.681923E-3
827.711105E-3
827.634430E-3
827.452469E-3
827.270508E-3
827.299690E-3
827.232742E-3
827.267075E-3
827.091408E-3
827.106857E-3
827.077103E-3
827.024460E-3
827.055931E-3
826.622772E-3
826.724052E-3
826.499748E-3
826.407623E-3
826.245117E-3
825.946999E-3
825.868034E-3
825.664330E-3
825.489235E-3
825.553322E-3
825.325584E-3
825.337029E-3
825.339317E-3
825.525856E-3
826.006508E-3
826.765823E-3
828.113937E-3
829.613686E-3
830.933762E-3
832.695580E-3
833.963013E-3
834.980392E-3
835.602379E-3
835.818672E-3
835.704231E-3
835.225296E-3
834.625053E-3
834.230804E-3
833.485794E-3
832.983971E-3
832.517624E-3
832.345390E-3
832.078171E-3
831.982613E-3
832.026672E-3
831.999207E-3
832.044411E-3
832.155418E-3
832.168007E-3
832.189751E-3
831.869888E-3
831.624985E-3
831.090546E-3
831.048203E-3
830.672836E-3
830.338669E-3
830.410194E-3
830.334663E-3
830.451965E-3
830.681419E-3
830.881119E-3
830.962944E-3
831.014442E-3
831.091118E-3
830.995560E-3
830.881691E-3
830.712891E-3
830.505753E-3
830.146408E-3
829.981041E-3
829.720688E-3
829.648018E-3
829.334450E-3
829.054070E-3
828.944206E-3
828.662109E-3
828.575706E-3
828.376007E-3
828.154564E-3
828.076744E-3
827.795792E-3
827.910233E-3
827.781487E-3
827.668762E-3
827.673912E-3
827.490807E-3
827.458191E-3
827.450180E-3
827.379799E-3
827.282524E-3
827.300262E-3
827.184105E-3
827.253914E-3
827.217865E-3
827.327156E-3
827.297974E-3
827.246475E-3
827.149200E-3
827.158928E-3
827.116585E-3
826.942635E-3
826.856232E-3
826.821327E-3
826.683998E-3
826.599884E-3
826.399612E-3
826.230812E-3
826.389885E-3
825.856590E-3
825.674629E-3
825.520706E-3
825.522995E-3
825.338745E-3
825.381088E-3
825.275803E-3
825.350189E-3
825.712967E-3
826.412201E-3
827.494812E-3
828.769684E-3
830.184746E-3
831.721115E-3
833.004570E-3
833.982468E-3
834.634209E-3
835.054779E-3
834.885406E-3
834.523201E-3
833.944702E-3
833.474350E-3
832.784843E-3
832.326508E-3
831.855011E-3
831.425858E-3
831.182098E-3
830.905151E-3
830.895996E-3
830.898285E-3
830.763817E-3
830.768967E-3
830.695152E-3
830.525780E-3
830.177879E-3
829.722404E-3
829.466057E-3
829.129028E-3
829.014015E-3
828.958511E-3
828.994560E-3
829.279518E-3
829.607391E-3
829.737282E-3
829.858589E-3
829.924393E-3
830.102348E-3
829.951286E-3
829.792213E-3
829.709816E-3
829.420853E-3
829.281235E-3
828.958511E-3
828.736496E-3
828.414917E-3
828.106499E-3
827.905655E-3
827.699661E-3
827.455330E-3
827.246475E-3
826.833344E-3
826.819038E-3
826.690292E-3
826.690865E-3
826.559258E-3
826.442528E-3
826.370430E-3
826.309776E-3
826.302910E-3
826.097488E-3
826.019669E-3
826.127243E-3
826.077461E-3
826.076317E-3
826.064873E-3
826.006508E-3
826.058578E-3
825.844002E-3
825.617409E-3
825.628281E-3
825.584221E-3
825.601387E-3
825.595093E-3
825.581360E-3
825.510979E-3
825.522995E-3
825.409126E-3
825.387383E-3
825.238037E-3
825.236320E-3
825.064087E-3
824.980545E-3
824.835205E-3
824.648094E-3
824.536514E-3
824.383736E-3
824.372292E-3
824.044991E-3
823.770905E-3
823.725700E-3
823.682785E-3
823.812103E-3
823.843575E-3
824.113083E-3
824.825478E-3
826.012230E-3
827.506828E-3
828.889847E-3
830.514336E-3
831.994629E-3
833.125305E-3
834.000778E-3
834.269142E-3
834.325790E-3
834.226799E-3
833.700371E-3
833.215141E-3
832.522774E-3
831.958580E-3
831.545448E-3
831.058502E-3
830.807304E-3
830.623627E-3
830.605888E-3
830.607605E-3
830.635643E-3
830.744934E-3
830.783272E-3
830.874825E-3
830.732346E-3
830.309486E-3
830.084038E-3
829.605103E-3
829.298973E-3
829.062653E-3
828.780556E-3
828.860092E-3
828.797150E-3
829.013443E-3
829.266930E-3
829.413986E-3
829.515839E-3
829.423714E-3
829.414558E-3
829.482079E-3
829.214287E-3
829.150200E-3
828.862381E-3
828.606606E-3
828.543663E-3
828.246117E-3
827.994919E-3
827.735138E-3
827.543449E-3
827.382088E-3
827.119446E-3
827.034187E-3
826.852226E-3
826.725769E-3
826.643372E-3
826.493454E-3
826.417923E-3
826.273727E-3
