Notes :


2023-11-04 ¿ÀÈÄ 7:24:44
Volts
Ch : LED 2,
564.884949E-3
564.691544E-3
564.411163E-3
564.190292E-3
563.568306E-3
563.214111E-3
562.816429E-3
562.403297E-3
562.188721E-3
561.738396E-3
561.726379E-3
561.448860E-3
561.026573E-3
560.751343E-3
560.150528E-3
559.657860E-3
559.241867E-3
558.907127E-3
558.514595E-3
557.965851E-3
557.549858E-3
556.943893E-3
556.376266E-3
555.818367E-3
555.077934E-3
554.771233E-3
554.554367E-3
554.362679E-3
554.260254E-3
554.092026E-3
554.211044E-3
554.350090E-3
555.081940E-3
556.907845E-3
559.582901E-3
563.363457E-3
567.428398E-3
571.532822E-3
575.077057E-3
577.277184E-3
578.541183E-3
578.552628E-3
577.652550E-3
576.076126E-3
573.987007E-3
572.119904E-3
570.220184E-3
568.417168E-3
567.203522E-3
566.131783E-3
565.747833E-3
565.579605E-3
565.718079E-3
566.086006E-3
566.429901E-3
566.712570E-3
566.519737E-3
565.869713E-3
564.951324E-3
563.652420E-3
562.763214E-3
562.046814E-3
561.540413E-3
561.635971E-3
561.963272E-3
562.660217E-3
563.287926E-3
563.784599E-3
564.360237E-3
564.738464E-3
564.990807E-3
565.023422E-3
564.867783E-3
564.659500E-3
564.312744E-3
564.054108E-3
563.549423E-3
563.144875E-3
562.837601E-3
562.419319E-3
562.085152E-3
561.776733E-3
561.524391E-3
561.339569E-3
561.058044E-3
561.009979E-3
560.818291E-3
560.506439E-3
560.366249E-3
560.107040E-3
559.824944E-3
559.605217E-3
559.317970E-3
559.141731E-3
558.835602E-3
558.560371E-3
558.435631E-3
558.405876E-3
558.425903E-3
558.398437E-3
558.372116E-3
558.338928E-3
558.197021E-3
558.286858E-3
558.165550E-3
558.122063E-3
558.082581E-3
557.956696E-3
558.079147E-3
558.116913E-3
558.309174E-3
558.408737E-3
558.532906E-3
558.831024E-3
558.845901E-3
559.006691E-3
558.960915E-3
558.850479E-3
558.865929E-3
558.326340E-3
558.082581E-3
557.836533E-3
557.446289E-3
557.181358E-3
556.944466E-3
556.686401E-3
556.610870E-3
556.633759E-3
556.943893E-3
557.739830E-3
559.473038E-3
562.116051E-3
565.718651E-3
570.116043E-3
574.368668E-3
578.333473E-3
581.324387E-3
583.107376E-3
583.926201E-3
583.440971E-3
582.251930E-3
580.581665E-3
578.625870E-3
577.019119E-3
575.314522E-3
574.039078E-3
573.224831E-3
572.713852E-3
572.894096E-3
573.164749E-3
573.778152E-3
574.479103E-3
575.174904E-3
575.786591E-3
575.900459E-3
575.589180E-3
574.711990E-3
573.354149E-3
572.107315E-3
570.841026E-3
570.061111E-3
569.601631E-3
569.425964E-3
569.661713E-3
569.861984E-3
570.251656E-3
570.562363E-3
570.803261E-3
570.984650E-3
570.822144E-3
570.576096E-3
570.314598E-3
569.794464E-3
569.333267E-3
568.710136E-3
568.108177E-3
567.618370E-3
567.097664E-3
566.582108E-3
565.942955E-3
565.320396E-3
564.843178E-3
564.185715E-3
563.758278E-3
563.250732E-3
562.882805E-3
562.442207E-3
562.064552E-3
561.680603E-3
561.380768E-3
560.965347E-3
560.659790E-3
560.294151E-3
560.027504E-3
559.736252E-3
559.292221E-3
559.169769E-3
558.751488E-3
558.493423E-3
558.004761E-3
557.658577E-3
557.435417E-3
557.045174E-3
556.783104E-3
556.372261E-3
555.876160E-3
555.643845E-3
555.135155E-3
554.681969E-3
554.176712E-3
553.919220E-3
553.759575E-3
553.548431E-3
553.475189E-3
553.229713E-3
553.069496E-3
552.906418E-3
552.557373E-3
552.438354E-3
552.059555E-3
551.736832E-3
551.404381E-3
551.128006E-3
550.967216E-3
550.999260E-3
551.142883E-3
551.445580E-3
551.692772E-3
552.188873E-3
552.861786E-3
554.493141E-3
557.235146E-3
560.718155E-3
565.060043E-3
569.439125E-3
573.687744E-3
577.088356E-3
579.041290E-3
579.945946E-3
579.586601E-3
578.442192E-3
576.786232E-3
574.734306E-3
572.854042E-3
570.930862E-3
569.316673E-3
568.114471E-3
567.331696E-3
566.917992E-3
566.808701E-3
566.958046E-3
567.501640E-3
567.918205E-3
568.413734E-3
568.533897E-3
568.032646E-3
567.171478E-3
565.696907E-3
564.406013E-3
563.150024E-3
562.359810E-3
562.122917E-3
562.079430E-3
562.354660E-3
562.791824E-3
563.273048E-3
563.598633E-3
563.671875E-3
563.774300E-3
563.639259E-3
563.281631E-3
563.030434E-3
562.525749E-3
562.106323E-3
561.675453E-3
561.114120E-3
560.576820E-3
559.996605E-3
559.573746E-3
559.246445E-3
558.764076E-3
558.458519E-3
558.057404E-3
557.649994E-3
557.383347E-3
556.926155E-3
556.773949E-3
556.480980E-3
556.337357E-3
556.173706E-3
555.982590E-3
555.846405E-3
555.609512E-3
555.583763E-3
555.452728E-3
555.322838E-3
555.290222E-3
555.163193E-3
555.075073E-3
555.108261E-3
554.992676E-3
554.887962E-3
554.712296E-3
554.737473E-3
554.609299E-3
554.679108E-3
554.727745E-3
554.768372E-3
554.829025E-3
554.878807E-3
554.846764E-3
554.837608E-3
554.758072E-3
554.730034E-3
554.629898E-3
554.376984E-3
554.277420E-3
553.775597E-3
553.539276E-3
553.326416E-3
553.211975E-3
553.295517E-3
553.431129E-3
553.573036E-3
553.822517E-3
554.330635E-3
555.550003E-3
557.661438E-3
560.775948E-3
564.692688E-3
568.859482E-3
572.986221E-3
576.543617E-3
579.104233E-3
580.499840E-3
580.740738E-3
579.990578E-3
578.475380E-3
576.676941E-3
574.777794E-3
572.985649E-3
571.528244E-3
570.342064E-3
569.579315E-3
569.302940E-3
569.221687E-3
569.490051E-3
569.925499E-3
570.451927E-3
570.841599E-3
570.897102E-3
570.605850E-3
569.792747E-3
568.912125E-3
568.004608E-3
567.495346E-3
567.217255E-3
567.243004E-3
567.819786E-3
568.442917E-3
569.047737E-3
569.659996E-3
570.054817E-3
570.296288E-3
570.325470E-3
570.217323E-3
569.914627E-3
569.484901E-3
569.063187E-3
568.577385E-3
568.244362E-3
567.747688E-3
567.326546E-3
567.094803E-3
566.736603E-3
566.357803E-3
566.230202E-3
566.038513E-3
565.892029E-3
565.701485E-3
565.529823E-3
565.510941E-3
565.332985E-3
565.299225E-3
565.176201E-3
565.127563E-3
565.092659E-3
565.067482E-3
564.941025E-3
564.711571E-3
564.681244E-3
564.622307E-3
564.489555E-3
564.398575E-3
564.309883E-3
564.317322E-3
564.261246E-3
564.016342E-3
563.996887E-3
563.912773E-3
563.733101E-3
563.652992E-3
563.555145E-3
563.473320E-3
563.474464E-3
563.405228E-3
563.510513E-3
563.452721E-3
563.358879E-3
563.363457E-3
563.267899E-3
563.197517E-3
562.901688E-3
562.704277E-3
562.458801E-3
562.226486E-3
562.033081E-3
561.789894E-3
561.764717E-3
561.910057E-3
561.963844E-3
562.195015E-3
562.660217E-3
563.778305E-3
566.054535E-3
569.268608E-3
573.481178E-3
577.979279E-3
582.572937E-3
586.644173E-3
589.605331E-3
591.275024E-3
591.724777E-3
591.084480E-3
589.652824E-3
587.775993E-3
585.671997E-3
583.699608E-3
581.977272E-3
580.617714E-3
579.666710E-3
579.167175E-3
579.010963E-3
579.275322E-3
579.753113E-3
580.338478E-3
580.920982E-3
581.434822E-3
581.504631E-3
581.229401E-3
580.438042E-3
579.319382E-3
577.999878E-3
576.819992E-3
575.938225E-3
575.536537E-3
575.421524E-3
575.588608E-3
576.053238E-3
576.406288E-3
576.822281E-3
577.242851E-3
577.485466E-3
577.449989E-3
577.574730E-3
577.458572E-3
577.316093E-3
576.961899E-3
576.615143E-3
576.206589E-3
575.832367E-3
575.438118E-3
575.060463E-3
574.808693E-3
574.356079E-3
573.946381E-3
573.734665E-3
573.488045E-3
573.159599E-3
572.938728E-3
572.744179E-3
572.532463E-3
572.301865E-3
572.014046E-3
571.674156E-3
571.369743E-3
571.132278E-3
570.768929E-3
570.532036E-3
570.342064E-3
570.059395E-3
569.886589E-3
569.594193E-3
569.282341E-3
569.028854E-3
568.581963E-3
568.265533E-3
567.847252E-3
567.499924E-3
567.110252E-3
566.631889E-3
566.572952E-3
566.246223E-3
565.913773E-3
565.742111E-3
565.529251E-3
565.315247E-3
565.035439E-3
564.847183E-3
564.672661E-3
564.389420E-3
564.030647E-3
563.794899E-3
563.491058E-3
563.238716E-3
562.946320E-3
562.584114E-3
562.241936E-3
561.985016E-3
562.023926E-3
561.879730E-3
561.839104E-3
561.880875E-3
562.506866E-3
564.123917E-3
566.713142E-3
570.263672E-3
574.369812E-3
578.901100E-3
583.203506E-3
586.542892E-3
588.739014E-3
589.541245E-3
589.211655E-3
588.042641E-3
586.143494E-3
584.064102E-3
581.840515E-3
579.909325E-3
578.276253E-3
576.998520E-3
576.295853E-3
576.042366E-3
576.044655E-3
576.194000E-3
576.593971E-3
577.124405E-3
577.569008E-3
577.772713E-3
577.617073E-3
576.893806E-3
575.665855E-3
574.198723E-3
573.142433E-3
572.288132E-3
571.784019E-3
571.555710E-3
571.758842E-3
572.001457E-3
572.489548E-3
572.809410E-3
573.171616E-3
573.225975E-3
573.157883E-3
573.066330E-3
572.746468E-3
572.400284E-3
571.846390E-3
571.386337E-3
570.882225E-3
570.245361E-3
569.793892E-3
569.410515E-3
568.970490E-3
568.643188E-3
568.346214E-3
568.066978E-3
567.802620E-3
567.577744E-3
567.407227E-3
567.115402E-3
566.828156E-3
566.664505E-3
566.469955E-3
566.318321E-3
566.075706E-3
565.912056E-3
565.882874E-3
565.758133E-3
565.643692E-3
565.489197E-3
565.328979E-3
565.127563E-3
565.006256E-3
564.884949E-3
564.530754E-3
564.491844E-3
564.395142E-3
564.203453E-3
564.114761E-3
564.028931E-3
563.948250E-3
563.853836E-3
563.733673E-3
563.552284E-3
563.469315E-3
563.305664E-3
563.112831E-3
562.858200E-3
562.521172E-3
562.214470E-3
562.051964E-3
561.734390E-3
561.625099E-3
561.713791E-3
561.789322E-3
561.783600E-3
561.861992E-3
562.084007E-3
562.714005E-3
563.969994E-3
566.305733E-3
569.668007E-3
573.624802E-3
577.857399E-3
581.902313E-3
585.292053E-3
587.611771E-3
588.699532E-3
588.731575E-3
587.630653E-3
585.980988E-3
583.957100E-3
581.747246E-3
579.825211E-3
578.151512E-3
576.766205E-3
575.882721E-3
575.572586E-3
575.418091E-3
575.526237E-3
575.931358E-3
576.263237E-3
576.436043E-3
576.309013E-3
575.577736E-3
574.528313E-3
573.465729E-3
572.684097E-3
572.182846E-3
572.014618E-3
572.224617E-3
572.771072E-3
573.391342E-3
574.084282E-3
574.551201E-3
575.012970E-3
575.189209E-3
575.126839E-3
574.930000E-3
574.481392E-3
574.063683E-3
573.522377E-3
572.899246E-3
572.419167E-3
571.961403E-3
571.634102E-3
571.276474E-3
570.893097E-3
570.515442E-3
570.279121E-3
570.088005E-3
570.035362E-3
569.833374E-3
569.766426E-3
569.710350E-3
569.750404E-3
569.748688E-3
569.610214E-3
569.595909E-3
569.395638E-3
569.286346E-3
569.156456E-3
568.984795E-3
568.967628E-3
568.866348E-3
568.710709E-3
568.675232E-3
568.559647E-3
568.466377E-3
568.572807E-3
568.441200E-3
568.244362E-3
568.135071E-3
568.081856E-3
567.937088E-3
567.856979E-3
567.742538E-3
567.578316E-3
567.445564E-3
567.493057E-3
567.382050E-3
567.213821E-3
566.987228E-3
566.768074E-3
566.397285E-3
566.197586E-3
565.895462E-3
565.402222E-3
565.276909E-3
565.231705E-3
565.368462E-3
565.535545E-3
565.823936E-3
566.874504E-3
568.864632E-3
572.002602E-3
576.000023E-3
580.543900E-3
585.278320E-3
589.394760E-3
592.603111E-3
594.602966E-3
595.249557E-3
594.909096E-3
593.535233E-3
591.689873E-3
589.689445E-3
587.654114E-3
585.995293E-3
584.487534E-3
583.447266E-3
582.741737E-3
582.572937E-3
582.777214E-3
583.062744E-3
583.597755E-3
584.185982E-3
584.777069E-3
584.979630E-3
584.821129E-3
584.096146E-3
582.883644E-3
581.650543E-3
580.478096E-3
579.621506E-3
578.984070E-3
578.879929E-3
579.029846E-3
579.377747E-3
579.648972E-3
580.132484E-3
580.467224E-3
580.653191E-3
580.772781E-3
580.681229E-3
580.461502E-3
580.122185E-3
579.671288E-3
579.303932E-3
578.879356E-3
578.376389E-3
577.931786E-3
577.585602E-3
577.249146E-3
576.941299E-3
576.607132E-3
576.348495E-3
576.141357E-3
575.894165E-3
575.608635E-3
575.434113E-3
575.297356E-3
575.027275E-3
574.832153E-3
574.736595E-3
574.647903E-3
574.512291E-3
574.322891E-3
574.278831E-3
574.156952E-3
573.954964E-3
573.805046E-3
573.666000E-3
573.459435E-3
573.177910E-3
572.933578E-3
572.676659E-3
572.547340E-3
572.373390E-3
572.140503E-3
571.977425E-3
571.836090E-3
571.519089E-3
571.208382E-3
570.998383E-3
570.652771E-3
570.306015E-3
569.986153E-3
569.706345E-3
569.180489E-3
568.847466E-3
568.424034E-3
568.103600E-3
567.779160E-3
567.531967E-3
567.433548E-3
567.577171E-3
567.629242E-3
567.950821E-3
568.789101E-3
570.761490E-3
573.854828E-3
577.504921E-3
581.937790E-3
586.246490E-3
590.131760E-3
593.131828E-3
594.632149E-3
594.928551E-3
594.318008E-3
592.747879E-3
590.873337E-3
588.804817E-3
586.802673E-3
584.972191E-3
583.520508E-3
582.478523E-3
581.795883E-3
581.622505E-3
581.591606E-3
581.913185E-3
582.344055E-3
582.711411E-3
582.992363E-3
582.822990E-3
582.279396E-3
581.231117E-3
579.895592E-3
578.555489E-3
577.423096E-3
576.741600E-3
576.420021E-3
576.293564E-3
576.470947E-3
576.824570E-3
577.138710E-3
577.392197E-3
577.485466E-3
577.618217E-3
577.419662E-3
577.054596E-3
576.643181E-3
576.206589E-3
575.664139E-3
575.052452E-3
574.447060E-3
573.933220E-3
573.361015E-3
573.003387E-3
572.583389E-3
572.213745E-3
571.905899E-3
571.590614E-3
571.282768E-3
570.993805E-3
570.807838E-3
570.624733E-3
570.317459E-3
570.149803E-3
569.935226E-3
569.710922E-3
569.614792E-3
569.519234E-3
569.451141E-3
569.274902E-3
569.211960E-3
569.028282E-3
568.849754E-3
568.821144E-3
568.717003E-3
568.573952E-3
568.515015E-3
568.377113E-3
568.386841E-3
568.218040E-3
568.016052E-3
567.843246E-3
567.647552E-3
567.436981E-3
567.168617E-3
566.821289E-3
566.467667E-3
565.996742E-3
565.589905E-3
565.237427E-3
564.769363E-3
564.503288E-3
564.241219E-3
564.267540E-3
564.170265E-3
564.203453E-3
564.400864E-3
564.904976E-3
566.245079E-3
568.615150E-3
571.936798E-3
576.053238E-3
580.200577E-3
584.195709E-3
587.428093E-3
589.599037E-3
590.531158E-3
590.381241E-3
589.315796E-3
587.745667E-3
585.739517E-3
583.878136E-3
582.068825E-3
580.626869E-3
579.566002E-3
578.862190E-3
578.556633E-3
578.359795E-3
578.612709E-3
578.899956E-3
579.189491E-3
579.355431E-3
579.144287E-3
578.503990E-3
577.351570E-3
576.340485E-3
575.693893E-3
575.126266E-3
574.949455E-3
575.079918E-3
575.652122E-3
576.288414E-3
576.710701E-3
577.166748E-3
577.462006E-3
577.564430E-3
577.408218E-3
577.043152E-3
576.712990E-3
576.318169E-3
575.673866E-3
575.135422E-3
574.578667E-3
574.124336E-3
573.760414E-3
573.402214E-3
573.088646E-3
572.884369E-3
572.739601E-3
572.591400E-3
572.486687E-3
572.333908E-3
572.237206E-3
572.150803E-3
572.048378E-3
571.924210E-3
571.826363E-3
571.655846E-3
571.572876E-3
571.384048E-3
571.380043E-3
571.319389E-3
571.164322E-3
571.172905E-3
571.190071E-3
571.088219E-3
571.091080E-3
571.008682E-3
570.976639E-3
570.911980E-3
570.844460E-3
570.881081E-3
570.787811E-3
570.803833E-3
570.550346E-3
570.434189E-3
570.308304E-3
570.081711E-3
569.706917E-3
569.452286E-3
569.040871E-3
568.589973E-3
568.421173E-3
568.288994E-3
568.292999E-3
568.399429E-3
568.655205E-3
569.085503E-3
570.108604E-3
572.091293E-3
575.190353E-3
579.177475E-3
583.563995E-3
588.151932E-3
592.197418E-3
595.295334E-3
597.259140E-3
597.821045E-3
597.290611E-3
596.077538E-3
594.312859E-3
592.374802E-3
590.501404E-3
588.869476E-3
587.524796E-3
586.416435E-3
586.075974E-3
586.005592E-3
586.141205E-3
586.649323E-3
587.108803E-3
587.678719E-3
587.954521E-3
587.988853E-3
587.379456E-3
586.285973E-3
584.874344E-3
583.538818E-3
