Notes :


2023-11-04 ¿ÀÀü 12:45:56
Volts
Ch : LED 2,
831.183815E-3
831.258774E-3
827.788353E-3
830.006218E-3
829.215431E-3
829.129028E-3
829.439163E-3
828.095627E-3
828.876114E-3
827.610970E-3
827.558327E-3
827.764320E-3
826.864243E-3
828.327370E-3
828.713608E-3
830.703735E-3
833.890343E-3
836.341095E-3
841.021729E-3
843.624115E-3
846.292877E-3
847.152901E-3
848.065567E-3
849.569893E-3
848.451233E-3
847.455025E-3
847.012711E-3
844.976234E-3
845.047188E-3
843.810654E-3
842.769814E-3
842.712593E-3
841.627121E-3
842.767525E-3
842.247391E-3
842.679405E-3
843.522835E-3
842.784119E-3
843.973732E-3
843.461037E-3
842.815590E-3
842.495155E-3
840.704727E-3
840.958214E-3
839.842415E-3
839.302826E-3
839.702797E-3
838.883972E-3
840.163422E-3
840.054131E-3
840.254974E-3
841.119003E-3
839.258766E-3
841.207695E-3
841.047478E-3
840.470123E-3
840.527344E-3
838.942337E-3
839.511681E-3
838.383293E-3
837.755013E-3
837.266350E-3
835.768318E-3
836.437798E-3
835.418129E-3
835.140038E-3
835.281944E-3
834.497452E-3
835.406113E-3
834.768677E-3
834.457970E-3
834.430504E-3
833.402824E-3
834.568977E-3
834.139252E-3
833.619118E-3
834.020805E-3
832.862663E-3
834.106636E-3
833.381081E-3
833.018875E-3
833.575630E-3
832.591438E-3
833.908081E-3
833.422852E-3
833.052635E-3
833.192825E-3
832.039833E-3
833.152199E-3
832.365990E-3
831.804085E-3
831.733131E-3
830.589867E-3
831.772614E-3
830.824471E-3
830.156136E-3
830.536652E-3
829.571342E-3
830.601311E-3
830.054283E-3
829.408836E-3
829.185677E-3
828.501892E-3
829.573059E-3
828.560257E-3
827.245331E-3
827.932549E-3
827.122879E-3
828.329086E-3
827.537155E-3
826.956367E-3
827.303696E-3
826.551819E-3
827.349472E-3
826.980972E-3
826.522636E-3
827.490234E-3
828.056145E-3
831.512833E-3
834.336090E-3
837.547874E-3
841.754723E-3
844.256973E-3
848.054123E-3
849.471474E-3
849.909210E-3
850.554657E-3
849.415970E-3
849.494362E-3
847.928238E-3
846.479988E-3
845.902634E-3
844.267845E-3
844.740486E-3
844.198608E-3
843.691635E-3
844.578552E-3
844.144249E-3
845.559311E-3
845.590782E-3
844.848633E-3
845.980453E-3
845.337868E-3
845.770454E-3
845.012283E-3
843.282509E-3
843.125153E-3
841.617393E-3
841.940689E-3
841.503525E-3
840.641785E-3
841.781616E-3
841.141891E-3
842.528343E-3
842.253685E-3
841.734123E-3
842.496300E-3
841.552734E-3
841.914940E-3
841.390800E-3
840.207481E-3
840.493584E-3
839.136314E-3
839.271927E-3
838.819885E-3
837.649155E-3
838.204765E-3
837.154198E-3
837.755013E-3
837.425995E-3
836.281013E-3
836.897850E-3
835.961723E-3
836.350250E-3
835.869598E-3
834.994125E-3
835.687637E-3
834.903145E-3
835.513687E-3
835.621834E-3
834.821892E-3
836.188889E-3
835.149765E-3
835.373497E-3
835.490799E-3
834.499741E-3
835.840988E-3
834.513474E-3
834.677696E-3
834.495735E-3
833.583069E-3
834.877968E-3
833.658028E-3
833.883476E-3
833.846283E-3
833.304977E-3
834.408188E-3
833.032036E-3
833.151627E-3
832.929039E-3
831.841278E-3
832.958794E-3
831.604958E-3
831.733704E-3
831.528854E-3
831.038475E-3
832.639503E-3
831.196404E-3
831.529427E-3
831.432724E-3
830.712318E-3
832.083321E-3
830.632782E-3
830.655098E-3
830.637360E-3
829.931831E-3
830.921745E-3
829.341888E-3
829.472351E-3
829.621696E-3
828.886986E-3
830.640221E-3
829.801941E-3
831.754303E-3
834.749794E-3
837.134171E-3
841.895485E-3
844.030952E-3
847.576904E-3
850.075150E-3
850.666237E-3
852.413177E-3
850.944901E-3
850.441360E-3
849.844551E-3
847.813225E-3
847.971153E-3
845.467758E-3
844.954491E-3
844.631767E-3
843.791199E-3
845.133018E-3
843.889046E-3
844.216347E-3
844.692993E-3
844.517899E-3
845.926666E-3
844.630623E-3
844.806862E-3
844.278145E-3
842.866516E-3
843.021584E-3
841.163063E-3
840.944481E-3
841.386795E-3
840.888977E-3
842.455101E-3
841.808510E-3
842.483139E-3
843.200111E-3
842.843628E-3
843.859291E-3
842.363548E-3
842.337227E-3
841.950417E-3
840.991974E-3
841.695786E-3
839.824677E-3
839.206123E-3
839.072800E-3
837.898064E-3
838.680267E-3
836.959648E-3
836.785698E-3
836.723900E-3
835.736847E-3
836.821747E-3
835.514259E-3
835.334587E-3
835.421562E-3
832.879829E-3
834.967232E-3
834.134102E-3
834.225655E-3
834.600449E-3
833.850861E-3
835.043907E-3
833.889198E-3
833.781624E-3
834.093475E-3
833.033180E-3
834.221649E-3
833.274078E-3
833.044624E-3
833.378220E-3
832.329369E-3
833.603096E-3
832.693863E-3
832.542229E-3
832.821465E-3
831.574631E-3
832.678413E-3
831.747437E-3
831.466484E-3
831.802940E-3
830.751228E-3
831.861877E-3
830.813599E-3
830.623627E-3
830.843353E-3
829.906082E-3
830.846786E-3
829.902077E-3
829.648590E-3
830.048561E-3
828.816605E-3
829.478073E-3
828.568840E-3
828.170013E-3
828.668976E-3
825.574493E-3
827.802086E-3
828.029823E-3
829.332161E-3
831.980324E-3
834.357834E-3
839.019012E-3
842.024803E-3
845.075226E-3
847.905350E-3
848.646927E-3
850.608444E-3
850.219917E-3
849.335861E-3
848.713303E-3
846.731758E-3
846.623039E-3
845.215416E-3
843.961143E-3
843.545723E-3
842.190170E-3
843.242455E-3
842.860222E-3
842.598152E-3
843.434143E-3
842.713737E-3
843.916512E-3
843.433571E-3
843.166351E-3
843.483353E-3
841.907501E-3
842.250252E-3
840.896988E-3
840.227509E-3
840.266418E-3
839.343452E-3
840.630913E-3
840.315628E-3
840.408325E-3
840.512466E-3
840.088463E-3
841.587639E-3
841.203690E-3
840.841484E-3
840.949631E-3
839.492226E-3
840.496445E-3
839.078522E-3
838.199615E-3
837.552452E-3
836.187744E-3
836.906433E-3
835.807800E-3
834.962082E-3
835.011864E-3
833.866310E-3
835.064507E-3
834.383011E-3
833.552170E-3
834.064865E-3
833.533287E-3
834.703445E-3
834.175873E-3
833.264351E-3
833.853149E-3
832.795143E-3
834.149551E-3
833.584213E-3
833.042336E-3
833.452034E-3
832.713318E-3
833.987045E-3
833.323288E-3
832.820320E-3
833.475494E-3
832.616043E-3
833.953285E-3
833.308411E-3
832.405472E-3
832.837486E-3
832.052994E-3
832.755089E-3
832.027245E-3
830.665970E-3
830.878830E-3
830.640793E-3
831.536293E-3
831.022453E-3
830.435944E-3
830.826187E-3
829.906654E-3
831.095695E-3
830.451965E-3
829.399109E-3
829.874039E-3
828.932762E-3
829.868889E-3
829.189682E-3
828.591728E-3
828.619766E-3
828.152847E-3
829.159927E-3
828.441238E-3
827.862167E-3
828.533936E-3
828.255272E-3
830.821037E-3
832.912445E-3
835.656738E-3
840.065002E-3
842.775536E-3
847.277069E-3
849.151611E-3
850.656509E-3
852.013206E-3
851.169777E-3
851.534843E-3
850.187302E-3
848.435211E-3
846.796989E-3
845.399094E-3
845.701218E-3
844.834900E-3
843.832970E-3
844.602013E-3
843.959999E-3
845.040321E-3
845.073509E-3
844.699860E-3
845.782471E-3
845.166779E-3
845.966721E-3
845.391083E-3
843.879890E-3
842.881393E-3
841.863441E-3
842.058563E-3
841.641426E-3
840.876961E-3
841.591644E-3
840.971375E-3
842.041969E-3
842.194176E-3
841.687775E-3
842.773819E-3
842.037964E-3
842.671394E-3
842.296600E-3
841.177940E-3
841.633415E-3
840.234947E-3
840.239525E-3
839.472198E-3
838.488579E-3
839.153481E-3
837.676048E-3
838.137245E-3
837.646866E-3
836.732483E-3
837.642860E-3
836.349678E-3
836.628914E-3
836.627769E-3
835.735703E-3
837.062073E-3
835.737419E-3
836.061287E-3
835.667610E-3
834.365273E-3
836.087036E-3
834.970665E-3
835.312271E-3
835.494804E-3
834.610748E-3
835.921097E-3
834.846497E-3
834.990120E-3
834.837914E-3
834.136391E-3
835.485649E-3
834.000206E-3
834.270859E-3
834.081459E-3
833.189964E-3
834.740067E-3
833.218575E-3
833.320427E-3
833.192253E-3
832.545090E-3
833.735275E-3
832.522202E-3
832.842064E-3
833.058357E-3
831.787491E-3
833.251190E-3
831.894493E-3
832.281876E-3
832.161140E-3
831.086540E-3
832.280731E-3
830.721474E-3
830.877113E-3
831.265068E-3
830.469131E-3
831.663895E-3
830.220222E-3
830.354691E-3
830.572701E-3
830.248260E-3
832.612610E-3
833.638573E-3
837.024879E-3
840.758514E-3
843.728256E-3
848.135376E-3
849.415970E-3
851.573753E-3
852.444649E-3
851.982880E-3
852.570534E-3
850.159836E-3
849.052048E-3
848.016357E-3
846.360970E-3
846.772385E-3
844.933319E-3
844.628334E-3
844.662094E-3
842.169571E-3
844.777679E-3
844.224358E-3
845.157051E-3
845.896912E-3
845.193672E-3
846.160698E-3
844.610596E-3
843.755150E-3
843.400383E-3
842.082024E-3
842.760086E-3
841.384506E-3
841.944122E-3
842.781258E-3
842.677689E-3
844.418335E-3
843.819809E-3
843.958282E-3
844.412613E-3
843.531990E-3
844.672966E-3
843.198967E-3
842.792702E-3
842.305756E-3
841.020012E-3
841.676331E-3
840.335083E-3
839.793205E-3
839.688492E-3
838.453102E-3
839.544296E-3
838.122368E-3
837.873459E-3
837.791061E-3
836.838341E-3
837.803650E-3
836.584282E-3
836.542511E-3
836.863518E-3
835.675621E-3
836.648369E-3
835.522842E-3
835.490227E-3
836.001778E-3
833.422852E-3
835.721970E-3
835.411835E-3
835.350609E-3
835.725403E-3
834.807587E-3
835.713959E-3
834.888840E-3
834.540367E-3
834.843636E-3
833.747292E-3
834.524345E-3
833.698082E-3
833.474922E-3
833.575630E-3
832.698441E-3
833.497810E-3
832.970810E-3
832.661247E-3
832.862663E-3
831.832123E-3
832.511902E-3
831.569481E-3
831.345177E-3
831.548882E-3
830.168724E-3
831.071091E-3
830.252266E-3
829.788780E-3
830.029106E-3
828.801155E-3
829.559326E-3
828.820610E-3
828.864670E-3
829.922104E-3
830.350685E-3
834.064293E-3
836.833191E-3
840.482712E-3
844.423485E-3
846.465683E-3
849.718094E-3
850.839615E-3
851.029015E-3
851.364326E-3
849.805641E-3
849.654007E-3
848.044395E-3
846.327782E-3
845.781898E-3
843.910789E-3
844.325638E-3
843.329430E-3
842.841339E-3
843.200684E-3
841.020012E-3
843.531418E-3
843.818665E-3
843.795776E-3
844.333076E-3
843.073082E-3
843.671608E-3
842.452240E-3
841.544151E-3
841.247177E-3
839.801216E-3
840.634918E-3
840.436363E-3
840.208054E-3
840.408325E-3
840.012932E-3
841.972733E-3
841.858864E-3
841.470337E-3
841.843414E-3
840.674400E-3
841.468620E-3
840.397453E-3
839.469337E-3
839.218712E-3
837.657738E-3
838.286591E-3
837.188530E-3
836.016655E-3
836.140251E-3
834.845352E-3
835.717392E-3
834.938049E-3
834.084892E-3
834.067154E-3
833.415985E-3
834.628487E-3
834.077454E-3
833.468056E-3
834.119225E-3
833.224869E-3
834.175301E-3
833.460617E-3
832.954788E-3
833.111000E-3
832.353973E-3
833.626556E-3
833.084106E-3
832.567978E-3
832.796288E-3
832.434082E-3
833.469772E-3
833.070946E-3
831.466484E-3
832.247543E-3
831.695938E-3
832.757378E-3
832.065582E-3
831.159782E-3
831.451607E-3
830.640793E-3
831.547165E-3
830.954361E-3
830.267143E-3
830.740929E-3
829.874039E-3
830.555534E-3
830.299759E-3
829.446602E-3
829.734421E-3
828.767395E-3
829.577637E-3
829.088402E-3
828.300476E-3
828.628922E-3
827.590370E-3
828.428078E-3
828.032112E-3
827.889633E-3
829.491806E-3
830.695724E-3
834.857368E-3
837.932396E-3
841.145325E-3
844.624329E-3
846.976089E-3
849.846268E-3
850.737190E-3
850.425911E-3
850.546074E-3
848.867226E-3
848.756218E-3
847.415543E-3
844.595146E-3
845.217705E-3
843.898773E-3
844.551659E-3
844.127083E-3
843.770599E-3
844.520760E-3
843.980598E-3
845.222855E-3
845.198822E-3
844.903564E-3
845.697784E-3
844.745636E-3
845.145035E-3
843.946838E-3
842.500305E-3
842.534637E-3
841.238022E-3
841.727829E-3
841.412544E-3
840.800858E-3
841.869736E-3
841.334152E-3
842.451096E-3
842.306328E-3
841.672897E-3
842.400169E-3
841.541290E-3
841.887474E-3
841.334152E-3
840.252113E-3
840.617752E-3
839.356041E-3
839.482498E-3
839.140320E-3
837.805939E-3
838.841629E-3
837.300110E-3
837.491226E-3
837.132454E-3
836.132240E-3
837.361336E-3
836.097908E-3
836.322784E-3
836.427498E-3
834.982109E-3
837.012863E-3
835.859871E-3
836.163712E-3
836.038399E-3
835.129166E-3
836.579704E-3
835.264778E-3
835.620689E-3
835.348892E-3
834.793854E-3
836.257553E-3
834.868813E-3
835.050201E-3
835.209846E-3
834.557533E-3
835.729980E-3
834.190750E-3
834.512901E-3
833.979607E-3
833.195114E-3
834.495163E-3
833.406258E-3
833.834267E-3
833.731842E-3
833.026314E-3
834.350395E-3
832.838631E-3
832.929611E-3
832.749367E-3
831.792641E-3
833.054352E-3
831.543159E-3
831.674194E-3
832.038116E-3
831.119728E-3
832.211494E-3
830.764961E-3
831.099701E-3
831.305695E-3
830.671120E-3
832.385445E-3
832.564545E-3
835.479355E-3
839.199257E-3
841.867447E-3
846.524048E-3
848.301888E-3
850.891685E-3
852.380562E-3
852.127075E-3
853.049469E-3
850.989532E-3
850.021935E-3
848.991394E-3
847.282791E-3
847.585487E-3
845.401382E-3
844.956779E-3
845.058060E-3
844.403458E-3
845.615387E-3
845.025444E-3
845.665169E-3
846.025658E-3
845.668030E-3
846.875954E-3
845.223427E-3
844.878387E-3
844.333076E-3
840.844917E-3
842.861938E-3
842.017365E-3
842.504311E-3
843.202972E-3
842.679977E-3
844.583702E-3
844.068718E-3
844.632339E-3
844.906998E-3
844.293594E-3
845.301819E-3
843.606949E-3
843.073082E-3
842.901421E-3
841.851425E-3
842.395592E-3
840.822601E-3
840.326500E-3
839.868164E-3
839.044189E-3
840.398026E-3
838.963509E-3
838.964653E-3
838.931465E-3
838.072014E-3
839.198112E-3
837.950134E-3
837.726974E-3
837.856865E-3
836.939621E-3
838.252831E-3
837.024307E-3
837.119865E-3
837.629128E-3
836.780548E-3
837.879753E-3
836.648941E-3
836.394882E-3
836.972809E-3
835.640144E-3
836.568260E-3
835.582352E-3
835.476494E-3
835.763741E-3
834.732628E-3
835.805511E-3
834.897995E-3
834.665680E-3
834.980392E-3
831.739998E-3
834.043121E-3
833.298111E-3
833.084106E-3
833.054352E-3
832.098770E-3
832.977104E-3
832.080460E-3
831.733704E-3
831.742287E-3
830.888557E-3
831.747437E-3
830.855370E-3
830.643082E-3
830.817032E-3
829.698372E-3
830.954361E-3
831.166649E-3
833.022881E-3
836.290169E-3
838.679695E-3
843.229294E-3
846.191025E-3
848.736191E-3
851.233864E-3
851.540565E-3
852.817726E-3
851.953697E-3
850.858498E-3
850.221634E-3
845.431709E-3
847.063637E-3
846.283722E-3
845.625114E-3
845.545578E-3
844.309044E-3
845.423126E-3
845.173073E-3
845.346451E-3
846.046829E-3
845.619392E-3
846.595573E-3
845.874023E-3
845.236588E-3
844.745636E-3
843.041611E-3
843.608665E-3
842.590141E-3
842.075157E-3
842.160988E-3
841.353607E-3
842.979240E-3
842.948341E-3
842.914581E-3
843.525124E-3
842.885399E-3
843.926811E-3
843.121719E-3
842.251396E-3
842.349243E-3
840.743637E-3
841.233444E-3
839.857864E-3
838.929749E-3
838.079453E-3
836.963081E-3
837.969589E-3
837.003136E-3
836.404610E-3
836.559105E-3
835.467339E-3
836.563110E-3
835.796928E-3
835.140038E-3
835.473061E-3
834.246826E-3
835.445023E-3
834.756660E-3
833.889771E-3
834.483719E-3
833.812523E-3
835.148621E-3
834.457397E-3
834.003639E-3
834.544945E-3
833.728409E-3
834.804153E-3
834.231949E-3
833.647728E-3
833.737564E-3
832.604027E-3
833.751297E-3
833.039474E-3
832.170868E-3
832.594299E-3
831.844139E-3
832.975960E-3
832.500458E-3
832.091331E-3
832.257271E-3
831.626129E-3
832.459831E-3
831.966591E-3
831.116867E-3
831.307983E-3
830.500031E-3
831.342888E-3
830.875969E-3
830.258560E-3
830.834198E-3
829.949570E-3
830.830765E-3
830.423355E-3
830.046272E-3
830.778694E-3
830.593300E-3
832.843208E-3
835.067940E-3
