Notes :


2023-11-13 ¿ÀÀü 12:18:45
Volts
Ch : LED 2,
946.622658E-3
946.303940E-3
946.290779E-3
946.128273E-3
945.885658E-3
945.782661E-3
945.689964E-3
945.521736E-3
945.437622E-3
945.433044E-3
945.342636E-3
945.097733E-3
945.011330E-3
944.941521E-3
944.890022E-3
945.602989E-3
945.116615E-3
944.902611E-3
944.747543E-3
944.623375E-3
944.522667E-3
944.385338E-3
944.293785E-3
944.476318E-3
944.077492E-3
943.972206E-3
943.675804E-3
943.260956E-3
943.161392E-3
943.137360E-3
943.077278E-3
942.729950E-3
942.420959E-3
941.930008E-3
942.028427E-3
942.066765E-3
942.444420E-3
942.776299E-3
944.928932E-3
946.022415E-3
948.252869E-3
950.609779E-3
952.855682E-3
954.891014E-3
956.359291E-3
957.366371E-3
957.845306E-3
958.229256E-3
957.500839E-3
956.822777E-3
956.129265E-3
955.285835E-3
954.527664E-3
953.922844E-3
953.388977E-3
953.051949E-3
952.728653E-3
952.685165E-3
952.712631E-3
952.766991E-3
952.792740E-3
952.511215E-3
952.075768E-3
951.569939E-3
950.919914E-3
950.207520E-3
949.759483E-3
949.671364E-3
949.611855E-3
949.729156E-3
950.147438E-3
950.422096E-3
950.649834E-3
950.959396E-3
949.880219E-3
950.630951E-3
950.820923E-3
950.834084E-3
950.780869E-3
950.633240E-3
950.228119E-3
949.841309E-3
949.275398E-3
949.061394E-3
948.654556E-3
948.268318E-3
948.250008E-3
947.696686E-3
948.474884E-3
947.569084E-3
947.226334E-3
947.047234E-3
946.683311E-3
946.566010E-3
946.191216E-3
945.946884E-3
945.661926E-3
944.994736E-3
945.177841E-3
945.059395E-3
945.007896E-3
944.795609E-3
944.539833E-3
944.517517E-3
944.239998E-3
944.089508E-3
944.122696E-3
943.894386E-3
943.848038E-3
943.730736E-3
943.683243E-3
943.613434E-3
943.446922E-3
943.366241E-3
943.239784E-3
943.373680E-3
942.938805E-3
942.636108E-3
942.576599E-3
942.092514E-3
941.756058E-3
941.571808E-3
941.278839E-3
941.183853E-3
940.137863E-3
940.764427E-3
941.109467E-3
941.978073E-3
943.173981E-3
944.988441E-3
947.376251E-3
949.701691E-3
952.183914E-3
954.399490E-3
956.014252E-3
957.101440E-3
957.575226E-3
957.471085E-3
957.205009E-3
956.651688E-3
955.131912E-3
955.084419E-3
954.419518E-3
954.044151E-3
953.557205E-3
953.225899E-3
952.909470E-3
952.839088E-3
952.811050E-3
952.417946E-3
952.765846E-3
952.779579E-3
952.516937E-3
952.190781E-3
951.464653E-3
950.741386E-3
950.181770E-3
949.596405E-3
948.925781E-3
949.000168E-3
949.264526E-3
949.342346E-3
949.594688E-3
949.921417E-3
950.008392E-3
949.996376E-3
949.991226E-3
950.526810E-3
949.942589E-3
949.292564E-3
949.089432E-3
948.860550E-3
948.227119E-3
948.166466E-3
947.885513E-3
947.543335E-3
947.395134E-3
947.095871E-3
946.904755E-3
946.533394E-3
946.319962E-3
946.143723E-3
945.872498E-3
945.683098E-3
945.538902E-3
945.382118E-3
945.449638E-3
945.115471E-3
944.990730E-3
944.772720E-3
944.814491E-3
944.506645E-3
944.165611E-3
944.113541E-3
943.749046E-3
943.700409E-3
943.644905E-3
943.406296E-3
943.363953E-3
943.874359E-3
943.370819E-3
943.112183E-3
942.934799E-3
942.847824E-3
943.006897E-3
942.683601E-3
942.695045E-3
942.524529E-3
942.753410E-3
942.471886E-3
942.131996E-3
941.897392E-3
941.838455E-3
941.452217E-3
941.226768E-3
941.797256E-3
941.034508E-3
940.701485E-3
940.343285E-3
940.153885E-3
940.157318E-3
940.492630E-3
941.442490E-3
942.985725E-3
945.077133E-3
947.735023E-3
950.443268E-3
952.866554E-3
955.108452E-3
957.092857E-3
957.725716E-3
957.605553E-3
957.543755E-3
957.205009E-3
956.550980E-3
955.799103E-3
955.161095E-3
954.358864E-3
954.295349E-3
953.552055E-3
953.201866E-3
953.282547E-3
953.109169E-3
953.033066E-3
953.258514E-3
953.139496E-3
953.261948E-3
953.414726E-3
952.743530E-3
951.884079E-3
951.137352E-3
950.462151E-3
949.931717E-3
949.627304E-3
949.384689E-3
949.567223E-3
950.598907E-3
950.184631E-3
950.123978E-3
950.315094E-3
950.266457E-3
950.440407E-3
950.257301E-3
950.181770E-3
950.005531E-3
950.246429E-3
949.802399E-3
949.202156E-3
948.807907E-3
948.410797E-3
948.211670E-3
948.002243E-3
947.801971E-3
947.499847E-3
947.161102E-3
947.015762E-3
946.695328E-3
946.446419E-3
946.338844E-3
946.015549E-3
945.811844E-3
945.308304E-3
945.296860E-3
945.445633E-3
945.275116E-3
945.067406E-3
945.098305E-3
944.898605E-3
944.787598E-3
944.609070E-3
944.864273E-3
944.591331E-3
944.119263E-3
944.209671E-3
944.102669E-3
944.153023E-3
944.080353E-3
943.931580E-3
943.949318E-3
943.713570E-3
943.547058E-3
943.781090E-3
943.605995E-3
943.520737E-3
943.785667E-3
943.418312E-3
943.160820E-3
942.988014E-3
942.949104E-3
942.618942E-3
942.426682E-3
942.304230E-3
942.144012E-3
941.904831E-3
941.682243E-3
941.465950E-3
941.404152E-3
941.206741E-3
941.247368E-3
941.438484E-3
941.883087E-3
943.232346E-3
945.069122E-3
947.556496E-3
950.217819E-3
952.643394E-3
954.923058E-3
956.446838E-3
957.523155E-3
957.863045E-3
957.879639E-3
957.508278E-3
956.731224E-3
956.465149E-3
955.383682E-3
954.465294E-3
953.891945E-3
953.205299E-3
953.023911E-3
952.804756E-3
952.698326E-3
952.858543E-3
953.300285E-3
953.114319E-3
952.962685E-3
952.543259E-3
952.060318E-3
951.438904E-3
950.759125E-3
950.086212E-3
949.650764E-3
949.792671E-3
949.534035E-3
949.404716E-3
949.651337E-3
949.982643E-3
950.071907E-3
950.169754E-3
950.347137E-3
950.273895E-3
950.390053E-3
950.071907E-3
949.653625E-3
949.497986E-3
949.098015E-3
948.587036E-3
948.347855E-3
947.910118E-3
947.628593E-3
946.982002E-3
947.022057E-3
946.841812E-3
946.594620E-3
946.423531E-3
946.393776E-3
946.172905E-3
946.072197E-3
945.641327E-3
945.572090E-3
945.314598E-3
945.138359E-3
945.161819E-3
944.808197E-3
944.607353E-3
944.444847E-3
944.231987E-3
944.173622E-3
943.964195E-3
943.919563E-3
943.749046E-3
943.616867E-3
943.608284E-3
943.420029E-3
943.292999E-3
942.482758E-3
942.696190E-3
942.919922E-3
942.723083E-3
942.696762E-3
942.585182E-3
942.410088E-3
942.430687E-3
942.071342E-3
941.435623E-3
941.495705E-3
941.358948E-3
941.338348E-3
940.910912E-3
940.736961E-3
940.402794E-3
939.980507E-3
939.925003E-3
939.264107E-3
939.347076E-3
939.390564E-3
939.732742E-3
940.467453E-3
941.849899E-3
944.008827E-3
946.471024E-3
949.052811E-3
951.926994E-3
953.815269E-3
955.341339E-3
956.159592E-3
956.322670E-3
956.272888E-3
955.731010E-3
955.155373E-3
954.345703E-3
953.823280E-3
953.035927E-3
952.332687E-3
951.747894E-3
951.355362E-3
951.216316E-3
951.179123E-3
951.172256E-3
951.256371E-3
951.057816E-3
950.963402E-3
950.965118E-3
950.552559E-3
949.976349E-3
949.280548E-3
948.454285E-3
948.024559E-3
947.614861E-3
947.662354E-3
947.753906E-3
947.897530E-3
948.254585E-3
948.309517E-3
948.501778E-3
948.543549E-3
948.608780E-3
948.556137E-3
948.196793E-3
948.021698E-3
947.843170E-3
947.503281E-3
947.165108E-3
946.627808E-3
946.305656E-3
946.211243E-3
945.619583E-3
945.467377E-3
945.063972E-3
944.737816E-3
944.664001E-3
944.345856E-3
944.304085E-3
944.150162E-3
943.578529E-3
943.630028E-3
943.308449E-3
943.357086E-3
943.045807E-3
943.045235E-3
942.867851E-3
942.628098E-3
942.593765E-3
942.406082E-3
942.188072E-3
942.129135E-3
941.930580E-3
941.980362E-3
941.732597E-3
941.599846E-3
941.570091E-3
941.456223E-3
941.086578E-3
940.968704E-3
940.918922E-3
940.933800E-3
940.763283E-3
940.624237E-3
940.530396E-3
940.546417E-3
940.446854E-3
940.222549E-3
940.108109E-3
940.032578E-3
939.943314E-3
939.736748E-3
939.524460E-3
939.447784E-3
939.190292E-3
939.035797E-3
938.953972E-3
938.689041E-3
938.406372E-3
938.142586E-3
937.921715E-3
937.772942E-3
937.554932E-3
937.830162E-3
938.439560E-3
939.850616E-3
941.892815E-3
944.419670E-3
947.265816E-3
949.808693E-3
952.181625E-3
954.172897E-3
954.830933E-3
955.845451E-3
956.052017E-3
955.729294E-3
955.046654E-3
954.143715E-3
953.380394E-3
952.592468E-3
951.848602E-3
951.629448E-3
950.947380E-3
950.866699E-3
950.581169E-3
950.716782E-3
950.907898E-3
950.810051E-3
950.876427E-3
950.828362E-3
951.085854E-3
950.339127E-3
949.531746E-3
948.821640E-3
948.197937E-3
947.797394E-3
947.578239E-3
947.281837E-3
947.391701E-3
947.482109E-3
947.542191E-3
947.860909E-3
947.945023E-3
947.983360E-3
947.915840E-3
947.828865E-3
947.797394E-3
947.463799E-3
947.376823E-3
946.897316E-3
946.451569E-3
946.378326E-3
945.887947E-3
945.582962E-3
945.293999E-3
945.271683E-3
944.934082E-3
944.473457E-3
944.328117E-3
944.182205E-3
944.079208E-3
943.884659E-3
943.573380E-3
943.514442E-3
942.883301E-3
942.875862E-3
942.928505E-3
942.786026E-3
942.865562E-3
942.578888E-3
942.556572E-3
942.467880E-3
942.270470E-3
941.444778E-3
941.948891E-3
941.988945E-3
942.027283E-3
941.808128E-3
941.857338E-3
941.760063E-3
941.996956E-3
941.642761E-3
941.422462E-3
941.386414E-3
941.215324E-3
941.064835E-3
941.072273E-3
940.901184E-3
940.855980E-3
940.240860E-3
940.283775E-3
940.313530E-3
940.296364E-3
940.276909E-3
940.258598E-3
940.023994E-3
939.855194E-3
939.600563E-3
939.912415E-3
939.402580E-3
939.085007E-3
938.964844E-3
938.600922E-3
938.671303E-3
938.323975E-3
938.097954E-3
938.094521E-3
938.711357E-3
938.878441E-3
939.490128E-3
941.443062E-3
943.898964E-3
946.535110E-3
949.277687E-3
951.510429E-3
953.508568E-3
954.123688E-3
955.030632E-3
955.295563E-3
955.070686E-3
954.363441E-3
953.594971E-3
952.610207E-3
951.977921E-3
951.052094E-3
951.358223E-3
950.395775E-3
949.701691E-3
949.531174E-3
949.447060E-3
949.437332E-3
949.505424E-3
949.920845E-3
949.604416E-3
949.958038E-3
948.957825E-3
948.346138E-3
947.600555E-3
947.260666E-3
947.022057E-3
946.947670E-3
947.163963E-3
947.193146E-3
947.360229E-3
947.421455E-3
947.574234E-3
947.745323E-3
947.606277E-3
947.691536E-3
947.684669E-3
946.878433E-3
946.862411E-3
946.777153E-3
946.461296E-3
946.131706E-3
945.687103E-3
945.503426E-3
945.078850E-3
944.749832E-3
944.451714E-3
944.155312E-3
943.861198E-3
943.639755E-3
943.521309E-3
943.208313E-3
943.052101E-3
942.928505E-3
942.775154E-3
943.170547E-3
942.700195E-3
942.309952E-3
942.196655E-3
941.979218E-3
941.839027E-3
941.616440E-3
941.415024E-3
941.338921E-3
941.781807E-3
941.441917E-3
941.160965E-3
940.838814E-3
940.770149E-3
940.604210E-3
940.579033E-3
940.014839E-3
940.137291E-3
940.128136E-3
939.922142E-3
939.955902E-3
939.829445E-3
939.765930E-3
939.808273E-3
939.502144E-3
939.859772E-3
939.259529E-3
938.911629E-3
938.784027E-3
938.352585E-3
938.181496E-3
938.030434E-3
937.657356E-3
937.402153E-3
937.197304E-3
937.191582E-3
936.979866E-3
936.974716E-3
937.564659E-3
938.721657E-3
940.771294E-3
943.045235E-3
945.556068E-3
947.791100E-3
950.380898E-3
952.175331E-3
953.483963E-3
953.918266E-3
953.986931E-3
953.705406E-3
953.166389E-3
952.273178E-3
951.252937E-3
950.448418E-3
949.603271E-3
949.059105E-3
948.456573E-3
947.995377E-3
947.866631E-3
947.802544E-3
947.955894E-3
948.027420E-3
947.827721E-3
947.933006E-3
947.379684E-3
946.908188E-3
946.303940E-3
945.609856E-3
944.987297E-3
944.868851E-3
944.908333E-3
944.997597E-3
945.075989E-3
945.384407E-3
945.599556E-3
945.696831E-3
945.823288E-3
946.474457E-3
946.207809E-3
945.904541E-3
945.728302E-3
945.442772E-3
945.077133E-3
944.894600E-3
944.484901E-3
944.021416E-3
943.956757E-3
943.318748E-3
943.081856E-3
942.586899E-3
942.311096E-3
942.004967E-3
941.896820E-3
941.706276E-3
941.488838E-3
940.797615E-3
940.932083E-3
940.944672E-3
940.910912E-3
940.772438E-3
940.495491E-3
940.379906E-3
940.229416E-3
940.254021E-3
940.249443E-3
939.997101E-3
939.820862E-3
939.674950E-3
939.641762E-3
939.471245E-3
939.462662E-3
939.374542E-3
939.307022E-3
939.502716E-3
939.192009E-3
938.931656E-3
938.764572E-3
938.661575E-3
938.652992E-3
938.385201E-3
938.364601E-3
938.269615E-3
938.158035E-3
938.016129E-3
937.852478E-3
937.872505E-3
937.822151E-3
937.594986E-3
937.417603E-3
936.996460E-3
936.994171E-3
936.940956E-3
936.508369E-3
936.339569E-3
936.105537E-3
935.803413E-3
935.790253E-3
935.803413E-3
935.806274E-3
937.457085E-3
939.307594E-3
941.849899E-3
944.659996E-3
947.174835E-3
949.793816E-3
951.958466E-3
953.380394E-3
954.691315E-3
954.607201E-3
954.041862E-3
953.343201E-3
952.646255E-3
951.630592E-3
950.774002E-3
950.037003E-3
949.433327E-3
948.358727E-3
948.456573E-3
948.423386E-3
948.417091E-3
948.501205E-3
948.627663E-3
948.743248E-3
949.736023E-3
948.883438E-3
948.446846E-3
947.886658E-3
947.020340E-3
946.772003E-3
946.051025E-3
945.712852E-3
945.601273E-3
945.062828E-3
945.597267E-3
945.891953E-3
946.003532E-3
946.205521E-3
946.323395E-3
946.371460E-3
946.261024E-3
946.206665E-3
945.507431E-3
945.644760E-3
945.509148E-3
945.223045E-3
944.899178E-3
944.558716E-3
944.067764E-3
943.851471E-3
943.608284E-3
943.993950E-3
943.258667E-3
942.923927E-3
942.818069E-3
942.580032E-3
942.667580E-3
942.461014E-3
942.115974E-3
942.069626E-3
942.164040E-3
941.958046E-3
941.790962E-3
941.504288E-3
941.436768E-3
941.392708E-3
941.237640E-3
941.188431E-3
941.029930E-3
941.150093E-3
940.997887E-3
940.878868E-3
940.811348E-3
940.631104E-3
940.578461E-3
940.605354E-3
940.847397E-3
940.585327E-3
940.410233E-3
940.309525E-3
940.311813E-3
940.131569E-3
939.952469E-3
939.794540E-3
939.814568E-3
940.046310E-3
939.723015E-3
939.671516E-3
939.365387E-3
939.216042E-3
938.992882E-3
938.852692E-3
938.683319E-3
938.216972E-3
938.691902E-3
938.032722E-3
937.526321E-3
937.669373E-3
937.633896E-3
938.067627E-3
938.969994E-3
940.679169E-3
943.015480E-3
945.839310E-3
948.268890E-3
950.478745E-3
952.322388E-3
953.643608E-3
954.171181E-3
954.458427E-3
954.104233E-3
953.473091E-3
953.121758E-3
952.030563E-3
951.079559E-3
950.358009E-3
949.604416E-3
949.156380E-3
948.726082E-3
948.506927E-3
948.510361E-3
948.502350E-3
948.628235E-3
948.541260E-3
948.475456E-3
948.418236E-3
947.791672E-3
947.282982E-3
946.790886E-3
946.493340E-3
946.157455E-3
946.212959E-3
946.311378E-3
946.439552E-3
946.849251E-3
947.015190E-3
947.182274E-3
947.264671E-3
947.256088E-3
947.260094E-3
947.149658E-3
947.067261E-3
946.743965E-3
946.314812E-3
946.202660E-3
945.738029E-3
944.939232E-3
944.894600E-3
944.657135E-3
944.460869E-3
944.355011E-3
944.012833E-3
943.828011E-3
943.560791E-3
943.485832E-3
942.703056E-3
942.935944E-3
942.898750E-3
942.826080E-3
942.684746E-3
942.473030E-3
942.261314E-3
942.205811E-3
942.008400E-3
941.869354E-3
941.778946E-3
941.672516E-3
941.650200E-3
941.497421E-3
941.498566E-3
941.440201E-3
941.721153E-3
941.388130E-3
941.106606E-3
941.205597E-3
941.046524E-3
940.755272E-3
940.722084E-3
940.544701E-3
940.621376E-3
940.010262E-3
940.030289E-3
940.013123E-3
939.657211E-3
939.606857E-3
939.240646E-3
938.944817E-3
938.731384E-3
938.468170E-3
938.376617E-3
938.114548E-3
937.861633E-3
937.879372E-3
938.318253E-3
939.307022E-3
940.862274E-3
942.940521E-3
945.488548E-3
948.323250E-3
950.525665E-3
952.226257E-3
953.306580E-3
954.065895E-3
954.199219E-3
