Notes :


2023-11-06 ¿ÀÈÄ 11:10:42
Volts
Ch : LED 2,
365.520859E-3
365.517426E-3
365.355492E-3
365.451622E-3
365.433311E-3
365.558052E-3
365.472221E-3
365.369797E-3
365.502548E-3
365.360069E-3
365.273094E-3
365.152931E-3
364.859390E-3
364.850235E-3
364.679718E-3
364.748955E-3
364.728355E-3
364.651108E-3
364.604187E-3
364.498329E-3
364.436531E-3
364.402771E-3
364.343262E-3
364.378738E-3
364.220810E-3
364.284325E-3
364.272881E-3
364.145851E-3
364.252853E-3
364.169884E-3
364.242554E-3
364.215088E-3
364.122963E-3
364.094925E-3
363.912392E-3
363.833427E-3
363.875771E-3
363.784218E-3
364.064026E-3
364.369011E-3
365.004158E-3
365.709686E-3
366.391182E-3
367.295837E-3
367.976189E-3
368.684006E-3
369.226456E-3
369.450760E-3
369.587517E-3
369.364929E-3
369.005585E-3
368.726921E-3
368.217659E-3
367.874336E-3
367.398834E-3
367.085266E-3
366.887856E-3
366.502762E-3
366.406059E-3
366.252708E-3
366.284752E-3
366.386032E-3
366.390038E-3
366.415215E-3
366.343117E-3
366.273880E-3
366.200638E-3
366.055870E-3
366.024399E-3
365.877342E-3
365.819550E-3
365.921402E-3
365.809822E-3
365.922546E-3
365.971756E-3
366.090775E-3
366.419220E-3
366.422653E-3
366.528511E-3
366.499329E-3
366.478157E-3
366.479301E-3
366.196632E-3
366.252136E-3
366.107941E-3
365.897942E-3
365.764046E-3
365.600967E-3
365.506554E-3
365.396118E-3
365.328026E-3
365.363503E-3
365.075684E-3
365.210724E-3
365.062523E-3
365.018463E-3
365.077972E-3
364.862251E-3
364.908600E-3
364.795876E-3
364.761543E-3
364.821053E-3
364.608192E-3
364.639091E-3
364.561272E-3
364.435959E-3
364.524078E-3
364.487457E-3
364.548111E-3
364.554977E-3
364.457130E-3
364.533806E-3
364.431953E-3
364.549828E-3
364.418221E-3
364.387894E-3
364.390182E-3
364.251709E-3
364.299774E-3
364.225388E-3
364.174461E-3
364.239693E-3
364.129829E-3
364.189339E-3
364.113808E-3
364.115524E-3
364.108086E-3
364.032555E-3
364.060020E-3
364.005661E-3
363.827133E-3
363.841438E-3
363.645744E-3
363.768196E-3
363.978767E-3
364.424515E-3
365.143204E-3
365.809250E-3
366.777420E-3
367.566490E-3
368.243980E-3
368.887711E-3
369.232178E-3
369.498253E-3
369.393539E-3
369.171524E-3
368.953514E-3
368.418503E-3
368.128395E-3
367.640305E-3
367.246628E-3
367.013168E-3
366.719627E-3
366.503906E-3
366.314507E-3
366.193771E-3
366.219521E-3
366.249275E-3
366.269302E-3
366.264725E-3
366.043282E-3
365.950584E-3
365.721703E-3
365.693665E-3
365.744591E-3
365.620995E-3
365.714836E-3
365.659332E-3
365.700531E-3
365.764618E-3
365.840149E-3
366.133118E-3
366.172600E-3
366.240120E-3
366.165161E-3
366.181755E-3
366.119957E-3
366.042137E-3
365.907097E-3
365.707970E-3
365.519142E-3
365.426445E-3
365.204430E-3
365.175819E-3
365.088272E-3
364.953232E-3
364.910889E-3
364.772987E-3
364.873123E-3
364.703751E-3
364.512634E-3
364.603043E-3
364.404488E-3
364.278030E-3
364.250565E-3
364.114952E-3
364.133263E-3
364.023972E-3
364.012527E-3
364.022255E-3
364.003944E-3
364.105797E-3
364.000511E-3
363.979912E-3
364.003372E-3
363.858604E-3
364.037132E-3
364.012527E-3
364.065170E-3
364.015388E-3
363.950157E-3
363.945007E-3
363.973618E-3
363.961029E-3
363.984489E-3
363.880348E-3
364.054298E-3
363.872337E-3
363.879204E-3
363.801384E-3
363.670921E-3
363.729286E-3
363.519859E-3
363.558769E-3
363.561630E-3
363.479233E-3
363.706398E-3
364.076614E-3
364.795876E-3
365.522003E-3
366.186333E-3
367.026901E-3
367.630005E-3
368.317795E-3
368.843079E-3
368.953514E-3
369.155502E-3
368.863106E-3
368.575859E-3
368.228531E-3
367.800522E-3
367.643166E-3
367.185402E-3
366.769981E-3
366.543388E-3
366.254997E-3
366.279030E-3
366.132545E-3
366.168022E-3
366.132545E-3
365.984917E-3
365.879059E-3
365.722847E-3
365.726852E-3
365.673065E-3
365.576363E-3
365.799522E-3
365.774345E-3
365.908813E-3
366.019249E-3
366.021538E-3
366.368866E-3
366.434097E-3
366.592598E-3
366.620636E-3
366.612625E-3
366.689873E-3
366.584015E-3
366.567993E-3
366.534233E-3
366.276169E-3
366.285896E-3
366.057014E-3
365.906525E-3
365.784073E-3
365.550613E-3
365.599823E-3
365.484238E-3
365.445328E-3
365.390968E-3
365.274239E-3
365.345764E-3
365.297699E-3
365.237617E-3
365.162086E-3
365.124321E-3
365.332031E-3
365.121460E-3
365.029335E-3
365.160942E-3
365.070534E-3
365.157509E-3
365.082550E-3
365.184975E-3
365.119171E-3
365.100861E-3
365.273094E-3
365.119171E-3
365.135193E-3
365.162086E-3
365.083694E-3
365.145493E-3
365.096283E-3
365.084267E-3
365.068817E-3
365.082550E-3
365.189552E-3
365.091133E-3
365.092850E-3
365.072250E-3
364.972115E-3
365.064240E-3
364.867401E-3
364.811325E-3
364.842796E-3
364.682007E-3
364.767838E-3
364.732933E-3
364.860535E-3
365.365791E-3
365.982628E-3
366.893578E-3
367.599106E-3
368.456841E-3
369.213295E-3
369.792938E-3
370.372009E-3
370.507050E-3
370.571709E-3
370.405197E-3
370.090485E-3
369.785500E-3
369.293404E-3
368.955803E-3
368.652534E-3
368.203926E-3
368.028831E-3
367.837715E-3
367.806816E-3
367.794228E-3
367.699814E-3
367.898369E-3
367.813110E-3
367.859459E-3
367.830849E-3
367.636299E-3
367.492104E-3
367.275238E-3
367.174530E-3
367.368507E-3
367.297554E-3
367.342186E-3
367.342758E-3
367.461777E-3
367.638016E-3
367.664337E-3
367.795944E-3
367.824554E-3
367.935562E-3
367.923546E-3
367.771339E-3
367.741013E-3
367.579651E-3
367.465782E-3
367.308998E-3
366.976547E-3
366.893005E-3
366.759109E-3
366.736794E-3
366.704178E-3
366.606331E-3
366.582298E-3
366.519928E-3
366.428947E-3
366.481590E-3
366.369438E-3
366.464424E-3
366.390038E-3
366.319656E-3
366.431808E-3
366.264153E-3
366.313934E-3
366.272163E-3
366.331100E-3
366.323090E-3
366.229820E-3
366.361427E-3
366.202927E-3
366.263580E-3
366.302490E-3
366.190338E-3
366.172600E-3
366.176605E-3
366.201210E-3
366.161728E-3
366.078758E-3
366.097641E-3
365.994644E-3
366.035843E-3
366.039848E-3
365.967178E-3
365.941429E-3
365.800667E-3
365.785217E-3
365.727997E-3
365.582085E-3
365.604401E-3
365.531731E-3
365.486526E-3
365.563202E-3
365.639305E-3
365.964890E-3
366.499329E-3
367.285538E-3
368.348694E-3
369.093704E-3
370.099068E-3
370.773697E-3
371.307564E-3
371.739006E-3
371.765327E-3
371.787643E-3
371.407127E-3
370.939064E-3
370.646667E-3
370.143700E-3
369.875336E-3
369.545174E-3
369.401550E-3
369.142914E-3
369.017029E-3
368.970680E-3
369.002151E-3
368.943214E-3
369.083977E-3
369.011879E-3
369.106293E-3
368.986130E-3
368.750954E-3
368.712616E-3
368.514633E-3
368.577576E-3
368.547821E-3
368.575287E-3
368.795013E-3
368.721771E-3
368.901443E-3
368.994713E-3
369.175529E-3
369.312286E-3
369.209862E-3
369.197845E-3
369.079971E-3
368.979836E-3
368.934631E-3
368.625069E-3
368.540382E-3
368.388176E-3
368.167305E-3
368.170166E-3
367.950439E-3
368.019676E-3
367.873192E-3
367.737579E-3
367.822266E-3
367.661476E-3
367.727280E-3
367.686653E-3
367.625999E-3
367.667770E-3
367.462349E-3
367.512131E-3
367.498970E-3
367.518425E-3
367.687225E-3
367.561913E-3
367.612267E-3
367.564201E-3
367.459488E-3
367.556190E-3
367.591095E-3
367.604256E-3
367.606544E-3
367.527580E-3
367.642593E-3
367.575073E-3
367.575073E-3
367.523575E-3
367.482948E-3
367.602539E-3
367.347336E-3
367.398834E-3
367.309570E-3
367.213440E-3
367.168808E-3
367.030334E-3
366.938782E-3
366.973114E-3
366.856384E-3
366.891289E-3
366.751671E-3
366.910172E-3
367.211151E-3
367.735863E-3
368.502045E-3
369.152069E-3
370.005226E-3
370.834923E-3
371.349907E-3
371.863747E-3
372.089767E-3
372.161293E-3
372.027969E-3
371.764755E-3
371.495819E-3
371.019745E-3
370.683861E-3
370.318222E-3
370.068741E-3
369.874191E-3
369.553757E-3
369.542313E-3
369.526291E-3
369.501686E-3
369.485092E-3
369.475937E-3
369.448471E-3
369.168663E-3
368.990135E-3
368.960381E-3
368.849373E-3
368.924904E-3
369.061661E-3
369.069672E-3
369.228172E-3
369.145775E-3
369.392967E-3
369.531441E-3
369.643021E-3
369.796371E-3
369.694519E-3
369.791222E-3
369.708252E-3
369.678497E-3
369.657326E-3
369.379807E-3
369.172096E-3
368.966103E-3
368.757248E-3
368.740082E-3
368.528938E-3
368.538666E-3
368.592453E-3
368.455124E-3
368.455124E-3
368.251419E-3
368.253708E-3
368.218231E-3
368.179893E-3
368.246841E-3
368.205643E-3
368.251419E-3
368.140984E-3
368.126106E-3
368.201065E-3
368.047714E-3
368.142128E-3
368.036270E-3
368.075180E-3
368.114662E-3
367.973900E-3
368.079758E-3
368.031120E-3
368.032837E-3
368.197060E-3
368.045998E-3
368.155861E-3
368.088913E-3
367.949867E-3
368.088913E-3
367.886353E-3
367.916107E-3
367.902946E-3
367.789650E-3
367.917824E-3
367.696381E-3
367.826271E-3
367.679214E-3
367.492104E-3
367.576218E-3
367.399979E-3
367.448044E-3
367.317581E-3
367.445755E-3
367.924118E-3
368.362427E-3
369.239044E-3
370.071602E-3
370.913315E-3
371.777344E-3
372.467995E-3
373.053360E-3
373.396683E-3
373.344040E-3
373.201561E-3
372.930908E-3
372.631645E-3
372.215652E-3
371.823692E-3
371.570778E-3
371.305847E-3
371.098709E-3
370.905876E-3
370.691872E-3
370.944786E-3
370.853806E-3
370.995140E-3
371.122742E-3
371.119881E-3
371.089554E-3
370.848656E-3
370.733070E-3
370.581436E-3
370.426941E-3
370.368576E-3
370.347404E-3
370.450401E-3
370.543098E-3
370.443535E-3
370.659828E-3
370.789719E-3
370.947075E-3
370.923615E-3
370.937347E-3
370.984268E-3
370.826912E-3
370.703888E-3
370.573425E-3
370.258141E-3
370.249557E-3
370.021248E-3
369.910812E-3
369.804382E-3
369.707680E-3
369.719124E-3
369.589806E-3
369.663620E-3
369.612122E-3
369.510841E-3
369.639587E-3
369.481659E-3
369.365501E-3
369.431305E-3
369.320297E-3
369.355202E-3
369.339180E-3
369.338036E-3
369.285965E-3
369.228172E-3
369.251633E-3
369.208717E-3
369.272232E-3
369.310570E-3
369.279099E-3
369.330025E-3
369.263077E-3
369.280243E-3
369.251633E-3
369.128609E-3
369.177246E-3
369.103432E-3
369.142914E-3
369.167519E-3
369.057083E-3
368.992996E-3
368.980408E-3
368.928909E-3
369.009590E-3
368.819618E-3
368.959808E-3
368.831635E-3
368.726349E-3
368.721771E-3
368.626785E-3
368.563271E-3
368.382454E-3
368.378448E-3
368.459702E-3
368.530083E-3
368.800735E-3
369.172096E-3
369.830132E-3
370.741081E-3
371.549606E-3
372.438812E-3
373.202133E-3
373.854446E-3
374.263573E-3
374.345398E-3
374.375153E-3
374.099922E-3
373.856735E-3
373.552322E-3
373.056793E-3
372.731209E-3
372.396469E-3
372.160721E-3
372.053146E-3
371.904945E-3
371.963882E-3
372.061729E-3
372.049141E-3
372.166443E-3
372.172165E-3
372.177887E-3
372.093773E-3
371.866608E-3
371.758461E-3
371.495819E-3
371.421432E-3
371.391678E-3
371.347618E-3
371.423149E-3
371.380234E-3
371.605682E-3
371.645737E-3
371.735001E-3
371.857452E-3
371.937561E-3
371.887207E-3
371.753311E-3
371.585655E-3
371.507835E-3
371.289253E-3
371.276665E-3
371.150780E-3
370.964241E-3
370.903587E-3
370.630646E-3
370.654678E-3
370.517921E-3
370.492744E-3
370.556831E-3
370.378304E-3
370.442390E-3
370.283318E-3
370.236397E-3
370.240402E-3
370.092773E-3
370.176315E-3
370.132256E-3
370.111084E-3
370.186043E-3
370.006943E-3
370.053291E-3
370.098495E-3
370.044136E-3
370.108795E-3
370.049858E-3
370.051003E-3
369.983482E-3
369.964600E-3
369.935989E-3
369.806099E-3
369.865608E-3
369.826126E-3
369.800377E-3
369.889641E-3
369.716835E-3
369.778061E-3
369.643021E-3
369.570351E-3
369.581223E-3
369.531441E-3
369.521713E-3
369.502831E-3
369.342041E-3
369.472504E-3
369.315720E-3
369.277954E-3
369.186974E-3
369.132042E-3
369.158936E-3
369.026184E-3
369.078255E-3
368.955803E-3
368.888283E-3
369.033623E-3
369.158936E-3
369.691086E-3
370.330238E-3
371.252060E-3
372.155571E-3
372.911453E-3
373.639870E-3
374.176025E-3
374.446106E-3
374.617195E-3
374.455261E-3
374.244690E-3
373.871613E-3
373.483086E-3
373.196983E-3
372.783852E-3
372.552109E-3
372.197342E-3
372.069168E-3
372.036552E-3
371.827698E-3
371.965599E-3
372.106361E-3
372.117805E-3
372.204208E-3
372.023392E-3
371.842575E-3
371.536446E-3
371.371651E-3
371.333885E-3
371.173668E-3
371.353340E-3
371.360779E-3
371.446609E-3
371.494102E-3
371.499252E-3
371.661186E-3
371.750450E-3
371.726418E-3
371.906090E-3
371.652031E-3
371.705818E-3
371.554756E-3
371.359062E-3
371.250916E-3
370.915031E-3
370.878410E-3
370.694733E-3
370.495033E-3
370.498466E-3
370.323372E-3
370.374298E-3
370.310211E-3
370.268440E-3
370.228386E-3
370.096207E-3
370.174599E-3
370.038414E-3
370.000076E-3
370.141983E-3
369.994926E-3
370.033264E-3
369.974327E-3
369.894791E-3
370.036697E-3
369.887352E-3
370.018387E-3
369.947433E-3
369.858742E-3
369.887924E-3
369.794083E-3
369.915390E-3
369.823265E-3
369.816399E-3
369.729424E-3
369.661331E-3
369.731140E-3
369.655609E-3
369.568634E-3
369.626999E-3
369.597816E-3
369.589806E-3
369.517708E-3
369.376373E-3
369.425583E-3
369.387245E-3
369.309425E-3
369.328308E-3
369.226456E-3
369.190407E-3
369.186974E-3
369.256210E-3
369.110870E-3
368.950081E-3
368.888283E-3
368.923187E-3
368.919182E-3
368.942642E-3
369.093704E-3
369.510269E-3
369.931984E-3
370.789146E-3
371.582794E-3
372.426796E-3
373.297119E-3
373.844719E-3
374.408913E-3
374.620628E-3
374.660683E-3
374.508476E-3
374.180031E-3
373.881912E-3
373.603249E-3
373.235321E-3
373.002434E-3
372.635078E-3
372.448540E-3
372.353554E-3
372.227669E-3
372.319221E-3
372.309494E-3
372.544098E-3
372.657394E-3
372.679138E-3
372.708321E-3
372.482872E-3
372.367859E-3
372.051430E-3
371.848869E-3
371.863174E-3
371.765327E-3
371.870613E-3
371.846581E-3
371.811676E-3
371.934700E-3
371.885490E-3
372.082329E-3
372.160149E-3
372.200775E-3
372.209930E-3
372.022820E-3
372.035408E-3
371.853447E-3
371.636009E-3
371.626282E-3
371.328163E-3
371.221161E-3
371.106148E-3
371.027184E-3
371.014595E-3
370.898438E-3
370.820045E-3
370.833778E-3
370.743942E-3
370.776558E-3
370.697594E-3
370.693588E-3
370.536804E-3
370.504761E-3
370.662117E-3
370.527077E-3
370.510483E-3
370.538521E-3
370.427513E-3
370.541954E-3
370.466423E-3
370.437813E-3
370.516205E-3
370.325089E-3
370.471001E-3
370.410919E-3
370.346832E-3
370.326233E-3
370.188332E-3
370.278740E-3
370.192909E-3
370.119667E-3
370.141983E-3
369.989204E-3
370.083046E-3
369.969177E-3
369.906807E-3
369.885635E-3
369.779205E-3
369.852448E-3
369.831276E-3
369.776917E-3
369.757462E-3
369.649887E-3
369.792938E-3
369.638443E-3
369.632721E-3
369.616699E-3
369.455910E-3
369.460487E-3
369.427872E-3
369.369507E-3
369.367790E-3
369.223022E-3
369.363213E-3
369.320869E-3
369.428444E-3
369.700241E-3
370.257568E-3
370.981407E-3
371.777344E-3
372.764969E-3
373.551750E-3
374.191475E-3
374.787712E-3
374.914169E-3
375.022316E-3
374.954224E-3
374.626923E-3
374.269867E-3
373.874474E-3
373.641586E-3
373.322296E-3
373.068237E-3
373.000145E-3
372.754669E-3
372.858810E-3
372.807884E-3
372.818756E-3
373.049355E-3
373.063087E-3
373.176384E-3
373.104286E-3
372.946930E-3
372.866249E-3
372.617912E-3
372.550392E-3
372.348976E-3
372.153282E-3
372.159576E-3
372.088623E-3
