Notes :


2023-10-24 ¿ÀÈÄ 9:59:48
Volts
Ch : LED 2,
212.901878E-3
212.708473E-3
210.038567E-3
209.329033E-3
208.784294E-3
207.723427E-3
209.363937E-3
208.192062E-3
208.672142E-3
209.224892E-3
208.683014E-3
210.545540E-3
209.239769E-3
209.743309E-3
210.441971E-3
209.607697E-3
211.163521E-3
209.942436E-3
210.243988E-3
210.551834E-3
209.513855E-3
211.103439E-3
209.600258E-3
210.293770E-3
211.186409E-3
210.682869E-3
212.413788E-3
211.344337E-3
211.532593E-3
211.785507E-3
210.960388E-3
212.523079E-3
211.139488E-3
210.974121E-3
211.437035E-3
210.772133E-3
212.457848E-3
210.776711E-3
211.015892E-3
211.708832E-3
209.961891E-3
212.786865E-3
211.559486E-3
211.436462E-3
212.562561E-3
211.744881E-3
213.787079E-3
212.418365E-3
212.543678E-3
213.161659E-3
212.471008E-3
214.323807E-3
212.988853E-3
212.945938E-3
213.586235E-3
212.998581E-3
214.802170E-3
213.414574E-3
213.476372E-3
213.783073E-3
213.495827E-3
215.132904E-3
214.142418E-3
213.998795E-3
214.349556E-3
213.031197E-3
215.488243E-3
214.318085E-3
214.312935E-3
214.956093E-3
214.113808E-3
216.199493E-3
214.854813E-3
214.877701E-3
215.443039E-3
214.664841E-3
216.336823E-3
215.304565E-3
215.059662E-3
215.621567E-3
215.163803E-3
217.173958E-3
215.713120E-3
215.857887E-3
216.412926E-3
215.951729E-3
217.743874E-3
216.526222E-3
216.675568E-3
217.074394E-3
215.257072E-3
216.684151E-3
214.966965E-3
213.752174E-3
213.037491E-3
210.950661E-3
211.448479E-3
208.859253E-3
207.871628E-3
208.143997E-3
207.219887E-3
208.707619E-3
207.907677E-3
208.447838E-3
209.410286E-3
208.858109E-3
210.528374E-3
209.454918E-3
209.560776E-3
210.701180E-3
209.997368E-3
211.413574E-3
210.175323E-3
210.129547E-3
210.882568E-3
209.968758E-3
211.562347E-3
210.839081E-3
211.358070E-3
212.809181E-3
212.095070E-3
213.634872E-3
212.277031E-3
212.703896E-3
213.298416E-3
211.941719E-3
213.353348E-3
212.156296E-3
212.681007E-3
213.253212E-3
212.723351E-3
214.170456E-3
212.832069E-3
212.929916E-3
213.934135E-3
213.375092E-3
215.187836E-3
214.105225E-3
214.422798E-3
215.423584E-3
214.623642E-3
216.277885E-3
215.183258E-3
215.162659E-3
216.238403E-3
215.551186E-3
217.028618E-3
215.574646E-3
215.583229E-3
216.666985E-3
216.240692E-3
217.694092E-3
216.234970E-3
216.308212E-3
216.910744E-3
216.578865E-3
217.992210E-3
216.629219E-3
216.580582E-3
217.575073E-3
216.993713E-3
218.276596E-3
216.625214E-3
216.714478E-3
217.824554E-3
217.234612E-3
218.551254E-3
217.214584E-3
217.271233E-3
217.919540E-3
217.460060E-3
218.948364E-3
217.706680E-3
217.825699E-3
218.572998E-3
218.227959E-3
219.791222E-3
218.329239E-3
218.879700E-3
219.846153E-3
219.390678E-3
220.751381E-3
219.182968E-3
218.968391E-3
219.043350E-3
217.491531E-3
217.462921E-3
214.823914E-3
213.393974E-3
212.423515E-3
209.946442E-3
211.155510E-3
209.766769E-3
210.142136E-3
210.793877E-3
210.237694E-3
211.719704E-3
210.773277E-3
211.095428E-3
212.127113E-3
211.475945E-3
213.061523E-3
211.717987E-3
211.741447E-3
212.088776E-3
211.383820E-3
212.781143E-3
211.402130E-3
211.316299E-3
212.178612E-3
211.745453E-3
213.347626E-3
212.561417E-3
213.082695E-3
213.993645E-3
213.212585E-3
214.532661E-3
213.204575E-3
213.240051E-3
213.916397E-3
212.989426E-3
214.370155E-3
213.003159E-3
212.988853E-3
213.971329E-3
212.409210E-3
214.255714E-3
213.321877E-3
213.415718E-3
214.197922E-3
213.767052E-3
215.290260E-3
214.213943E-3
214.520645E-3
215.321159E-3
214.648819E-3
215.842438E-3
214.803314E-3
214.881134E-3
215.732002E-3
215.043640E-3
216.513634E-3
214.990997E-3
215.374947E-3
216.340828E-3
215.818977E-3
216.868973E-3
215.929985E-3
216.204643E-3
216.646385E-3
216.117668E-3
217.483521E-3
216.015244E-3
216.319656E-3
217.121887E-3
216.179466E-3
217.524719E-3
216.083908E-3
216.273880E-3
217.054367E-3
216.399765E-3
217.644882E-3
216.434669E-3
216.691589E-3
217.805099E-3
217.170525E-3
218.807602E-3
217.401695E-3
217.799950E-3
218.503761E-3
217.612839E-3
218.931770E-3
217.547607E-3
217.359352E-3
217.219734E-3
215.142632E-3
214.889145E-3
212.215805E-3
211.071968E-3
210.820770E-3
208.750534E-3
210.273170E-3
208.871269E-3
209.019470E-3
209.905243E-3
209.238052E-3
211.082268E-3
210.173035E-3
210.342979E-3
211.545181E-3
210.792732E-3
212.018967E-3
210.805893E-3
210.722923E-3
211.372948E-3
210.617638E-3
211.830711E-3
210.775566E-3
211.155510E-3
212.059021E-3
210.765266E-3
212.929916E-3
212.113953E-3
212.532806E-3
213.502693E-3
212.895012E-3
213.994789E-3
212.591743E-3
212.738228E-3
213.232040E-3
212.711334E-3
213.801384E-3
212.777138E-3
212.586021E-3
213.275528E-3
212.556839E-3
213.996506E-3
213.017464E-3
213.360786E-3
214.098930E-3
213.457489E-3
214.707184E-3
214.069176E-3
214.325523E-3
215.061378E-3
214.574432E-3
215.787506E-3
214.803314E-3
214.789581E-3
215.373802E-3
214.225388E-3
215.975189E-3
215.104294E-3
215.209579E-3
215.797806E-3
215.302849E-3
216.370010E-3
215.573502E-3
215.642738E-3
216.142273E-3
215.903091E-3
216.753960E-3
215.868187E-3
215.693665E-3
216.253853E-3
215.888786E-3
216.930199E-3
216.015244E-3
216.027260E-3
216.697311E-3
216.197777E-3
217.208290E-3
216.541672E-3
216.851807E-3
217.467499E-3
216.970253E-3
217.968750E-3
217.298698E-3
217.140770E-3
217.692375E-3
216.534805E-3
216.594315E-3
214.545250E-3
212.919617E-3
212.303352E-3
209.984207E-3
210.257149E-3
208.899879E-3
208.515358E-3
208.997726E-3
208.353424E-3
209.588242E-3
209.061241E-3
209.363365E-3
210.437965E-3
209.838295E-3
210.892296E-3
210.264015E-3
210.219955E-3
211.110306E-3
209.619141E-3
211.261368E-3
210.510063E-3
210.663986E-3
211.306572E-3
210.800171E-3
212.311363E-3
211.577797E-3
212.301636E-3
213.135910E-3
212.544250E-3
213.504982E-3
212.737656E-3
212.385178E-3
213.276672E-3
212.175179E-3
213.178825E-3
212.335396E-3
212.286186E-3
212.881851E-3
212.368584E-3
213.251495E-3
212.365150E-3
212.646675E-3
213.466644E-3
212.920761E-3
214.203644E-3
213.340759E-3
213.419724E-3
214.353561E-3
213.822556E-3
214.847374E-3
214.027977E-3
214.225960E-3
214.718056E-3
214.072609E-3
215.250778E-3
214.505196E-3
214.611626E-3
215.183258E-3
214.625359E-3
215.704536E-3
215.043068E-3
214.823341E-3
215.504837E-3
214.752388E-3
215.861893E-3
215.263939E-3
214.978981E-3
215.979195E-3
215.503693E-3
216.562271E-3
215.812111E-3
216.014671E-3
216.787148E-3
215.992928E-3
217.214584E-3
216.444969E-3
216.544533E-3
216.936493E-3
215.211868E-3
216.765404E-3
215.275955E-3
213.768196E-3
213.222313E-3
211.229897E-3
211.447334E-3
209.500122E-3
208.616066E-3
209.018326E-3
207.354355E-3
208.935928E-3
208.158875E-3
208.451271E-3
209.379959E-3
208.945656E-3
210.597610E-3
209.955597E-3
210.138702E-3
210.554123E-3
208.665848E-3
210.661125E-3
209.748459E-3
209.674072E-3
210.383606E-3
209.951591E-3
211.327744E-3
210.705757E-3
211.072540E-3
211.716843E-3
211.273384E-3
212.661552E-3
211.485100E-3
211.486244E-3
212.141418E-3
210.414505E-3
211.942863E-3
211.111450E-3
211.223030E-3
211.818695E-3
211.178398E-3
212.559128E-3
211.784363E-3
211.555481E-3
212.293053E-3
211.708260E-3
213.305283E-3
212.424088E-3
212.386322E-3
213.026047E-3
212.322807E-3
213.878632E-3
212.976837E-3
213.321877E-3
213.797379E-3
213.170815E-3
214.401054E-3
213.645172E-3
213.549614E-3
213.772202E-3
213.308144E-3
214.542961E-3
213.971901E-3
213.847160E-3
214.403343E-3
212.481880E-3
214.620781E-3
213.883781E-3
213.910103E-3
214.430237E-3
213.910103E-3
215.807533E-3
215.111732E-3
214.845085E-3
215.390396E-3
214.597321E-3
215.813255E-3
214.742088E-3
214.215660E-3
214.423943E-3
212.553978E-3
212.601471E-3
210.154152E-3
208.946800E-3
208.478737E-3
206.778145E-3
207.745743E-3
206.494331E-3
206.421089E-3
206.927490E-3
206.453705E-3
208.352280E-3
207.679939E-3
207.608414E-3
208.449554E-3
207.890511E-3
209.108734E-3
208.183479E-3
208.358574E-3
208.835793E-3
208.051872E-3
209.229469E-3
208.586884E-3
208.423805E-3
209.413147E-3
209.029770E-3
211.010742E-3
210.306931E-3
210.163879E-3
210.912323E-3
210.001945E-3
211.324883E-3
210.202217E-3
209.797096E-3
210.629082E-3
209.622002E-3
210.980988E-3
210.105515E-3
209.689522E-3
210.315514E-3
209.723854E-3
211.368370E-3
210.421944E-3
210.199356E-3
211.215019E-3
210.780144E-3
212.083054E-3
211.125755E-3
211.280251E-3
212.076759E-3
211.199570E-3
212.705612E-3
212.004662E-3
212.097359E-3
212.890434E-3
211.786652E-3
213.434029E-3
212.668991E-3
212.267303E-3
212.751389E-3
212.072182E-3
213.656616E-3
212.865829E-3
212.667274E-3
213.435745E-3
211.446190E-3
213.626289E-3
213.015175E-3
213.003159E-3
214.060593E-3
213.114166E-3
214.414215E-3
214.018250E-3
213.797379E-3
214.691734E-3
212.680435E-3
214.887428E-3
213.767052E-3
213.577080E-3
213.577080E-3
211.513710E-3
211.082840E-3
208.750534E-3
207.449913E-3
206.968689E-3
205.201721E-3
205.950165E-3
205.398560E-3
204.618645E-3
205.633736E-3
204.992867E-3
206.321526E-3
206.161308E-3
206.015968E-3
206.770134E-3
206.173897E-3
207.439041E-3
206.645966E-3
206.623650E-3
207.234764E-3
205.551910E-3
207.110596E-3
206.553268E-3
206.585312E-3
207.668495E-3
207.074547E-3
208.852959E-3
208.059883E-3
208.250999E-3
209.213448E-3
207.123756E-3
209.162521E-3
208.816910E-3
208.735657E-3
209.207726E-3
208.242989E-3
209.417152E-3
208.687592E-3
208.521080E-3
209.290695E-3
208.426094E-3
209.583092E-3
208.994293E-3
209.006882E-3
209.707832E-3
208.232689E-3
210.112381E-3
209.861755E-3
209.836578E-3
210.655975E-3
209.935570E-3
211.439323E-3
210.708046E-3
210.723495E-3
211.576080E-3
210.672569E-3
212.077332E-3
211.250496E-3
211.259651E-3
212.023544E-3
211.648750E-3
212.697029E-3
212.394905E-3
212.123108E-3
212.866402E-3
212.252998E-3
213.126183E-3
212.524796E-3
212.385750E-3
213.352203E-3
212.539673E-3
213.578224E-3
212.888145E-3
212.595749E-3
213.195419E-3
211.100578E-3
213.455772E-3
213.063240E-3
213.051224E-3
213.747025E-3
212.069893E-3
214.231110E-3
213.903809E-3
213.908958E-3
214.986992E-3
214.073181E-3
215.015602E-3
213.923264E-3
212.598038E-3
211.930847E-3
209.077835E-3
208.867836E-3
206.880569E-3
205.579376E-3
205.803108E-3
204.130554E-3
204.846382E-3
204.235268E-3
204.433823E-3
205.683517E-3
204.849815E-3
206.220245E-3
205.749321E-3
205.877495E-3
206.557274E-3
205.905533E-3
206.934357E-3
206.525230E-3
206.425095E-3
206.851387E-3
205.982208E-3
207.146645E-3
206.801605E-3
207.000732E-3
208.160019E-3
207.618141E-3
209.118462E-3
208.410072E-3
208.498764E-3
209.571648E-3
208.602905E-3
209.573936E-3
208.891296E-3
208.703041E-3
209.665489E-3
208.368874E-3
209.597397E-3
209.006310E-3
208.783150E-3
209.444618E-3
208.482742E-3
209.965324E-3
209.222031E-3
209.117317E-3
210.131264E-3
209.227180E-3
210.941505E-3
210.135841E-3
210.068893E-3
210.950089E-3
208.953667E-3
211.213875E-3
210.617638E-3
210.725212E-3
212.018967E-3
210.821342E-3
212.244415E-3
211.913109E-3
211.644745E-3
212.506485E-3
211.253929E-3
212.798309E-3
212.293053E-3
211.820984E-3
212.588882E-3
211.642456E-3
212.909317E-3
212.229538E-3
212.136841E-3
213.148499E-3
212.244987E-3
213.407707E-3
212.905312E-3
212.468719E-3
213.317299E-3
212.255859E-3
213.448906E-3
213.249207E-3
212.743378E-3
213.958740E-3
212.923050E-3
213.994217E-3
213.579369E-3
213.376236E-3
214.558411E-3
213.701248E-3
214.835358E-3
214.661980E-3
214.391899E-3
215.297699E-3
214.266014E-3
215.331459E-3
214.980125E-3
213.619995E-3
213.480377E-3
210.876274E-3
210.512352E-3
208.848953E-3
207.093430E-3
206.817055E-3
204.339981E-3
205.233765E-3
204.934502E-3
204.759407E-3
205.847740E-3
205.114174E-3
206.613922E-3
206.650543E-3
206.303215E-3
207.269669E-3
206.695175E-3
207.925987E-3
207.449341E-3
207.297134E-3
208.109093E-3
206.847954E-3
208.179474E-3
207.959175E-3
207.796669E-3
209.177971E-3
208.340836E-3
209.882355E-3
209.737015E-3
209.291840E-3
210.458565E-3
208.683014E-3
210.046005E-3
209.708405E-3
209.299278E-3
209.871483E-3
208.763123E-3
209.658623E-3
209.372520E-3
209.046364E-3
209.787941E-3
208.448410E-3
210.053444E-3
210.223389E-3
209.836578E-3
210.507202E-3
209.569931E-3
210.902023E-3
210.713768E-3
210.304070E-3
211.301994E-3
210.187340E-3
211.439323E-3
211.340332E-3
210.891724E-3
211.628723E-3
210.750389E-3
211.914253E-3
211.762619E-3
211.770630E-3
212.324524E-3
211.228752E-3
212.736511E-3
212.872124E-3
212.279320E-3
212.677574E-3
211.816978E-3
213.216019E-3
212.907600E-3
212.564850E-3
213.226318E-3
212.177467E-3
213.524437E-3
213.266945E-3
212.941360E-3
213.755035E-3
212.643242E-3
213.513565E-3
213.571358E-3
213.137054E-3
213.899803E-3
213.076401E-3
214.519501E-3
214.426804E-3
213.831711E-3
214.616203E-3
213.692665E-3
215.084839E-3
215.207291E-3
214.626503E-3
215.449333E-3
214.355850E-3
215.360069E-3
214.299774E-3
212.431526E-3
211.606979E-3
208.844948E-3
208.692741E-3
207.187843E-3
205.575371E-3
205.248070E-3
203.149223E-3
204.271317E-3
204.464149E-3
204.065323E-3
204.964828E-3
204.099083E-3
205.587387E-3
205.930710E-3
205.638885E-3
206.637383E-3
205.649185E-3
207.076263E-3
206.902885E-3
206.313515E-3
206.704330E-3
205.391121E-3
207.053375E-3
207.251930E-3
207.218170E-3
208.199501E-3
207.258797E-3
208.788872E-3
209.159088E-3
208.732224E-3
209.446335E-3
208.064461E-3
209.183693E-3
209.208298E-3
208.518219E-3
209.008598E-3
207.551193E-3
209.104729E-3
208.900452E-3
208.759689E-3
209.337044E-3
207.979202E-3
209.619713E-3
209.747314E-3
209.054375E-3
210.165596E-3
209.012604E-3
210.778427E-3
210.587883E-3
210.334396E-3
210.765839E-3
209.575653E-3
211.452484E-3
211.669922E-3
211.279678E-3
212.122536E-3
210.816193E-3
212.472153E-3
212.192917E-3
211.771202E-3
212.391472E-3
211.229324E-3
212.888718E-3
212.855530E-3
212.504196E-3
213.122749E-3
212.096786E-3
213.553047E-3
213.352776E-3
212.624931E-3
213.336754E-3
212.255287E-3
213.763618E-3
213.428879E-3
212.846375E-3
213.748169E-3
212.636375E-3
214.042282E-3
213.840294E-3
213.395691E-3
214.298630E-3
213.309860E-3
214.682579E-3
214.481735E-3
213.761902E-3
214.616203E-3
213.323593E-3
214.654541E-3
214.558411E-3
213.763046E-3
214.911461E-3
214.043427E-3
215.590096E-3
215.435600E-3
214.627647E-3
215.704536E-3
215.114021E-3
216.523361E-3
216.363144E-3
215.560913E-3
215.538597E-3
213.502693E-3
213.278961E-3
211.305428E-3
208.517647E-3
207.493973E-3
205.303001E-3
205.594254E-3
204.923058E-3
203.799820E-3
204.456711E-3
203.681946E-3
205.339050E-3
205.639458E-3
205.311012E-3
206.426239E-3
206.050301E-3
207.583809E-3
207.563210E-3
206.623077E-3
207.378387E-3
206.536674E-3
207.878494E-3
207.425308E-3
206.681442E-3
207.695389E-3
207.043076E-3
208.626938E-3
209.009743E-3
208.513069E-3
209.334183E-3
208.672714E-3
210.433960E-3
210.442543E-3
209.509277E-3
209.984207E-3
208.871841E-3
210.126686E-3
210.012817E-3
209.237480E-3
209.691811E-3
208.775139E-3
210.321236E-3
210.314369E-3
209.221458E-3
