Notes :


2023-10-26 ¿ÀÈÄ 10:49:22
Volts
Ch : LED 2,
360.271454E-3
358.907318E-3
354.119110E-3
349.649620E-3
344.782448E-3
339.276123E-3
336.875153E-3
333.936310E-3
332.834244E-3
333.128357E-3
333.562088E-3
335.975075E-3
336.769867E-3
338.774872E-3
340.490341E-3
341.695404E-3
343.822861E-3
343.909836E-3
344.607925E-3
344.333267E-3
344.191933E-3
345.018196E-3
344.029999E-3
343.809700E-3
343.784523E-3
343.512154E-3
344.858551E-3
344.877434E-3
346.099091E-3
346.941376E-3
346.718216E-3
347.963333E-3
346.865273E-3
346.876717E-3
346.739960E-3
345.722008E-3
346.702194E-3
345.551491E-3
345.957756E-3
346.080780E-3
345.883942E-3
347.301865E-3
346.973419E-3
348.148155E-3
348.881149E-3
349.147797E-3
350.445557E-3
350.240707E-3
350.968552E-3
351.891518E-3
351.286697E-3
353.156090E-3
352.763557E-3
353.328896E-3
353.865623E-3
353.562355E-3
354.677582E-3
353.953171E-3
354.247856E-3
354.573441E-3
353.041077E-3
354.953957E-3
354.337120E-3
354.620934E-3
355.080986E-3
354.652977E-3
355.646896E-3
354.829788E-3
355.023766E-3
355.454636E-3
354.514503E-3
356.044006E-3
355.399132E-3
355.761337E-3
356.215668E-3
354.738235E-3
356.763840E-3
356.155014E-3
356.740952E-3
357.123184E-3
356.970978E-3
358.213234E-3
357.370377E-3
357.869911E-3
358.178329E-3
356.737518E-3
358.788872E-3
358.315086E-3
358.329964E-3
358.669281E-3
358.213806E-3
359.447479E-3
358.431816E-3
358.962822E-3
359.197998E-3
358.997154E-3
360.076332E-3
359.584808E-3
360.029411E-3
360.460281E-3
360.310364E-3
361.485100E-3
360.554695E-3
360.437393E-3
359.624863E-3
357.045364E-3
354.710197E-3
349.502563E-3
345.111465E-3
340.478897E-3
335.856628E-3
334.039879E-3
331.389999E-3
331.075287E-3
331.966782E-3
332.528114E-3
335.314751E-3
336.367607E-3
338.258743E-3
340.040588E-3
340.845680E-3
342.863846E-3
342.846107E-3
343.247223E-3
343.525887E-3
341.847610E-3
343.332481E-3
342.198372E-3
342.332268E-3
342.608070E-3
342.219543E-3
344.054604E-3
344.052887E-3
345.054817E-3
345.760345E-3
345.770645E-3
347.065544E-3
345.927429E-3
345.794106E-3
345.843315E-3
344.887733E-3
345.925713E-3
344.987297E-3
345.420456E-3
345.863342E-3
345.702553E-3
347.458076E-3
347.024345E-3
347.896957E-3
348.670578E-3
348.969841E-3
350.805473E-3
350.386047E-3
351.087570E-3
351.878929E-3
350.786018E-3
352.994728E-3
352.697754E-3
353.305435E-3
353.699684E-3
353.179550E-3
354.446983E-3
353.778076E-3
354.182053E-3
354.441833E-3
354.028130E-3
355.304718E-3
354.635239E-3
355.061531E-3
355.416870E-3
354.828644E-3
355.824852E-3
355.099869E-3
355.496979E-3
356.016541E-3
355.538177E-3
356.797600E-3
356.068611E-3
356.516647E-3
356.907463E-3
355.645180E-3
357.475090E-3
357.065392E-3
357.487679E-3
357.897949E-3
357.845879E-3
359.050941E-3
358.447266E-3
358.866119E-3
359.379959E-3
358.991432E-3
360.059738E-3
359.265518E-3
359.606552E-3
359.645462E-3
359.322166E-3
360.572433E-3
359.792519E-3
360.473442E-3
360.464287E-3
360.040855E-3
361.478806E-3
360.704041E-3
361.383820E-3
361.536026E-3
361.167526E-3
362.778282E-3
361.991501E-3
362.532234E-3
362.590027E-3
361.334038E-3
361.134338E-3
357.603264E-3
354.201508E-3
349.769783E-3
344.285202E-3
341.222191E-3
337.070847E-3
335.070992E-3
334.361458E-3
333.778381E-3
336.032867E-3
336.730957E-3
339.005470E-3
341.046524E-3
342.203522E-3
344.928932E-3
345.138931E-3
346.627808E-3
347.058678E-3
346.440125E-3
347.507858E-3
346.381187E-3
346.293640E-3
345.949173E-3
345.345497E-3
346.723366E-3
346.552849E-3
347.704124E-3
348.282623E-3
348.086357E-3
349.313736E-3
348.058319E-3
348.046875E-3
347.763634E-3
346.394348E-3
347.142220E-3
346.028709E-3
345.990372E-3
346.278763E-3
345.953751E-3
347.454071E-3
347.186279E-3
347.994804E-3
348.687172E-3
348.661423E-3
350.410652E-3
350.103951E-3
351.061249E-3
351.480103E-3
351.409721E-3
353.046227E-3
352.635956E-3
353.039360E-3
353.055382E-3
352.815056E-3
354.148865E-3
353.294563E-3
353.735733E-3
353.549767E-3
353.028488E-3
354.261017E-3
353.362083E-3
353.904533E-3
353.752899E-3
353.324890E-3
354.459000E-3
353.707123E-3
354.051590E-3
353.807831E-3
353.368950E-3
354.804039E-3
354.028702E-3
354.572868E-3
354.531097E-3
354.271889E-3
355.504990E-3
354.911613E-3
355.362511E-3
355.540466E-3
354.983711E-3
356.491470E-3
355.836868E-3
356.482887E-3
356.351280E-3
355.819702E-3
357.338333E-3
356.514931E-3
357.017899E-3
357.281685E-3
355.620003E-3
357.555771E-3
357.088852E-3
357.923126E-3
357.958031E-3
357.687378E-3
359.105301E-3
358.519936E-3
359.241486E-3
359.300995E-3
358.483887E-3
359.029198E-3
356.382751E-3
354.135704E-3
350.191498E-3
345.023918E-3
341.671371E-3
336.639977E-3
333.665085E-3
331.444931E-3
330.007553E-3
331.355667E-3
331.339073E-3
333.178139E-3
334.584045E-3
335.849190E-3
338.865852E-3
339.207458E-3
340.842247E-3
341.639900E-3
341.417313E-3
342.695618E-3
341.665649E-3
341.875076E-3
341.657639E-3
339.601135E-3
341.129494E-3
340.962410E-3
342.118263E-3
342.935944E-3
341.994667E-3
344.306374E-3
344.046593E-3
344.547844E-3
344.079781E-3
343.254089E-3
343.851471E-3
342.744255E-3
343.131065E-3
342.879295E-3
342.240715E-3
343.512154E-3
343.195724E-3
343.943024E-3
344.452286E-3
344.483185E-3
346.133423E-3
346.045303E-3
347.048378E-3
347.573090E-3
347.289276E-3
349.024773E-3
348.603630E-3
349.439049E-3
349.706841E-3
349.295998E-3
350.576019E-3
349.989510E-3
350.233269E-3
350.480461E-3
349.774933E-3
350.891876E-3
350.345993E-3
350.670433E-3
350.808907E-3
349.090576E-3
350.579453E-3
350.269890E-3
350.953674E-3
350.844383E-3
349.273682E-3
350.895309E-3
350.687599E-3
351.204872E-3
351.249504E-3
350.711632E-3
351.813698E-3
351.556778E-3
351.987076E-3
352.090073E-3
351.789665E-3
352.638245E-3
352.151299E-3
353.183556E-3
353.241348E-3
351.653481E-3
353.156090E-3
352.994728E-3
353.734016E-3
353.805542E-3
353.101158E-3
353.881073E-3
353.529739E-3
354.333115E-3
354.493332E-3
353.895950E-3
354.786301E-3
354.554558E-3
355.269814E-3
355.517006E-3
355.058098E-3
356.074905E-3
355.815125E-3
356.340981E-3
356.212807E-3
354.538536E-3
353.247643E-3
349.665070E-3
346.112251E-3
341.531754E-3
336.142731E-3
333.346939E-3
329.911423E-3
328.764153E-3
327.894402E-3
327.782822E-3
329.475403E-3
330.365753E-3
332.698059E-3
334.443855E-3
335.318184E-3
337.248802E-3
337.663651E-3
338.823509E-3
339.058685E-3
338.530540E-3
339.073563E-3
338.334846E-3
338.594627E-3
338.402367E-3
337.727737E-3
338.516235E-3
338.787460E-3
340.328979E-3
340.738106E-3
340.655708E-3
341.565514E-3
341.394997E-3
341.801262E-3
341.235352E-3
340.263748E-3
340.636826E-3
340.066910E-3
340.786743E-3
340.702629E-3
340.524101E-3
341.298866E-3
341.565514E-3
343.054962E-3
343.605995E-3
343.470955E-3
344.399071E-3
344.821358E-3
346.154022E-3
346.701050E-3
346.455002E-3
347.465515E-3
347.553062E-3
348.493767E-3
348.467445E-3
348.120689E-3
348.870850E-3
348.688889E-3
349.491119E-3
349.362946E-3
348.839378E-3
349.610138E-3
349.368668E-3
349.984932E-3
349.967194E-3
349.416733E-3
350.178337E-3
349.881935E-3
350.593185E-3
350.717926E-3
349.871635E-3
350.477028E-3
350.597763E-3
351.464653E-3
351.528168E-3
350.542259E-3
351.670647E-3
351.849174E-3
352.634811E-3
352.667427E-3
352.288055E-3
353.073692E-3
352.978134E-3
353.894234E-3
353.630447E-3
353.264809E-3
354.065323E-3
353.680229E-3
354.628372E-3
354.482460E-3
354.010391E-3
354.793739E-3
354.360008E-3
355.325890E-3
355.200005E-3
355.011749E-3
355.776215E-3
355.545616E-3
356.534958E-3
356.706047E-3
356.292915E-3
357.155800E-3
356.873131E-3
357.804108E-3
357.289124E-3
356.168175E-3
355.451202E-3
352.513504E-3
349.437904E-3
345.136642E-3
339.872932E-3
336.676025E-3
332.892036E-3
331.754494E-3
330.854416E-3
330.514526E-3
332.107544E-3
333.029938E-3
335.461235E-3
337.138939E-3
338.388062E-3
340.339279E-3
341.063690E-3
342.568588E-3
342.957115E-3
342.604065E-3
343.140793E-3
342.309952E-3
342.697334E-3
342.549706E-3
341.796684E-3
343.052101E-3
343.275833E-3
344.566154E-3
344.983864E-3
344.633102E-3
345.137787E-3
344.059181E-3
344.200516E-3
343.393135E-3
342.189789E-3
342.289352E-3
341.584969E-3
342.562866E-3
342.618942E-3
342.480469E-3
343.013191E-3
343.464661E-3
344.714355E-3
345.193863E-3
345.318604E-3
346.586037E-3
346.578598E-3
347.879791E-3
348.210526E-3
348.198509E-3
348.852539E-3
348.736382E-3
349.696541E-3
349.523735E-3
349.209023E-3
349.546051E-3
349.237633E-3
350.062752E-3
349.887085E-3
349.480247E-3
349.857903E-3
349.621582E-3
350.264740E-3
349.953461E-3
349.758911E-3
350.213242E-3
349.815559E-3
350.408363E-3
350.455284E-3
349.993515E-3
350.648117E-3
350.206947E-3
350.942230E-3
350.868416E-3
350.497627E-3
351.254654E-3
350.946236E-3
351.797104E-3
351.747894E-3
351.465225E-3
352.234840E-3
351.888084E-3
352.750969E-3
352.613640E-3
352.102661E-3
352.728081E-3
352.377892E-3
353.127480E-3
352.985001E-3
352.657700E-3
353.542900E-3
353.158379E-3
354.305077E-3
354.254150E-3
353.794098E-3
354.578018E-3
354.314232E-3
355.290985E-3
355.056381E-3
354.644394E-3
354.898453E-3
353.132057E-3
351.797676E-3
348.346138E-3
343.036652E-3
339.448929E-3
334.800911E-3
332.168770E-3
329.441071E-3
327.664375E-3
327.931023E-3
327.952194E-3
329.813004E-3
331.215477E-3
332.354164E-3
334.491348E-3
335.602570E-3
337.321472E-3
338.203812E-3
338.229561E-3
339.102173E-3
338.637543E-3
339.250946E-3
338.885307E-3
337.928581E-3
338.738251E-3
338.446999E-3
339.621735E-3
340.053749E-3
340.263176E-3
341.076279E-3
340.723801E-3
341.372681E-3
340.956116E-3
340.094376E-3
340.203094E-3
338.994598E-3
339.626312E-3
339.674950E-3
338.592911E-3
339.400291E-3
339.353943E-3
340.798187E-3
341.343498E-3
341.343498E-3
342.437553E-3
342.598915E-3
344.090080E-3
344.462013E-3
344.474602E-3
345.491982E-3
345.479965E-3
346.725082E-3
346.873856E-3
346.651840E-3
347.066689E-3
346.731377E-3
347.696114E-3
347.923279E-3
346.924782E-3
346.608353E-3
346.840096E-3
347.813416E-3
347.970200E-3
347.042084E-3
347.742462E-3
347.325325E-3
348.425102E-3
348.105812E-3
347.682381E-3
348.233414E-3
347.930717E-3
348.798180E-3
348.521233E-3
348.125267E-3
348.958969E-3
348.611641E-3
349.526024E-3
349.536324E-3
349.180412E-3
349.762344E-3
349.543190E-3
350.773430E-3
350.577164E-3
350.204659E-3
350.614357E-3
350.493622E-3
351.345634E-3
351.314735E-3
350.774574E-3
351.276970E-3
350.985146E-3
351.684380E-3
351.687813E-3
351.366806E-3
351.985931E-3
351.799965E-3
352.795029E-3
352.815056E-3
352.643394E-3
353.398705E-3
353.055954E-3
354.016113E-3
353.698540E-3
353.218460E-3
352.357292E-3
349.675369E-3
347.075844E-3
342.824364E-3
337.725449E-3
333.967781E-3
330.053329E-3
328.478622E-3
326.460457E-3
325.748634E-3
326.635551E-3
327.517319E-3
329.844475E-3
331.268692E-3
332.565308E-3
334.450722E-3
335.398293E-3
336.990738E-3
337.296867E-3
337.043953E-3
337.239075E-3
336.689186E-3
337.347794E-3
336.609077E-3
335.976791E-3
336.569595E-3
336.547279E-3
338.234138E-3
338.414955E-3
338.488197E-3
339.324188E-3
339.174843E-3
339.878082E-3
339.270401E-3
338.440704E-3
338.437843E-3
337.998390E-3
338.703918E-3
338.466454E-3
338.069344E-3
338.883018E-3
338.887024E-3
340.231133E-3
340.647697E-3
340.732956E-3
341.830444E-3
341.944885E-3
343.491554E-3
343.848610E-3
343.667221E-3
344.483185E-3
344.489479E-3
345.459938E-3
345.639610E-3
345.297432E-3
345.844460E-3
345.445061E-3
346.380043E-3
346.146584E-3
345.483398E-3
346.059036E-3
345.780373E-3
346.902466E-3
346.683311E-3
346.059608E-3
346.521378E-3
346.208954E-3
347.337914E-3
347.181129E-3
346.739388E-3
347.363091E-3
346.857262E-3
347.860336E-3
347.886658E-3
347.530174E-3
348.142433E-3
347.789955E-3
348.987007E-3
348.945808E-3
348.741531E-3
349.321747E-3
348.827934E-3
350.228119E-3
350.237846E-3
349.944878E-3
350.490189E-3
349.963760E-3
350.959396E-3
350.759697E-3
350.461006E-3
350.767708E-3
350.148582E-3
351.253510E-3
351.214027E-3
351.025772E-3
351.613426E-3
351.189423E-3
352.425957E-3
352.222824E-3
352.001381E-3
352.829933E-3
352.294922E-3
353.569221E-3
353.308296E-3
352.805901E-3
352.565002E-3
350.448990E-3
349.115181E-3
345.454788E-3
340.850258E-3
336.404800E-3
331.964493E-3
330.037880E-3
328.108978E-3
326.951408E-3
327.427483E-3
327.366257E-3
330.089378E-3
331.554794E-3
332.655144E-3
334.999466E-3
335.269547E-3
337.514877E-3
338.239288E-3
338.377762E-3
338.877296E-3
338.031006E-3
338.836670E-3
338.661003E-3
338.149452E-3
338.681602E-3
338.218117E-3
339.963341E-3
340.537834E-3
340.721512E-3
341.428757E-3
340.786743E-3
341.757202E-3
341.369820E-3
340.368462E-3
340.169334E-3
339.254951E-3
340.368462E-3
340.064049E-3
340.181351E-3
340.705490E-3
340.363884E-3
342.103958E-3
342.374611E-3
342.679596E-3
343.845749E-3
343.607712E-3
345.364952E-3
345.585251E-3
345.734596E-3
346.665573E-3
346.171761E-3
347.819710E-3
347.937012E-3
347.784805E-3
347.611427E-3
347.335052E-3
348.723221E-3
348.688316E-3
348.523521E-3
348.914909E-3
348.030853E-3
349.353790E-3
348.904610E-3
348.772430E-3
349.467087E-3
348.829651E-3
350.086212E-3
350.047302E-3
349.956322E-3
350.436974E-3
349.729156E-3
350.963974E-3
350.729942E-3
350.539398E-3
351.177406E-3
350.579453E-3
351.813698E-3
351.759911E-3
351.675224E-3
352.088356E-3
351.715851E-3
353.053093E-3
352.991295E-3
352.701187E-3
353.173256E-3
352.431107E-3
353.673363E-3
353.448486E-3
353.235626E-3
353.747177E-3
353.058815E-3
354.224396E-3
353.931427E-3
353.849030E-3
354.536819E-3
354.047012E-3
355.093002E-3
355.396843E-3
355.337334E-3
355.867195E-3
355.496979E-3
356.784439E-3
356.660843E-3
356.501198E-3
356.857681E-3
355.170250E-3
354.436111E-3
351.282120E-3
347.344208E-3
343.562508E-3
338.449287E-3
335.842323E-3
333.095741E-3
331.297874E-3
331.563377E-3
331.444359E-3
333.471680E-3
334.938812E-3
336.374474E-3
338.468170E-3
339.406586E-3
341.734314E-3
342.759132E-3
343.032646E-3
343.984222E-3
343.276978E-3
344.108963E-3
343.674660E-3
343.437767E-3
343.729019E-3
342.994308E-3
344.672012E-3
345.095444E-3
345.035934E-3
345.593834E-3
344.630814E-3
345.016479E-3
344.027710E-3
343.169975E-3
342.807198E-3
341.742325E-3
342.664719E-3
342.365456E-3
342.033577E-3
342.912483E-3
342.749405E-3
344.214821E-3
344.678879E-3
345.021629E-3
346.109962E-3
345.899391E-3
347.301865E-3
347.724724E-3
348.185921E-3
348.714066E-3
348.255730E-3
349.544907E-3
349.564934E-3
349.219894E-3
349.898529E-3
348.918343E-3
349.895668E-3
349.774361E-3
349.530602E-3
350.003242E-3
349.250793E-3
350.179482E-3
349.889946E-3
349.769211E-3
350.227547E-3
348.885727E-3
350.179482E-3
350.019836E-3
350.154877E-3
350.580597E-3
349.694824E-3
350.742531E-3
350.759125E-3
350.921059E-3
351.292419E-3
350.531960E-3
351.504707E-3
351.497269E-3
351.185417E-3
351.953888E-3
351.396561E-3
352.505493E-3
352.351570E-3
352.484894E-3
352.889442E-3
351.539612E-3
352.788734E-3
