Notes :


2023-11-13 ¿ÀÀü 12:27:55
Volts
Ch : LED 2
0.913854218
0.913874817
0.913703156
0.913783264
0.913764954
0.913521194
0.913566399
0.913474846
0.913393593
0.913324356
0.913153267
0.913144112
0.912982178
0.912859726
0.912902069
0.912693787
0.912800789
0.912965012
0.91342392
0.914759445
0.916682053
0.919441795
0.92236805
0.925156975
0.927575684
0.929403877
0.930640411
0.931152534
0.931098747
0.930974579
0.930320549
0.929961777
0.929092026
0.928313828
0.927674103
0.927145386
0.92681694
0.92641983
0.926231003
0.926265335
0.926416969
0.92646904
0.926487923
0.926260757
0.926189804
0.925463676
0.924860573
0.924134445
0.923729897
0.923490143
0.923067856
0.923309898
0.92343235
0.923579407
0.92383461
0.923736763
0.923871231
0.923758507
0.923541069
0.923173141
0.922816658
0.922513962
0.922101402
0.921686554
0.921486282
0.920939255
0.920498657
0.920087814
0.919603157
0.919469261
0.919120789
0.919124794
0.918888474
0.918590927
0.918423271
0.91824131
0.91810112
0.918038177
0.917847633
0.917907143
0.917703438
0.917538071
0.917420197
0.917196465
0.917175865
0.91708374
0.917111206
0.916887474
0.916641426
0.91671524
0.916561317
0.916559601
0.916538429
0.916388512
0.916361618
0.916255188
0.916238022
0.916098976
0.915946198
0.915717888
0.915464401
0.915261269
0.915067863
0.914642715
0.914500237
0.914087677
0.913999557
0.91368885
0.913496017
0.913464546
0.913492584
0.914171791
0.915578842
0.917693138
0.920336723
0.922953415
0.925621033
0.927692986
0.929063988
0.929933739
0.930287361
0.930106544
0.929683685
0.928963852
0.92851181
0.927753639
0.927215767
0.926471329
0.926002121
0.925934601
0.925477982
0.925560951
0.925580978
0.925460815
0.925655365
0.925607872
0.925432777
0.925065422
0.924427414
0.923871803
0.923167419
0.92285099
0.922638702
0.922374344
0.922491074
0.922510529
0.922920799
0.92323494
0.923256111
0.923332787
0.923267555
0.923293304
0.923041534
0.92277832
0.922583771
0.922151184
0.92185936
0.921454811
0.920979881
0.92074585
0.92028923
0.920133591
0.919869804
0.919613457
0.919419479
0.919112206
0.919109344
0.918893623
0.918759727
0.918741989
0.918513107
0.918271637
0.918157768
0.917786407
0.917766953
0.917554665
0.91741333
0.917258263
0.917188454
0.917233658
0.916922379
0.916973877
0.916786194
0.916552162
0.916649437
0.916433144
0.916390228
0.916314125
0.916074944
0.916184807
0.915996552
0.915846634
0.915678978
0.915485001
0.915431786
0.915100479
0.91486187
0.914623833
0.914223862
0.914119148
0.913739777
0.913627052
0.913368988
0.913128662
0.913338661
0.913823891
0.915179443
0.917098618
0.919628906
0.9225214
0.925237083
0.927496719
0.929184151
0.930254173
0.930996895
0.930801773
0.930646133
0.93013916
0.92949543
0.928943825
0.928284073
0.927817726
0.927359962
0.927003479
0.927020073
0.926910782
0.927032661
0.926968575
0.927153397
0.927240944
0.927008629
0.92690506
0.926662445
0.926015854
0.925523186
0.924755287
0.924277496
0.923981667
0.923763084
0.923944473
0.923977661
0.924155617
0.924379921
0.924366188
0.924428558
0.924349594
0.924165916
0.923888969
0.923504448
0.923517609
0.922960281
0.922718811
0.922407532
0.921966362
0.921724892
0.921325493
0.921136093
0.920802498
0.920523262
0.920581055
0.920272064
0.920134735
0.919846916
0.91957283
0.91952877
0.919192314
0.919183159
0.919020653
0.918808365
0.918772316
0.918576622
0.918568611
0.918463898
0.918279076
0.918272209
0.917987251
0.917993546
0.917835045
0.917863083
0.917764091
0.917568398
0.917617607
0.917493439
0.917346954
0.917473984
0.917191887
0.917037392
0.916914368
0.916598511
0.916518974
0.916207695
0.915860939
0.915625763
0.915183449
0.915227509
0.914776611
0.914550018
0.914565468
0.914490509
0.914719963
0.915383148
0.916925812
0.919028664
0.921565819
0.924344444
0.926807213
0.928720093
0.930150604
0.930753708
0.93111248
0.93094883
0.930455017
0.930076218
0.929521179
0.928878021
0.928254318
0.927904129
0.927482414
0.927152824
0.927164268
0.927056122
0.927163124
0.927173424
0.927076149
0.927259827
0.926976013
0.926732254
0.926011276
0.925302315
0.92473011
0.924202538
0.924013138
0.924061775
0.92399025
0.924354744
0.924445724
0.924748421
0.924805641
0.924649429
0.924755287
0.924499512
0.924225426
0.923980522
0.923606873
0.923446655
0.922926521
0.922578049
0.922366333
0.922172928
0.921993828
0.921520615
0.921431923
0.921126938
0.920802498
0.92086544
0.920575905
0.920366478
0.920129013
0.920026588
0.919858932
0.919777107
0.919508743
0.919521332
0.919320488
0.919359398
0.919052696
0.918997765
0.918819237
0.918660736
0.918620682
0.918507385
0.918467331
0.918459892
0.918312263
0.918286514
0.918010712
0.91805191
0.917933464
0.917657661
0.917539215
0.917175865
0.916890907
0.91660881
0.916312408
0.916140747
0.915990257
0.915836334
0.91574707
0.915618896
0.915637779
0.916083527
0.91708374
0.918742561
0.920837975
0.923492432
0.925936317
0.927937889
0.929545212
0.930526543
0.930942535
0.931010628
0.930613518
0.930293655
0.929756927
0.929227066
0.92856102
0.928108978
0.927821732
0.927373695
0.927299309
0.927115059
0.927085304
0.927161407
0.927162552
0.927230644
0.926920509
0.926545143
0.926081085
0.925294876
0.924707794
0.924205971
0.923974228
0.92394104
0.923938751
0.924199104
0.924410248
0.924639702
0.924795341
0.924799347
0.924771309
0.924603081
0.924559021
0.92426033
0.923811722
0.923822594
0.923268127
0.923014641
0.922636414
0.922170639
0.921869087
0.921526909
0.921403885
0.921213341
0.920898056
0.920853996
0.920749283
0.92051754
0.920524979
0.920190811
0.920183372
0.91998539
0.919834328
0.919656944
0.919308472
0.919307899
0.919077873
0.918972588
0.918972015
0.918704224
0.918646431
0.91845932
0.918336868
0.918360329
0.918063927
0.91803875
0.917865372
0.917902565
0.917770386
0.917588997
0.917551231
0.917304039
0.917092323
0.917010498
0.916743279
0.916506958
0.916207123
0.915920448
0.915701294
0.915298462
0.915036964
0.91481781
0.914780045
0.915010643
0.914944839
0.915852356
0.9174963
0.919828033
0.922464752
0.925011063
0.927492142
0.929336357
0.930578041
0.931212616
0.931303024
0.931351089
0.930981445
0.93054142
0.930007553
0.929386139
0.929033089
0.928643417
0.928417969
0.928414536
0.928388786
0.928437424
0.928575325
0.928589058
0.928788185
0.92875042
0.928807068
0.928411674
0.927964783
0.927356529
0.926387215
0.925975227
0.92547226
0.925201035
0.925116348
0.925103188
0.925267982
0.925370979
0.925401306
0.92537384
0.925240517
0.925242805
0.924975014
0.924771881
0.924488068
0.924007416
0.923823166
0.92347126
0.923085594
0.922893333
0.922547722
0.922424698
0.922105408
0.921885109
0.921715736
0.921479988
0.921216202
0.921060562
0.920835114
0.92069664
0.920336151
0.920294952
0.920088959
0.919881248
0.919623184
0.919357109
0.91935997
0.919107056
0.919176865
0.91900692
0.918751717
0.918630981
0.918361473
0.91815834
0.918133163
0.917872238
0.917920876
0.917774391
0.917675972
0.917741203
0.917522049
0.917503738
0.917171288
0.917115211
0.917030525
0.916713524
0.916569328
0.916252899
0.915917587
0.915728188
0.915404892
0.915151978
0.914943123
0.914845848
0.914876175
0.915073013
0.915959358
0.917448235
0.919670677
0.922267914
0.924811363
0.927078438
0.92897644
0.93002243
0.930650139
0.930711365
0.930618095
0.930275917
0.929722023
0.929312325
0.928627968
0.928317833
0.928029442
0.927622604
0.927579689
0.927615166
0.92787323
0.927759361
0.927865791
0.927969933
0.927866936
0.927744484
0.927243805
0.926584625
0.926029015
0.925374985
0.924985886
0.924682617
0.924464035
0.924503517
0.924532127
0.92483654
0.924789047
0.924924088
0.924855423
0.924688911
0.92467289
0.924419403
0.924057198
0.923803711
0.923331642
0.92313652
0.922756004
0.922408676
0.922092819
0.921731758
0.921672821
0.921271706
0.920934105
0.920868874
0.920557594
0.920412254
0.920171928
0.91998024
0.919894981
0.919620895
0.919537926
0.919347382
0.919132805
0.918968582
0.918647003
0.918701363
0.918479919
0.918394661
0.918326569
0.918145752
0.91812973
0.917980957
0.917923164
0.917835617
0.917720032
0.91765995
0.91756897
0.917363548
0.917190742
0.916948128
0.916857147
0.916604805
0.916342163
0.916236877
0.915759659
0.915825462
0.915430641
0.915070152
0.915031815
0.914770889
0.914772606
0.914875603
0.915324211
0.916540146
0.918597221
0.921054268
0.923609734
0.925811005
0.927840614
0.929034233
0.929784393
0.929996109
0.929913139
0.9297472
0.929180717
0.928637695
0.928026581
0.927514458
0.927187157
0.926893616
0.926535988
0.926403236
0.926225853
0.926512527
0.92646904
0.926534843
0.926304245
0.925976372
0.925735474
0.925033379
0.924385071
0.923743629
0.923240089
0.923056412
0.922813225
0.923034668
0.923030663
0.923107338
0.923407173
0.923384857
0.923490715
0.923339081
0.923104477
0.923101616
0.922708511
0.922408104
0.922055626
0.921593285
0.921403313
0.920855713
0.920478058
0.920176506
0.91992588
0.919675827
0.919355965
0.919171143
0.918990326
0.918729401
0.918626976
0.918470764
0.918442154
0.91831398
0.917994118
0.917950058
0.917633057
0.917456818
0.917354965
0.917163277
0.917152977
0.916922951
0.916778183
0.916845131
0.916581345
0.916594505
0.916322136
0.916160202
0.915929031
0.915826035
0.915857506
0.915525627
0.915494728
0.915315628
0.915095329
0.91513195
0.914873886
0.914856148
0.91468277
0.914485931
0.914245033
0.914035034
0.913750076
0.913484001
0.913062859
0.913002205
0.912712097
0.912447166
0.912269211
0.912206841
0.912438583
0.913196182
0.914929962
0.917159843
0.919776535
0.922681046
0.925262833
0.926992035
0.928369904
0.929033661
0.929467392
0.929240799
0.928898621
0.928504944
0.9279459
0.92756424
0.926919365
0.92648735
0.926232147
0.926026726
0.926156616
0.926047897
0.92625618
0.926271057
0.926564598
0.926725388
0.926412964
0.926254463
0.925782394
0.925011063
0.924456024
0.923677826
0.923328781
0.923067856
0.922747421
0.922790909
0.922730255
0.922968864
0.922974014
0.923022652
0.923083305
0.922769165
0.922756004
0.922491074
0.922320557
0.922157478
0.92162075
0.92124424
0.920915222
0.920565033
0.920297813
0.919793129
0.91966095
0.919488144
0.91921978
0.919056129
0.918783188
0.918657875
0.918467331
0.918026161
0.917963219
0.91760273
0.917598152
0.917443657
0.917116928
0.917071152
0.916805077
0.916729546
0.91664772
0.916432571
0.916337013
0.91609211
0.915999985
0.915812302
0.915647507
0.915558815
0.915494156
0.915308762
0.91509304
0.914972878
0.914832687
0.914571762
0.914549446
0.914396095
0.914282799
0.914291954
0.91396637
0.914036179
0.913855934
0.91367569
0.913641357
0.913356972
0.913245964
0.913006783
0.912684059
0.912639999
0.912151909
0.911984825
0.911840057
0.911634636
0.911757088
0.911800575
0.91268692
0.91414547
0.916196251
0.918942261
0.921645355
0.924228287
0.926265335
0.927479553
0.928329849
0.928425407
0.928503227
0.928164482
0.927477264
0.926875305
0.926195526
0.925693703
0.925356674
0.924892616
0.924794769
0.924705505
0.924676323
0.9247118
0.924702072
0.924982452
0.924830246
0.924723816
0.924349594
0.923789978
0.923114204
0.922469902
0.922053909
0.921570396
0.921410751
0.921436501
0.921604729
0.921679687
0.921906281
0.92189827
0.921957207
0.921858788
0.92178669
0.921557808
0.921153831
0.920917511
0.920639992
0.920209694
0.919991112
0.919485283
0.919232941
0.918943977
0.918727684
0.918455315
0.918086815
0.917762375
0.917466545
0.917330933
0.917139816
0.916933823
0.916789055
0.916537285
0.916476059
0.916300392
0.916042328
0.91599369
0.915839195
0.915671539
0.915630913
0.915418625
0.915316772
0.915042114
0.914872742
0.91472168
0.914481354
0.914473915
0.914372063
0.914282799
0.914075089
0.913846207
0.913902855
0.913685989
0.913620758
0.913493156
0.913140106
0.913106918
0.912931252
0.912804222
0.912724113
0.912370491
0.912285233
0.911984253
0.911656952
0.911434937
0.911048126
0.91077404
0.910564041
0.910526276
0.910493088
0.910453033
0.911202049
0.912316132
0.914340019
0.916901207
0.91954422
0.922375488
0.924371338
0.925958633
0.926988602
0.927318764
0.927560806
0.927161407
0.926674461
0.92612114
0.925395584
0.92490921
0.924217987
0.923805428
0.923506737
0.923332787
0.923394012
0.923328781
0.923363686
0.923536491
0.92346096
0.923645782
0.923309326
0.92267704
0.922064209
0.921281433
0.920801353
0.92025547
0.919993401
0.919944191
0.919976234
0.920208549
0.920157051
0.920427132
0.920582199
0.920369339
0.920407104
0.92016964
0.919948196
0.919755936
0.919373703
0.919125366
0.918703651
0.918214417
0.917785835
0.917388153
0.917162132
0.916907501
0.916577911
0.916360474
0.916006279
0.91584549
0.91584549
