Notes :


2023-11-10 ¿ÀÈÄ 10:02:38
Volts
Ch : LED 2,
329.022789E-3
328.964424E-3
328.811073E-3
328.698921E-3
328.630257E-3
328.555870E-3
328.550720E-3
328.441429E-3
328.462029E-3
328.443146E-3
328.420258E-3
328.427696E-3
328.561020E-3
328.425407E-3
328.246880E-3
328.230858E-3
328.191948E-3
328.072357E-3
328.088951E-3
328.030014E-3
328.074074E-3
328.062057E-3
327.949333E-3
327.928162E-3
327.902412E-3
327.948761E-3
327.916145E-3
327.889824E-3
327.861214E-3
327.818298E-3
328.035736E-3
327.883530E-3
327.737045E-3
327.680969E-3
327.549362E-3
327.508163E-3
327.471542E-3
327.387428E-3
327.415466E-3
327.135086E-3
327.092743E-3
327.148247E-3
327.077866E-3
327.230072E-3
327.384567E-3
327.916145E-3
329.211617E-3
330.479050E-3
332.386780E-3
334.265327E-3
336.146736E-3
337.810707E-3
338.876152E-3
339.472961E-3
339.433479E-3
339.197159E-3
338.497353E-3
337.580109E-3
336.726952E-3
335.915565E-3
335.370827E-3
334.886169E-3
334.501648E-3
334.469032E-3
334.342003E-3
334.336853E-3
334.463310E-3
334.481621E-3
334.716797E-3
334.826660E-3
334.801483E-3
334.677315E-3
334.290504E-3
333.963203E-3
333.457947E-3
332.962990E-3
332.878304E-3
332.709503E-3
332.773018E-3
332.887459E-3
333.014488E-3
333.213043E-3
333.364105E-3
333.427620E-3
333.392143E-3
333.306885E-3
333.268547E-3
332.873154E-3
332.767296E-3
332.501221E-3
332.330704E-3
332.223701E-3
331.946182E-3
331.867790E-3
331.686974E-3
331.506157E-3
331.293869E-3
331.107330E-3
331.121063E-3
330.937958E-3
330.766869E-3
330.778885E-3
330.614662E-3
330.576324E-3
330.445290E-3
330.333138E-3
330.295372E-3
330.112839E-3
330.061340E-3
330.121422E-3
330.039597E-3
330.104828E-3
329.958916E-3
329.970360E-3
329.950905E-3
329.815292E-3
329.896545E-3
329.786110E-3
329.807281E-3
329.806137E-3
329.740906E-3
329.802132E-3
329.612160E-3
329.654503E-3
329.655647E-3
329.672813E-3
329.634476E-3
329.656792E-3
329.631042E-3
329.621315E-3
329.472542E-3
329.512024E-3
329.445076E-3
329.457664E-3
329.284286E-3
329.269409E-3
329.316330E-3
329.090309E-3
328.916359E-3
328.834534E-3
328.671455E-3
328.835678E-3
328.791618E-3
328.894615E-3
329.051971E-3
329.660225E-3
330.773163E-3
332.116699E-3
333.940315E-3
335.726738E-3
337.274551E-3
338.935089E-3
339.900398E-3
340.517807E-3
340.594482E-3
340.197945E-3
339.553642E-3
338.554573E-3
337.763786E-3
337.011337E-3
336.388779E-3
336.055183E-3
335.676956E-3
335.505295E-3
335.292435E-3
335.223198E-3
335.369682E-3
335.251808E-3
335.409737E-3
335.323906E-3
335.069847E-3
334.894180E-3
334.395790E-3
333.952904E-3
333.488846E-3
332.968712E-3
332.850266E-3
332.843971E-3
332.744980E-3
332.802773E-3
332.856560E-3
333.147812E-3
333.116341E-3
333.222771E-3
333.221054E-3
333.007622E-3
332.892036E-3
332.579041E-3
332.331276E-3
332.097816E-3
331.802559E-3
331.528473E-3
331.186867E-3
330.939674E-3
330.741692E-3
330.457306E-3
330.399513E-3
330.237007E-3
330.059624E-3
329.974937E-3
329.681396E-3
329.594994E-3
329.326630E-3
329.308319E-3
329.297447E-3
329.171562E-3
329.155540E-3
329.058266E-3
328.970718E-3
328.907776E-3
328.802490E-3
328.671455E-3
328.625107E-3
328.676605E-3
328.706360E-3
328.566170E-3
328.591919E-3
328.450584E-3
328.393364E-3
328.387070E-3
328.205681E-3
328.330421E-3
328.297234E-3
328.266335E-3
328.269196E-3
328.164482E-3
328.230286E-3
328.071785E-3
328.040886E-3
327.902985E-3
327.902412E-3
327.915573E-3
327.813721E-3
327.798843E-3
327.856636E-3
327.761650E-3
327.753067E-3
327.566528E-3
327.726746E-3
327.498436E-3
327.386856E-3
327.316475E-3
327.224922E-3
327.116203E-3
327.156830E-3
327.024078E-3
327.234650E-3
327.530479E-3
328.459167E-3
329.825020E-3
331.555939E-3
333.578110E-3
335.455513E-3
337.161827E-3
338.404083E-3
339.283562E-3
339.635468E-3
339.463234E-3
338.902473E-3
338.148308E-3
337.256813E-3
336.568451E-3
335.844040E-3
335.186577E-3
334.869576E-3
334.616089E-3
334.491348E-3
334.444427E-3
334.495926E-3
334.650421E-3
334.614372E-3
334.728241E-3
334.759140E-3
334.675598E-3
334.441566E-3
333.910561E-3
333.465385E-3
332.894897E-3
332.401085E-3
332.116699E-3
331.806564E-3
331.741333E-3
331.852913E-3
331.858063E-3
331.975365E-3
331.945038E-3
332.041740E-3
332.147598E-3
332.131577E-3
331.993675E-3
331.716728E-3
331.570244E-3
331.212044E-3
330.969429E-3
330.763435E-3
330.461311E-3
330.300522E-3
330.101967E-3
329.834175E-3
329.672241E-3
329.391861E-3
329.359245E-3
329.097176E-3
328.868866E-3
328.851128E-3
328.748703E-3
328.863716E-3
328.642845E-3
328.647995E-3
328.536415E-3
328.276634E-3
328.268051E-3
328.185654E-3
328.098679E-3
328.024864E-3
328.078079E-3
328.018570E-3
327.945900E-3
327.951050E-3
327.923012E-3
327.838326E-3
327.856636E-3
327.774239E-3
327.697563E-3
327.552795E-3
327.422333E-3
327.490997E-3
327.484131E-3
327.428055E-3
327.446938E-3
327.334213E-3
327.381706E-3
327.327919E-3
327.355957E-3
327.313614E-3
327.130508E-3
327.138519E-3
327.048683E-3
327.014923E-3
327.033806E-3
326.885605E-3
326.897049E-3
326.879883E-3
326.749992E-3
326.708794E-3
326.477051E-3
326.446152E-3
326.342010E-3
326.395226E-3
326.547432E-3
326.567459E-3
327.100182E-3
327.999115E-3
329.326057E-3
331.029510E-3
332.904053E-3
334.741974E-3
336.340714E-3
337.554359E-3
338.338852E-3
338.595772E-3
338.503647E-3
338.015556E-3
337.215614E-3
336.441422E-3
335.553360E-3
334.994316E-3
334.483910E-3
334.130859E-3
334.023285E-3
333.820152E-3
333.864784E-3
333.938026E-3
334.122276E-3
334.317398E-3
334.434128E-3
334.574318E-3
334.428406E-3
333.998108E-3
333.575821E-3
333.057976E-3
332.722092E-3
332.381630E-3
332.201385E-3
332.238579E-3
332.458878E-3
332.607651E-3
332.733536E-3
332.776451E-3
332.951546E-3
333.014488E-3
333.007622E-3
332.901764E-3
332.669449E-3
332.510948E-3
332.251167E-3
332.230568E-3
332.139587E-3
331.854630E-3
331.735611E-3
331.424904E-3
331.155396E-3
331.014061E-3
330.772591E-3
330.708504E-3
330.509949E-3
330.492783E-3
330.437851E-3
330.223846E-3
330.216408E-3
329.946327E-3
330.031586E-3
330.079079E-3
329.983521E-3
329.962921E-3
329.811859E-3
329.975510E-3
329.856491E-3
329.764938E-3
329.719734E-3
329.637337E-3
329.619026E-3
329.603577E-3
329.553795E-3
329.644775E-3
329.630470E-3
329.582977E-3
329.653931E-3
329.651642E-3
329.566383E-3
329.379845E-3
329.386139E-3
329.334641E-3
329.272270E-3
329.307747E-3
329.275703E-3
329.299164E-3
329.282570E-3
329.182434E-3
329.240227E-3
329.077721E-3
328.975868E-3
328.843689E-3
328.692627E-3
328.608513E-3
328.530121E-3
328.746414E-3
328.656006E-3
328.575897E-3
328.885460E-3
329.101753E-3
329.839897E-3
330.941391E-3
332.532120E-3
334.224701E-3
335.873795E-3
337.569237E-3
338.886452E-3
339.682388E-3
340.193939E-3
339.995956E-3
339.654922E-3
338.841820E-3
338.037872E-3
337.322044E-3
336.565590E-3
336.048889E-3
335.532761E-3
335.061836E-3
335.022926E-3
334.855843E-3
334.936523E-3
334.978294E-3
334.881020E-3
334.953117E-3
334.886169E-3
334.613800E-3
334.178925E-3
333.552361E-3
333.121490E-3
332.493782E-3
332.409096E-3
332.486916E-3
332.478905E-3
332.672310E-3
332.751274E-3
332.971001E-3
333.044243E-3
332.991028E-3
333.140945E-3
332.862282E-3
332.711220E-3
332.481766E-3
332.067490E-3
331.896973E-3
331.662369E-3
331.419182E-3
331.185722E-3
331.125069E-3
330.954552E-3
330.550003E-3
330.363464E-3
330.158615E-3
329.806709E-3
329.661942E-3
329.412460E-3
329.310036E-3
329.346657E-3
329.201317E-3
329.219055E-3
329.140663E-3
329.102325E-3
328.990173E-3
328.847694E-3
328.705788E-3
328.572464E-3
328.527260E-3
328.510094E-3
328.425407E-3
328.498077E-3
328.472328E-3
328.511810E-3
328.565025E-3
328.323555E-3
328.398514E-3
328.292084E-3
328.373909E-3
328.305244E-3
328.205681E-3
328.272057E-3
328.126144E-3
328.123283E-3
328.079224E-3
328.084946E-3
328.118134E-3
327.940178E-3
327.914429E-3
327.880669E-3
327.813148E-3
327.802277E-3
327.713585E-3
327.672386E-3
327.565956E-3
327.366257E-3
327.311325E-3
327.189445E-3
327.099037E-3
327.127647E-3
327.184296E-3
327.535057E-3
328.133583E-3
329.351807E-3
330.991173E-3
332.731247E-3
334.646416E-3
336.338425E-3
337.780380E-3
338.907051E-3
339.331627E-3
339.419746E-3
338.897324E-3
338.255310E-3
337.460518E-3
336.594200E-3
335.946465E-3
335.279274E-3
334.847260E-3
334.683609E-3
334.501648E-3
334.501076E-3
334.482193E-3
334.523964E-3
334.652710E-3
334.620667E-3
334.717369E-3
334.661865E-3
334.463882E-3
334.041595E-3
333.417320E-3
332.949257E-3
332.407379E-3
332.087517E-3
331.941032E-3
331.727600E-3
332.001686E-3
331.878090E-3
331.946182E-3
332.119560E-3
332.187653E-3
332.350731E-3
332.229996E-3
332.057190E-3
332.011986E-3
331.663513E-3
331.531334E-3
331.225204E-3
330.900192E-3
330.653000E-3
330.472183E-3
330.363464E-3
330.069923E-3
329.887962E-3
329.692841E-3
329.492569E-3
329.451370E-3
329.225922E-3
329.153824E-3
329.059982E-3
328.883171E-3
328.856850E-3
328.759003E-3
328.665733E-3
328.562737E-3
328.507805E-3
328.578758E-3
328.380775E-3
328.381348E-3
328.399086E-3
328.336143E-3
328.234863E-3
328.093529E-3
328.062630E-3
328.098106E-3
328.037453E-3
328.123283E-3
328.069496E-3
328.056908E-3
328.012276E-3
327.912712E-3
327.909279E-3
327.840042E-3
327.781105E-3
327.805138E-3
327.754211E-3
327.756500E-3
327.639771E-3
327.557373E-3
327.655792E-3
327.517891E-3
327.591133E-3
327.416039E-3
327.341652E-3
327.347374E-3
327.144241E-3
327.108192E-3
327.025795E-3
326.894760E-3
326.926231E-3
326.916504E-3
327.325630E-3
327.880669E-3
328.890610E-3
330.291939E-3
331.887817E-3
333.920860E-3
335.529327E-3
337.019920E-3
338.199806E-3
338.713074E-3
338.834381E-3
338.541412E-3
337.854767E-3
337.253380E-3
336.431122E-3
336.044884E-3
335.419464E-3
335.005760E-3
334.836960E-3
334.522820E-3
334.513664E-3
334.563446E-3
334.597778E-3
334.766006E-3
334.879303E-3
334.996605E-3
334.882736E-3
334.669876E-3
334.342003E-3
333.737755E-3
333.365822E-3
333.007622E-3
332.712364E-3
332.608795E-3
332.519531E-3
332.711792E-3
332.901764E-3
333.090591E-3
333.226204E-3
333.128357E-3
333.341217E-3
333.250237E-3
333.186150E-3
333.084869E-3
332.853699E-3
332.604790E-3
332.370186E-3
332.166481E-3
331.919289E-3
331.717300E-3
331.651497E-3
331.497574E-3
331.321335E-3
331.303596E-3
331.098175E-3
330.966568E-3
330.884743E-3
330.747414E-3
330.626106E-3
330.410385E-3
330.419540E-3
330.318260E-3
330.292511E-3
330.373192E-3
330.115700E-3
330.297089E-3
330.372047E-3
330.283928E-3
330.268478E-3
330.186653E-3
330.167198E-3
330.117989E-3
330.148315E-3
330.083656E-3
329.980087E-3
329.973221E-3
329.985237E-3
329.866791E-3
329.988098E-3
329.952621E-3
330.067062E-3
330.023575E-3
329.991531E-3
329.872513E-3
329.682541E-3
329.729462E-3
329.632759E-3
329.588127E-3
329.557800E-3
329.446793E-3
329.365540E-3
329.110336E-3
329.075432E-3
329.038811E-3
328.963280E-3
329.050255E-3
329.047966E-3
329.164124E-3
329.533195E-3
330.192375E-3
331.485558E-3
332.995033E-3
334.693909E-3
336.487770E-3
338.013268E-3
339.263535E-3
340.039444E-3
340.165901E-3
340.201378E-3
339.704704E-3
338.994026E-3
338.245583E-3
337.505722E-3
336.884308E-3
336.357880E-3
335.999680E-3
335.791397E-3
335.572243E-3
335.619736E-3
335.495567E-3
335.657501E-3
335.567093E-3
335.437202E-3
335.348511E-3
334.932518E-3
334.546852E-3
334.022141E-3
333.464813E-3
333.209610E-3
332.920647E-3
333.003044E-3
333.030510E-3
332.963562E-3
333.214760E-3
333.318329E-3
333.466530E-3
333.416176E-3
333.312035E-3
333.223915E-3
332.932663E-3
332.885170E-3
332.552147E-3
332.188225E-3
332.005119E-3
331.653214E-3
331.522751E-3
331.235504E-3
330.941963E-3
330.828094E-3
330.478477E-3
330.357170E-3
330.180931E-3
329.944611E-3
329.896545E-3
329.704285E-3
329.626465E-3
329.568672E-3
329.411316E-3
329.426193E-3
329.192734E-3
329.168701E-3
329.108620E-3
329.005051E-3
329.065704E-3
328.896332E-3
328.911209E-3
328.761292E-3
328.625107E-3
328.584480E-3
328.587341E-3
328.610802E-3
328.523254E-3
328.547859E-3
328.575897E-3
328.428841E-3
328.520966E-3
328.448868E-3
328.446579E-3
328.411102E-3
328.250313E-3
328.270340E-3
328.218269E-3
328.125572E-3
328.150177E-3
327.957344E-3
327.940750E-3
327.863503E-3
327.778816E-3
327.750778E-3
327.598000E-3
327.493286E-3
327.359962E-3
327.212334E-3
327.273560E-3
327.112198E-3
327.323341E-3
327.568817E-3
327.960205E-3
329.072571E-3
330.392075E-3
332.080650E-3
333.829880E-3
335.460663E-3
337.224770E-3
338.326836E-3
338.970566E-3
339.209747E-3
338.929367E-3
338.552284E-3
337.888527E-3
337.110901E-3
336.357307E-3
335.653496E-3
335.292435E-3
334.925079E-3
334.788895E-3
334.763145E-3
334.664726E-3
334.808350E-3
334.884453E-3
334.969139E-3
334.988594E-3
334.953690E-3
334.765434E-3
334.291649E-3
333.734894E-3
333.114624E-3
332.541847E-3
332.277489E-3
332.020569E-3
331.969643E-3
331.905556E-3
331.941032E-3
332.113838E-3
332.220840E-3
332.304382E-3
332.353020E-3
332.279778E-3
332.227707E-3
331.941605E-3
331.808853E-3
331.550217E-3
331.319618E-3
331.169128E-3
330.836678E-3
330.790329E-3
330.520248E-3
330.233002E-3
330.204391E-3
329.949188E-3
329.853058E-3
329.607010E-3
329.497147E-3
329.418182E-3
329.357529E-3
329.314041E-3
329.233360E-3
329.074287E-3
329.125214E-3
329.003334E-3
328.950119E-3
328.812218E-3
328.753853E-3
328.899765E-3
328.789902E-3
328.826523E-3
328.868866E-3
328.725243E-3
328.836250E-3
328.595352E-3
328.519821E-3
328.572464E-3
328.304100E-3
328.500938E-3
328.449440E-3
328.439140E-3
328.519821E-3
328.357315E-3
328.367043E-3
328.258324E-3
328.186226E-3
328.158760E-3
328.064919E-3
328.139877E-3
328.010559E-3
327.933884E-3
327.968216E-3
327.845764E-3
327.852058E-3
327.688980E-3
327.664375E-3
327.587128E-3
327.394295E-3
327.249527E-3
327.156258E-3
327.061844E-3
327.163124E-3
327.099609E-3
327.700424E-3
328.459167E-3
329.641914E-3
331.173134E-3
332.888603E-3
334.665298E-3
336.232567E-3
337.590981E-3
338.414383E-3
338.801193E-3
338.818359E-3
338.433838E-3
337.833595E-3
337.121201E-3
336.407661E-3
335.925865E-3
335.254669E-3
334.743690E-3
334.677315E-3
334.548569E-3
334.676743E-3
334.715080E-3
334.773445E-3
334.921646E-3
334.842110E-3
334.898758E-3
334.744835E-3
334.373474E-3
333.950043E-3
333.492279E-3
333.027649E-3
332.604790E-3
332.464027E-3
332.439423E-3
332.444000E-3
332.596779E-3
332.729530E-3
332.887459E-3
332.988167E-3
333.055115E-3
333.112335E-3
332.934380E-3
332.651711E-3
332.628250E-3
332.473755E-3
332.313538E-3
332.098389E-3
331.953049E-3
331.641197E-3
331.405449E-3
331.256676E-3
331.076431E-3
330.953979E-3
330.896187E-3
330.838394E-3
330.829239E-3
330.606079E-3
330.517387E-3
330.597496E-3
330.441284E-3
330.330849E-3
330.313110E-3
330.263329E-3
330.315971E-3
330.287361E-3
330.421257E-3
330.214691E-3
330.301666E-3
330.264473E-3
330.282784E-3
330.274773E-3
330.195808E-3
330.162048E-3
330.213547E-3
330.184937E-3
330.340004E-3
330.307388E-3
