Notes :


2023-11-04 ¿ÀÈÄ 9:37:19
Volts
Ch : LED 2,
506.026268E-3
505.853462E-3
505.709839E-3
505.667496E-3
505.573654E-3
505.542183E-3
505.602837E-3
505.205154E-3
505.119324E-3
504.897308E-3
504.743385E-3
504.511642E-3
504.402351E-3
504.331398E-3
504.138565E-3
503.978348E-3
503.903961E-3
503.699684E-3
503.601837E-3
503.421593E-3
503.293419E-3
503.156090E-3
502.936363E-3
502.807045E-3
502.271461E-3
502.173042E-3
502.036858E-3
501.819420E-3
501.674652E-3
501.472664E-3
501.434326E-3
501.591682E-3
502.045441E-3
503.300285E-3
505.287552E-3
508.089066E-3
511.225319E-3
514.433098E-3
517.342186E-3
519.652748E-3
521.258926E-3
521.978760E-3
522.051430E-3
521.502113E-3
520.442963E-3
519.204140E-3
517.921257E-3
516.627502E-3
515.641594E-3
514.780998E-3
514.091492E-3
513.676643E-3
513.486099E-3
513.499832E-3
513.640594E-3
513.860893E-3
514.057732E-3
514.154434E-3
514.111519E-3
513.670349E-3
513.415718E-3
512.725067E-3
512.154579E-3
511.984634E-3
511.764908E-3
511.830139E-3
512.009811E-3
512.113380E-3
512.477875E-3
512.579727E-3
512.679291E-3
512.649536E-3
512.516785E-3
512.331963E-3
512.029266E-3
511.734009E-3
511.098862E-3
510.819626E-3
510.524368E-3
509.946442E-3
509.482956E-3
509.061813E-3
508.703613E-3
508.432388E-3
508.162308E-3
507.947731E-3
507.875061E-3
507.593536E-3
507.486534E-3
507.262230E-3
507.162094E-3
507.111168E-3
506.942368E-3
507.026482E-3
506.811333E-3
506.909180E-3
506.825066E-3
506.777573E-3
506.731224E-3
506.593323E-3
506.513786E-3
506.508636E-3
506.292343E-3
506.370735E-3
506.145859E-3
506.151009E-3
505.957031E-3
505.723572E-3
505.652618E-3
505.484390E-3
505.263519E-3
505.203438E-3
505.124474E-3
505.040359E-3
504.838943E-3
504.706764E-3
504.673576E-3
504.468155E-3
504.543114E-3
504.354286E-3
504.174614E-3
504.258728E-3
504.011536E-3
503.848457E-3
503.689957E-3
503.564072E-3
503.328323E-3
503.145790E-3
502.924919E-3
502.641678E-3
502.556419E-3
502.673721E-3
502.696609E-3
503.233337E-3
504.500198E-3
506.627655E-3
509.390831E-3
512.243271E-3
515.535736E-3
518.201637E-3
520.421791E-3
521.934128E-3
522.403336E-3
522.214508E-3
521.494675E-3
520.480728E-3
519.280243E-3
517.906952E-3
516.723061E-3
515.554047E-3
514.678574E-3
514.162445E-3
513.696671E-3
513.567352E-3
513.395691E-3
513.595963E-3
513.796806E-3
513.938141E-3
513.909531E-3
513.638878E-3
513.179970E-3
512.746811E-3
512.226105E-3
512.080193E-3
511.875343E-3
512.134552E-3
512.534523E-3
512.738228E-3
513.133049E-3
513.283539E-3
513.599968E-3
513.640594E-3
513.424301E-3
513.355637E-3
513.007164E-3
512.663269E-3
512.196350E-3
511.608696E-3
511.298561E-3
510.740662E-3
510.362434E-3
509.984779E-3
509.393692E-3
509.176826E-3
508.828354E-3
508.658409E-3
508.436394E-3
508.130836E-3
508.142853E-3
507.982063E-3
507.841873E-3
507.728004E-3
507.612419E-3
507.610130E-3
507.552338E-3
507.436752E-3
507.448769E-3
507.290268E-3
507.439041E-3
507.159233E-3
507.091141E-3
507.002449E-3
506.844521E-3
506.806183E-3
506.632805E-3
506.563568E-3
506.488609E-3
506.052017E-3
506.121254E-3
506.052589E-3
505.922699E-3
505.830002E-3
505.568504E-3
505.477524E-3
505.316162E-3
505.111885E-3
505.233192E-3
504.850960E-3
504.624367E-3
504.415512E-3
504.270172E-3
503.963470E-3
503.522873E-3
503.322029E-3
503.061104E-3
502.847099E-3
502.860260E-3
502.731514E-3
502.987862E-3
503.701401E-3
505.177689E-3
507.492828E-3
510.241699E-3
513.232613E-3
515.958595E-3
518.457985E-3
520.330238E-3
521.266937E-3
521.596527E-3
521.266365E-3
520.432663E-3
519.339180E-3
518.031120E-3
517.025185E-3
515.792656E-3
514.763832E-3
513.974762E-3
513.374519E-3
512.999725E-3
512.703896E-3
512.644386E-3
512.741089E-3
512.712479E-3
512.841225E-3
512.652397E-3
512.205505E-3
511.665344E-3
511.145782E-3
510.941505E-3
511.013031E-3
510.987282E-3
511.134911E-3
511.412430E-3
511.752892E-3
512.009811E-3
512.234116E-3
512.327957E-3
512.198639E-3
512.337112E-3
511.904526E-3
511.509132E-3
511.129189E-3
510.662270E-3
510.308075E-3
509.799385E-3
509.267807E-3
508.925056E-3
508.220673E-3
507.984924E-3
507.582092E-3
507.314301E-3
507.085419E-3
506.867981E-3
506.759262E-3
506.605339E-3
506.510925E-3
506.542397E-3
506.294060E-3
506.273460E-3
506.196785E-3
506.114388E-3
506.134415E-3
505.973625E-3
506.070900E-3
506.049728E-3
505.914688E-3
505.907822E-3
505.729866E-3
505.731583E-3
505.569649E-3
505.389404E-3
505.427170E-3
505.242920E-3
505.146217E-3
505.052948E-3
504.969406E-3
504.840660E-3
504.569435E-3
504.589462E-3
504.425240E-3
504.262161E-3
504.289627E-3
504.056740E-3
504.058456E-3
503.825569E-3
503.594398E-3
503.415298E-3
503.152657E-3
502.895164E-3
502.638817E-3
502.290344E-3
502.195930E-3
502.115822E-3
502.090645E-3
502.277184E-3
502.926636E-3
504.385185E-3
506.579590E-3
509.484673E-3
512.647820E-3
515.791512E-3
518.493462E-3
520.563698E-3
522.011375E-3
522.504616E-3
522.290039E-3
521.626282E-3
520.616341E-3
519.198990E-3
518.123817E-3
516.979408E-3
516.090775E-3
515.239906E-3
514.861679E-3
514.490891E-3
514.311790E-3
514.446831E-3
514.731216E-3
514.914894E-3
515.059662E-3
514.862251E-3
514.654541E-3
514.239120E-3
513.709831E-3
513.226318E-3
512.900162E-3
512.884140E-3
512.749672E-3
512.955666E-3
513.049507E-3
513.304138E-3
513.589096E-3
513.499832E-3
513.690948E-3
513.609695E-3
513.375664E-3
513.170242E-3
512.778282E-3
512.472153E-3
512.001228E-3
511.590958E-3
511.132622E-3
510.831070E-3
510.321808E-3
509.850311E-3
509.476089E-3
509.236336E-3
508.844948E-3
508.786583E-3
508.650398E-3
508.434105E-3
508.436966E-3
508.257294E-3
508.169746E-3
508.034134E-3
508.047867E-3
507.994652E-3
507.885933E-3
507.929993E-3
507.822990E-3
507.962608E-3
507.812691E-3
507.703400E-3
507.673645E-3
507.484818E-3
507.458496E-3
507.421303E-3
507.247353E-3
507.245064E-3
507.119751E-3
506.997299E-3
506.829643E-3
506.711769E-3
506.653404E-3
506.560707E-3
506.449127E-3
506.370163E-3
506.333542E-3
506.252861E-3
506.092072E-3
505.817413E-3
505.795670E-3
505.550766E-3
505.470657E-3
505.212593E-3
504.858971E-3
504.755974E-3
504.522514E-3
504.373741E-3
504.273605E-3
504.235840E-3
504.470444E-3
504.896164E-3
506.149292E-3
508.202934E-3
510.887146E-3
513.901520E-3
516.863823E-3
519.544601E-3
521.672058E-3
523.061943E-3
523.817825E-3
523.689079E-3
523.398399E-3
522.268295E-3
521.080399E-3
519.969177E-3
518.714333E-3
517.830276E-3
517.078400E-3
516.384315E-3
516.220093E-3
516.239548E-3
516.014671E-3
516.024399E-3
516.141129E-3
516.325378E-3
516.114235E-3
515.827560E-3
515.295982E-3
514.671707E-3
514.484596E-3
514.318085E-3
514.250565E-3
514.575577E-3
514.770699E-3
515.217018E-3
515.486526E-3
515.720558E-3
515.862465E-3
515.808678E-3
515.730858E-3
515.480232E-3
515.187836E-3
514.792442E-3
514.335823E-3
513.997650E-3
513.449478E-3
512.996292E-3
512.433815E-3
512.057304E-3
511.861038E-3
511.529160E-3
511.296272E-3
511.171532E-3
510.907745E-3
510.912895E-3
510.673714E-3
510.585594E-3
510.434532E-3
510.315514E-3
510.338402E-3
510.200500E-3
510.253143E-3
510.202789E-3
510.100937E-3
510.161591E-3
510.075188E-3
510.056305E-3
510.021400E-3
509.926987E-3
509.865189E-3
509.745026E-3
509.799957E-3
509.795380E-3
509.599686E-3
509.564209E-3
509.519577E-3
509.437180E-3
509.307861E-3
509.111023E-3
508.992004E-3
508.756828E-3
508.880997E-3
508.680153E-3
508.340263E-3
508.180046E-3
507.954597E-3
507.646179E-3
507.361794E-3
507.036781E-3
506.918907E-3
506.552696E-3
506.521225E-3
506.512642E-3
506.477737E-3
506.783867E-3
507.479668E-3
508.955383E-3
511.150360E-3
513.836861E-3
516.815186E-3
519.594383E-3
522.096062E-3
523.841286E-3
524.783707E-3
525.155640E-3
524.789429E-3
523.954010E-3
522.794151E-3
521.712112E-3
520.503044E-3
519.308281E-3
518.411636E-3
517.747879E-3
517.175102E-3
516.856956E-3
516.566849E-3
516.695595E-3
516.771698E-3
516.701317E-3
516.597176E-3
516.166878E-3
515.616989E-3
515.132332E-3
514.669418E-3
514.539528E-3
514.459419E-3
514.695740E-3
514.998436E-3
515.389824E-3
515.772057E-3
516.018677E-3
516.218948E-3
516.186905E-3
515.884209E-3
515.811539E-3
515.377235E-3
515.062523E-3
514.597893E-3
514.096069E-3
513.690948E-3
513.087273E-3
512.656403E-3
511.954880E-3
511.664772E-3
511.255074E-3
510.918045E-3
510.747528E-3
510.551834E-3
510.327530E-3
510.410500E-3
510.219955E-3
509.985924E-3
510.037422E-3
509.956169E-3
509.985352E-3
509.914970E-3
509.863472E-3
509.841728E-3
509.884071E-3
509.852028E-3
509.782791E-3
509.616852E-3
509.656334E-3
509.509850E-3
509.460068E-3
509.268951E-3
509.199142E-3
509.072113E-3
508.892441E-3
508.912468E-3
508.652115E-3
508.535385E-3
508.281326E-3
508.096504E-3
507.980919E-3
507.829857E-3
507.787514E-3
507.704544E-3
507.448196E-3
507.352066E-3
507.202721E-3
507.137489E-3
506.929779E-3
506.602478E-3
506.424522E-3
506.064606E-3
505.957031E-3
505.791092E-3
505.644035E-3
505.660629E-3
505.739594E-3
506.381035E-3
507.622147E-3
509.723854E-3
512.205505E-3
515.427589E-3
518.762970E-3
521.692085E-3
524.149132E-3
525.828552E-3
526.738930E-3
526.918602E-3
526.412773E-3
525.454903E-3
524.288177E-3
523.071098E-3
521.947861E-3
520.936775E-3
520.030403E-3
519.493675E-3
519.175529E-3
519.017601E-3
519.271088E-3
519.240189E-3
519.481087E-3
519.490242E-3
519.516563E-3
519.245338E-3
518.766403E-3
518.139267E-3
517.501831E-3
517.170525E-3
516.834068E-3
516.782570E-3
516.916466E-3
517.028618E-3
517.303276E-3
517.541885E-3
517.596245E-3
517.706108E-3
517.683220E-3
517.474937E-3
517.143059E-3
516.760254E-3
516.391182E-3
515.941429E-3
515.457344E-3
515.063667E-3
514.500046E-3
514.112663E-3
513.708115E-3
513.235474E-3
513.051796E-3
512.663269E-3
512.573433E-3
512.376595E-3
512.418938E-3
512.181473E-3
512.009811E-3
511.902809E-3
511.735725E-3
511.641312E-3
511.633873E-3
511.544609E-3
511.450195E-3
511.550331E-3
511.433029E-3
511.333466E-3
511.117744E-3
511.089134E-3
510.893440E-3
510.799026E-3
510.729218E-3
510.598183E-3
510.646820E-3
510.449409E-3
510.177612E-3
509.973907E-3
509.746170E-3
509.695244E-3
509.409714E-3
509.270096E-3
509.297562E-3
509.027481E-3
509.000587E-3
508.875275E-3
508.760834E-3
508.677864E-3
508.427238E-3
508.363724E-3
508.210373E-3
507.986641E-3
507.960320E-3
507.713699E-3
507.600975E-3
507.274818E-3
507.178116E-3
507.016182E-3
506.790161E-3
506.810188E-3
506.945229E-3
507.312012E-3
508.415222E-3
510.094070E-3
512.608910E-3
515.565491E-3
518.770981E-3
521.871185E-3
524.468422E-3
526.516914E-3
527.884483E-3
528.159142E-3
527.823257E-3
527.007866E-3
525.984764E-3
524.737930E-3
523.427582E-3
522.397614E-3
521.372795E-3
520.991707E-3
520.424080E-3
520.111084E-3
520.049858E-3
520.144844E-3
520.362854E-3
520.458412E-3
520.408058E-3
520.277596E-3
519.720840E-3
519.108582E-3
518.509483E-3
518.048286E-3
517.837143E-3
517.805672E-3
517.972183E-3
518.312645E-3
518.450546E-3
518.725204E-3
518.894577E-3
519.026756E-3
518.816185E-3
518.667984E-3
518.419075E-3
518.008804E-3
517.633438E-3
517.230606E-3
516.780853E-3
516.338539E-3
515.733147E-3
515.350342E-3
514.972115E-3
514.582443E-3
514.364433E-3
514.088058E-3
513.908386E-3
513.748741E-3
513.582802E-3
513.469505E-3
513.294411E-3
513.221741E-3
513.138771E-3
513.050652E-3
513.130188E-3
512.915039E-3
512.882996E-3
512.944794E-3
512.840652E-3
512.824059E-3
512.658119E-3
512.554550E-3
512.534523E-3
512.375450E-3
512.345123E-3
512.193489E-3
512.113380E-3
511.902237E-3
511.695671E-3
511.604118E-3
511.394119E-3
511.315155E-3
510.951805E-3
510.964966E-3
510.927773E-3
510.749245E-3
510.647392E-3
510.504341E-3
510.385323E-3
510.238838E-3
510.063171E-3
510.182762E-3
509.884071E-3
509.661484E-3
509.580803E-3
509.379387E-3
509.169960E-3
508.960533E-3
508.674431E-3
508.544540E-3
508.320808E-3
508.397484E-3
508.362007E-3
508.454704E-3
509.141350E-3
510.278893E-3
512.294769E-3
515.219879E-3
518.130684E-3
521.175385E-3
523.803520E-3
526.136398E-3
527.547455E-3
528.115654E-3
528.104210E-3
527.338028E-3
526.135254E-3
524.929047E-3
523.590660E-3
522.407341E-3
521.277237E-3
520.461845E-3
519.794655E-3
519.332314E-3
519.218445E-3
518.836784E-3
519.052505E-3
519.150925E-3
519.054222E-3
518.882561E-3
518.330383E-3
517.854309E-3
517.317009E-3
517.072678E-3
516.733932E-3
516.973686E-3
517.381668E-3
517.742157E-3
518.075180E-3
518.441963E-3
518.608475E-3
518.743515E-3
518.673706E-3
518.175316E-3
518.071747E-3
517.562485E-3
517.146492E-3
516.613770E-3
516.059303E-3
515.604401E-3
514.977837E-3
514.482307E-3
514.184189E-3
513.676071E-3
513.336754E-3
512.879562E-3
512.699890E-3
512.505913E-3
512.325668E-3
512.191772E-3
512.095070E-3
511.969185E-3
511.854744E-3
511.747169E-3
511.647606E-3
511.693954E-3
511.671638E-3
511.694527E-3
511.275673E-3
511.407852E-3
511.304283E-3
511.252213E-3
511.138916E-3
510.999298E-3
510.881424E-3
510.671425E-3
510.589027E-3
510.380173E-3
510.232544E-3
510.169601E-3
509.956741E-3
509.790230E-3
509.616852E-3
509.370804E-3
509.344482E-3
509.157944E-3
508.960533E-3
508.897591E-3
508.698463E-3
508.612633E-3
508.482170E-3
508.290482E-3
508.201218E-3
508.074188E-3
508.017540E-3
507.820129E-3
507.500267E-3
507.192421E-3
506.902313E-3
506.850243E-3
506.683731E-3
506.719780E-3
506.863976E-3
507.389259E-3
508.844948E-3
510.723495E-3
513.444901E-3
516.519928E-3
519.605255E-3
522.740936E-3
525.246048E-3
527.066231E-3
528.109360E-3
528.217506E-3
527.943420E-3
526.940346E-3
525.801086E-3
524.494743E-3
523.214722E-3
522.168732E-3
521.228600E-3
520.612907E-3
520.281601E-3
520.104218E-3
520.246124E-3
520.245552E-3
520.452690E-3
520.589447E-3
520.511627E-3
520.550537E-3
519.780350E-3
519.116592E-3
518.404770E-3
517.952156E-3
517.690086E-3
517.506981E-3
517.701530E-3
517.879486E-3
518.268013E-3
518.450546E-3
518.450546E-3
518.547249E-3
518.460846E-3
518.242836E-3
518.057442E-3
517.612839E-3
517.220306E-3
516.751099E-3
516.277885E-3
515.754890E-3
515.198708E-3
514.760971E-3
514.362717E-3
513.986778E-3
513.666916E-3
513.296700E-3
513.206291E-3
512.995148E-3
512.807465E-3
512.759399E-3
512.490463E-3
512.475014E-3
512.306213E-3
512.226677E-3
512.236404E-3
512.007523E-3
512.014389E-3
511.933708E-3
511.884499E-3
511.816978E-3
511.730003E-3
511.580658E-3
511.509705E-3
511.443901E-3
511.490822E-3
511.169815E-3
510.958672E-3
510.805321E-3
510.643959E-3
510.444260E-3
510.266304E-3
510.003090E-3
509.908676E-3
509.642601E-3
509.550476E-3
509.351921E-3
509.225464E-3
509.127045E-3
508.930779E-3
508.916473E-3
508.772850E-3
508.651543E-3
508.623505E-3
508.453560E-3
508.358002E-3
508.309364E-3
508.031845E-3
507.928276E-3
507.669640E-3
507.558060E-3
507.147217E-3
506.920624E-3
506.801605E-3
506.736374E-3
506.946373E-3
507.215309E-3
508.057594E-3
509.695816E-3
511.949158E-3
515.053940E-3
518.112373E-3
521.412849E-3
524.273300E-3
526.496315E-3
