Notes :


2023-11-04 ¿ÀÀü 1:23:08
Volts
Ch : LED 2,
585.587311E-3
586.509705E-3
586.351776E-3
587.572289E-3
587.586594E-3
587.718773E-3
588.241768E-3
587.682152E-3
589.002228E-3
588.516426E-3
588.574791E-3
589.161301E-3
588.614845E-3
589.936066E-3
589.640808E-3
589.596176E-3
590.221024E-3
589.407349E-3
590.856171E-3
590.599251E-3
590.645599E-3
591.349983E-3
590.959167E-3
592.676353E-3
592.788506E-3
592.873764E-3
593.860817E-3
593.567276E-3
595.412636E-3
595.204926E-3
595.375443E-3
596.303558E-3
595.796013E-3
597.537804E-3
597.574997E-3
597.656822E-3
598.385811E-3
598.395538E-3
600.480080E-3
600.486946E-3
600.676346E-3
601.740646E-3
601.644516E-3
603.321648E-3
603.174019E-3
602.926826E-3
603.493309E-3
602.594948E-3
603.041840E-3
600.843430E-3
596.610832E-3
591.820908E-3
584.582520E-3
578.474236E-3
571.059036E-3
564.574814E-3
560.803413E-3
557.631683E-3
557.462883E-3
557.604218E-3
558.253670E-3
560.303307E-3
562.511444E-3
565.934372E-3
567.623520E-3
569.003105E-3
570.841026E-3
571.104813E-3
572.529030E-3
572.344208E-3
571.198082E-3
571.685028E-3
571.183205E-3
572.399139E-3
573.027992E-3
574.148941E-3
576.698112E-3
577.387047E-3
579.448700E-3
579.987717E-3
579.410934E-3
579.180908E-3
577.305222E-3
577.100372E-3
576.155663E-3
574.879646E-3
575.190353E-3
574.461937E-3
575.624084E-3
576.211166E-3
576.838875E-3
578.821564E-3
579.452133E-3
581.554985E-3
582.849884E-3
582.544899E-3
585.261154E-3
585.809326E-3
587.483025E-3
588.324738E-3
588.397408E-3
589.940643E-3
589.689445E-3
590.638733E-3
590.706825E-3
590.186691E-3
591.549683E-3
591.041565E-3
591.996002E-3
592.089272E-3
591.828918E-3
592.635727E-3
592.068100E-3
592.925835E-3
593.146133E-3
591.040421E-3
592.985916E-3
592.934990E-3
593.922043E-3
594.196129E-3
594.202423E-3
595.267296E-3
595.117950E-3
596.091843E-3
596.662903E-3
596.732712E-3
598.142624E-3
597.927475E-3
598.900223E-3
599.424934E-3
598.422432E-3
600.611115E-3
600.232315E-3
600.885201E-3
601.362991E-3
601.090622E-3
602.934837E-3
601.945496E-3
602.636147E-3
602.813530E-3
602.596664E-3
604.725838E-3
604.254341E-3
605.029678E-3
605.674553E-3
605.637932E-3
607.438087E-3
606.794930E-3
607.178879E-3
607.398033E-3
606.496239E-3
606.451035E-3
602.271080E-3
597.568703E-3
590.690804E-3
582.411003E-3
575.533104E-3
567.391205E-3
561.939812E-3
558.009338E-3
555.550575E-3
556.270981E-3
555.811501E-3
557.794762E-3
559.905624E-3
561.800194E-3
565.280342E-3
565.864563E-3
567.751694E-3
569.036293E-3
568.780518E-3
570.066833E-3
568.601418E-3
568.595695E-3
568.159676E-3
567.277908E-3
568.255234E-3
567.549706E-3
568.925285E-3
570.584679E-3
570.810699E-3
574.707985E-3
575.232697E-3
576.546478E-3
577.070618E-3
576.310730E-3
576.754761E-3
574.956894E-3
574.625587E-3
574.322319E-3
573.663139E-3
575.168037E-3
574.465942E-3
575.510788E-3
576.676369E-3
577.483749E-3
579.810905E-3
579.868698E-3
581.311798E-3
582.908821E-3
583.498764E-3
585.583305E-3
585.376167E-3
586.218452E-3
587.384033E-3
585.307503E-3
588.211441E-3
588.149071E-3
588.718414E-3
589.574432E-3
589.346123E-3
590.817833E-3
590.176392E-3
590.592957E-3
591.166306E-3
590.708542E-3
592.214012E-3
591.106224E-3
591.660690E-3
592.274666E-3
591.839790E-3
593.411636E-3
592.670059E-3
593.156433E-3
593.902016E-3
593.624496E-3
595.396614E-3
595.065308E-3
595.539665E-3
596.636581E-3
596.376228E-3
598.114014E-3
597.760391E-3
598.333740E-3
599.370003E-3
598.989487E-3
600.358200E-3
599.897003E-3
600.221443E-3
600.788498E-3
600.184250E-3
601.597595E-3
601.117516E-3
601.645660E-3
602.441597E-3
602.022743E-3
603.611183E-3
603.437233E-3
604.102707E-3
604.983902E-3
603.116798E-3
605.687141E-3
605.710030E-3
606.086540E-3
606.585503E-3
605.439949E-3
604.919243E-3
601.277161E-3
596.105576E-3
589.942360E-3
581.708908E-3
574.958038E-3
567.451859E-3
562.092018E-3
559.016991E-3
556.222343E-3
557.052040E-3
557.416534E-3
559.261322E-3
561.896324E-3
563.579178E-3
566.866493E-3
568.441772E-3
569.666862E-3
571.088219E-3
570.771217E-3
571.853828E-3
571.338272E-3
570.673370E-3
570.701408E-3
569.384766E-3
570.530319E-3
571.069336E-3
572.344208E-3
574.311447E-3
575.101089E-3
577.437401E-3
577.773857E-3
577.793884E-3
577.745819E-3
576.232910E-3
576.477814E-3
574.826431E-3
574.605560E-3
574.687958E-3
574.050522E-3
575.541115E-3
575.781441E-3
576.423454E-3
577.956963E-3
578.450775E-3
580.877495E-3
581.473732E-3
582.552910E-3
584.080124E-3
584.500694E-3
586.388397E-3
586.712837E-3
587.048149E-3
587.986565E-3
587.831497E-3
589.608192E-3
589.309502E-3
589.414215E-3
590.138626E-3
589.927483E-3
591.204071E-3
590.841866E-3
590.488815E-3
591.246414E-3
590.707397E-3
592.062950E-3
591.822624E-3
591.691589E-3
592.349052E-3
592.088699E-3
593.698311E-3
593.442535E-3
593.236542E-3
594.156647E-3
593.790436E-3
595.706749E-3
595.618629E-3
594.993782E-3
596.331596E-3
596.233749E-3
597.700310E-3
597.954369E-3
597.901726E-3
598.518562E-3
597.835922E-3
599.425507E-3
599.525070E-3
599.434662E-3
599.736786E-3
600.126457E-3
601.928329E-3
601.958084E-3
601.970673E-3
603.037262E-3
602.890205E-3
604.057503E-3
604.268074E-3
604.115295E-3
604.749298E-3
603.966522E-3
604.619408E-3
603.315353E-3
599.876404E-3
595.616913E-3
588.443756E-3
582.172394E-3
575.133705E-3
568.482971E-3
564.231491E-3
560.504150E-3
559.799767E-3
559.744835E-3
560.193443E-3
562.114906E-3
564.272118E-3
567.712784E-3
569.981003E-3
571.709061E-3
574.043083E-3
574.711418E-3
576.295853E-3
576.721001E-3
576.342201E-3
576.929855E-3
576.163673E-3
577.355003E-3
578.380966E-3
578.927994E-3
581.462288E-3
582.281113E-3
584.043503E-3
584.432030E-3
583.576584E-3
583.485603E-3
581.510925E-3
580.933571E-3
579.742813E-3
578.013611E-3
578.476524E-3
577.606201E-3
578.648186E-3
579.403496E-3
579.695892E-3
581.807327E-3
582.507133E-3
584.481812E-3
585.784721E-3
586.583519E-3
589.062881E-3
589.424515E-3
590.646744E-3
591.685867E-3
591.965675E-3
594.102859E-3
593.365288E-3
594.223595E-3
594.652176E-3
594.409561E-3
595.943069E-3
595.027542E-3
595.465279E-3
595.509338E-3
595.118523E-3
596.397400E-3
595.437241E-3
595.961952E-3
596.008301E-3
595.720482E-3
597.037125E-3
596.087837E-3
596.407127E-3
596.930695E-3
596.780777E-3
598.370361E-3
597.517776E-3
598.471642E-3
598.974609E-3
598.797798E-3
600.630569E-3
599.851227E-3
600.685501E-3
601.403618E-3
601.251984E-3
602.786636E-3
601.796722E-3
602.683067E-3
603.273010E-3
603.204346E-3
604.835129E-3
604.139328E-3
605.039406E-3
605.772972E-3
605.909157E-3
607.685852E-3
607.030678E-3
607.768822E-3
608.390808E-3
606.309700E-3
608.689499E-3
607.343102E-3
606.088257E-3
602.845001E-3
596.556473E-3
590.394974E-3
581.236267E-3
573.785591E-3
567.192650E-3
561.487770E-3
559.287643E-3
556.472397E-3
556.565094E-3
557.964134E-3
559.341431E-3
562.752914E-3
564.072418E-3
566.682243E-3
568.698692E-3
569.822502E-3
572.220612E-3
571.852684E-3
571.994591E-3
572.055817E-3
571.249008E-3
572.096443E-3
570.724869E-3
570.830727E-3
571.750259E-3
572.356224E-3
575.390625E-3
575.951385E-3
577.777290E-3
579.067612E-3
578.946304E-3
580.135345E-3
578.533173E-3
577.925491E-3
577.159309E-3
575.874710E-3
576.658630E-3
575.411224E-3
575.586319E-3
576.595116E-3
576.826286E-3
579.227257E-3
579.335976E-3
580.508995E-3
582.282829E-3
582.738304E-3
585.069466E-3
585.351562E-3
586.422157E-3
587.604332E-3
587.555695E-3
589.494324E-3
589.310646E-3
589.755821E-3
590.404701E-3
590.223312E-3
591.691017E-3
591.228676E-3
591.560555E-3
592.264366E-3
591.584587E-3
592.621422E-3
592.409706E-3
592.536736E-3
593.301201E-3
592.817116E-3
594.156647E-3
593.494606E-3
593.759537E-3
594.786644E-3
591.618919E-3
594.516563E-3
594.954300E-3
595.432663E-3
596.562767E-3
596.261215E-3
597.558975E-3
597.503471E-3
598.030472E-3
598.887062E-3
598.550606E-3
599.860382E-3
599.929047E-3
599.989700E-3
600.742722E-3
600.354767E-3
601.548386E-3
601.565552E-3
601.919174E-3
602.343178E-3
601.991844E-3
603.489876E-3
603.785133E-3
604.439163E-3
605.383873E-3
605.004501E-3
606.377792E-3
606.424141E-3
606.279373E-3
605.948067E-3
603.644943E-3
601.771545E-3
595.897865E-3
589.102364E-3
581.713486E-3
572.617149E-3
567.147446E-3
560.919571E-3
556.868362E-3
555.268478E-3
553.600502E-3
555.709648E-3
556.884956E-3
559.107399E-3
561.898041E-3
563.164330E-3
566.759491E-3
567.974854E-3
569.084930E-3
570.303154E-3
569.554138E-3
570.823860E-3
569.959259E-3
569.148445E-3
569.294930E-3
568.546486E-3
570.158958E-3
570.909119E-3
572.050667E-3
574.255943E-3
575.147438E-3
577.476311E-3
577.437401E-3
576.652336E-3
576.605988E-3
575.461578E-3
575.950813E-3
574.799538E-3
573.847389E-3
574.254227E-3
573.788452E-3
575.494766E-3
575.524521E-3
576.413727E-3
577.964401E-3
578.759193E-3
581.104660E-3
581.993294E-3
582.769203E-3
584.404564E-3
584.837723E-3
586.648750E-3
587.140274E-3
587.076187E-3
588.416290E-3
588.485527E-3
590.027618E-3
590.128899E-3
589.616776E-3
590.278816E-3
589.656830E-3
590.637016E-3
590.607834E-3
590.205002E-3
590.944862E-3
590.683365E-3
591.807175E-3
591.811752E-3
591.667557E-3
592.770767E-3
592.355919E-3
593.593597E-3
593.600464E-3
593.459702E-3
594.477654E-3
593.912315E-3
595.048141E-3
595.588875E-3
595.460129E-3
596.467209E-3
596.012878E-3
597.093201E-3
597.287178E-3
597.201347E-3
598.465919E-3
598.104286E-3
599.607468E-3
600.096130E-3
599.922752E-3
601.405334E-3
601.461983E-3
602.818108E-3
603.278732E-3
603.214073E-3
604.284668E-3
603.897285E-3
604.416275E-3
603.524780E-3
600.918961E-3
597.228241E-3
591.090775E-3
585.069466E-3
577.539253E-3
568.932152E-3
564.094734E-3
558.715439E-3
556.641197E-3
555.600357E-3
555.059624E-3
557.546425E-3
558.374405E-3
561.291504E-3
563.919640E-3
565.433121E-3
568.664360E-3
569.149017E-3
570.863342E-3
571.340561E-3
570.741463E-3
572.221184E-3
570.897102E-3
571.192932E-3
571.198654E-3
571.306801E-3
573.904037E-3
574.206734E-3
576.540756E-3
577.857971E-3
576.622009E-3
578.944588E-3
577.870560E-3
577.730942E-3
576.825142E-3
573.352432E-3
575.117111E-3
574.231911E-3
574.852180E-3
575.168037E-3
575.174904E-3
577.272606E-3
577.205086E-3
578.787804E-3
580.193710E-3
581.120110E-3
583.790588E-3
583.783150E-3
585.420799E-3
586.671066E-3
587.160873E-3
589.215088E-3
588.739586E-3
589.645386E-3
590.336037E-3
590.378952E-3
591.748810E-3
590.942001E-3
591.614914E-3
591.774559E-3
591.301346E-3
592.505836E-3
591.695595E-3
592.162514E-3
592.737579E-3
592.469215E-3
593.879700E-3
592.664337E-3
593.216515E-3
593.498611E-3
593.079758E-3
594.308281E-3
593.176460E-3
593.706894E-3
594.284821E-3
594.490814E-3
596.189117E-3
595.489311E-3
596.565056E-3
597.346687E-3
597.640228E-3
599.662399E-3
599.407768E-3
600.730133E-3
602.163506E-3
602.169228E-3
603.674126E-3
602.831268E-3
603.479004E-3
603.528786E-3
601.969528E-3
600.687790E-3
595.301628E-3
589.684296E-3
583.133698E-3
575.509644E-3
570.070839E-3
563.754845E-3
559.943962E-3
558.166122E-3
557.014847E-3
558.713722E-3
559.314537E-3
561.589050E-3
564.245224E-3
565.953827E-3
569.429970E-3
570.362091E-3
571.690178E-3
573.039436E-3
572.939301E-3
574.322319E-3
573.576736E-3
573.272324E-3
574.023628E-3
573.999023E-3
576.214600E-3
577.013969E-3
578.678513E-3
580.356789E-3
580.422020E-3
581.516647E-3
580.200005E-3
579.443550E-3
578.863907E-3
576.901817E-3
577.007675E-3
575.432396E-3
575.032425E-3
575.439262E-3
575.052452E-3
576.842880E-3
577.148437E-3
578.166389E-3
580.123329E-3
580.743027E-3
583.047867E-3
583.624649E-3
584.937859E-3
585.936356E-3
586.353493E-3
588.198280E-3
588.496971E-3
588.962173E-3
589.704323E-3
589.447975E-3
590.563774E-3
590.266228E-3
590.426445E-3
591.019249E-3
590.175247E-3
591.355133E-3
591.038704E-3
591.002655E-3
591.475296E-3
590.772057E-3
591.775131E-3
591.207504E-3
591.212654E-3
591.431808E-3
590.850449E-3
591.889572E-3
591.655540E-3
591.780281E-3
592.557335E-3
592.284966E-3
593.738937E-3
594.088554E-3
594.540596E-3
595.717049E-3
595.757103E-3
597.344971E-3
597.550392E-3
597.966385E-3
598.756599E-3
598.457909E-3
599.416924E-3
598.884201E-3
597.561836E-3
595.328522E-3
590.013313E-3
585.294914E-3
578.010750E-3
570.902252E-3
564.937019E-3
559.177780E-3
557.074928E-3
555.053329E-3
554.538345E-3
555.804634E-3
556.828880E-3
560.368538E-3
562.393570E-3
564.784241E-3
567.182350E-3
568.270683E-3
571.004105E-3
571.391487E-3
571.408653E-3
572.396851E-3
571.691895E-3
573.628235E-3
574.036789E-3
575.014114E-3
577.281189E-3
578.038788E-3
580.458069E-3
580.063820E-3
579.325104E-3
578.683662E-3
576.488686E-3
575.970268E-3
574.083138E-3
572.463799E-3
572.218323E-3
571.299934E-3
572.566795E-3
572.752762E-3
573.263741E-3
575.110817E-3
575.777435E-3
578.385544E-3
579.200935E-3
580.133629E-3
582.003021E-3
582.629013E-3
584.560204E-3
585.239983E-3
585.756683E-3
586.892509E-3
586.690521E-3
588.125610E-3
588.081551E-3
587.293053E-3
587.739372E-3
587.976265E-3
589.197922E-3
588.990211E-3
588.704681E-3
589.295769E-3
588.530731E-3
589.399910E-3
589.011955E-3
588.411713E-3
588.924408E-3
588.193130E-3
588.993645E-3
588.874054E-3
588.383102E-3
589.476585E-3
589.008522E-3
590.384674E-3
590.841866E-3
590.920830E-3
592.199707E-3
592.282677E-3
593.831062E-3
594.442749E-3
594.412994E-3
595.770836E-3
595.404625E-3
596.311569E-3
595.833206E-3
593.102646E-3
591.447830E-3
586.064529E-3
580.538750E-3
573.477173E-3
566.158676E-3
560.853767E-3
555.640411E-3
553.523827E-3
552.408028E-3
552.077293E-3
554.233360E-3
555.709076E-3
559.137154E-3
561.775589E-3
562.794113E-3
566.760635E-3
567.974854E-3
570.199013E-3
571.321106E-3
571.177483E-3
572.862053E-3
572.260094E-3
573.536682E-3
574.744606E-3
575.663567E-3
578.620720E-3
578.949165E-3
580.114174E-3
580.137634E-3
578.752899E-3
578.658485E-3
575.888443E-3
574.730301E-3
573.259163E-3
571.444130E-3
572.273254E-3
570.908546E-3
571.550560E-3
572.135925E-3
572.924423E-3
575.565147E-3
576.072693E-3
577.964973E-3
579.533958E-3
579.722214E-3
582.699966E-3
583.097076E-3
584.508705E-3
585.575867E-3
585.932350E-3
587.972260E-3
587.345123E-3
588.189697E-3
588.747025E-3
588.352776E-3
589.827919E-3
588.708115E-3
589.088631E-3
589.368439E-3
588.888931E-3
590.233040E-3
589.126396E-3
589.496613E-3
589.746094E-3
589.253426E-3
590.584373E-3
589.374733E-3
589.664841E-3
589.838791E-3
589.491463E-3
590.790939E-3
589.966965E-3
590.747452E-3
591.563988E-3
591.539955E-3
593.261719E-3
592.837143E-3
593.910599E-3
594.867897E-3
595.556259E-3
597.684288E-3
597.145271E-3
598.253632E-3
598.834419E-3
598.400688E-3
598.998642E-3
595.396042E-3
591.160583E-3
585.108376E-3
576.841164E-3
569.610786E-3
560.516167E-3
553.753853E-3
548.777962E-3
544.897842E-3
544.712448E-3
543.730545E-3
545.366478E-3
547.836685E-3
550.019073E-3
554.031944E-3
555.345726E-3
557.847404E-3
559.716797E-3
