Notes :


2023-11-10 ¿ÀÈÄ 10:05:40
Volts
Ch : LED 2,
298.869896E-3
298.944855E-3
298.542023E-3
298.243904E-3
297.970390E-3
297.601318E-3
297.359276E-3
296.973038E-3
296.739006E-3
296.588516E-3
296.290970E-3
296.208000E-3
296.018028E-3
295.777702E-3
295.685005E-3
295.411491E-3
295.335388E-3
294.962311E-3
295.040131E-3
294.903946E-3
294.799232E-3
294.891930E-3
294.744873E-3
294.825554E-3
294.777489E-3
294.621849E-3
294.543457E-3
294.426155E-3
294.330025E-3
294.309425E-3
294.140625E-3
294.081116E-3
293.942070E-3
293.908882E-3
293.936348E-3
293.795586E-3
293.846512E-3
293.627357E-3
293.646240E-3
293.570709E-3
293.436241E-3
293.467712E-3
293.302917E-3
293.336105E-3
293.290329E-3
293.200493E-3
293.148422E-3
293.043709E-3
293.008804E-3
293.008232E-3
292.950439E-3
292.925262E-3
292.775917E-3
292.610550E-3
292.498398E-3
292.359924E-3
292.273521E-3
292.147064E-3
292.087555E-3
292.070961E-3
292.157936E-3
292.687798E-3
293.655968E-3
294.952011E-3
296.692085E-3
298.638725E-3
300.728989E-3
302.671623E-3
304.177094E-3
305.246544E-3
305.535507E-3
305.465698E-3
304.767609E-3
303.933334E-3
303.068733E-3
302.089119E-3
301.210785E-3
300.425720E-3
299.761963E-3
299.337959E-3
298.965454E-3
298.935699E-3
298.733139E-3
298.750305E-3
298.819542E-3
298.695374E-3
298.619270E-3
298.469353E-3
297.941780E-3
297.531509E-3
297.029114E-3
296.813393E-3
296.508408E-3
296.540451E-3
296.663475E-3
296.747589E-3
296.927261E-3
297.212791E-3
297.451973E-3
297.645378E-3
297.603607E-3
297.668266E-3
297.470856E-3
297.362137E-3
297.052002E-3
296.765327E-3
296.441460E-3
296.025467E-3
295.851517E-3
295.514488E-3
295.144272E-3
295.149422E-3
294.905663E-3
294.771767E-3
294.701958E-3
294.387245E-3
294.280243E-3
294.095421E-3
293.949509E-3
293.881416E-3
293.733215E-3
293.823051E-3
293.659973E-3
293.621635E-3
293.655968E-3
293.530655E-3
293.476295E-3
293.409920E-3
293.265152E-3
293.338966E-3
293.393326E-3
293.436813E-3
293.308640E-3
293.346405E-3
293.310928E-3
293.324661E-3
293.276596E-3
293.126106E-3
293.094063E-3
292.891502E-3
292.960167E-3
293.029404E-3
293.057442E-3
292.983627E-3
292.991638E-3
292.856026E-3
292.924118E-3
292.714119E-3
292.562485E-3
292.488670E-3
292.227173E-3
292.064667E-3
291.945076E-3
291.902733E-3
292.010880E-3
292.113304E-3
292.306709E-3
292.890930E-3
293.730354E-3
295.158577E-3
296.822548E-3
298.952293E-3
300.984192E-3
302.977180E-3
304.815674E-3
305.950356E-3
306.744576E-3
306.825256E-3
306.250191E-3
305.421638E-3
304.285240E-3
303.373718E-3
302.466774E-3
301.623344E-3
301.186752E-3
300.547028E-3
300.405693E-3
300.244904E-3
300.408554E-3
300.529289E-3
300.446320E-3
300.565338E-3
300.441170E-3
300.248909E-3
299.865532E-3
299.256706E-3
298.863029E-3
298.424721E-3
298.180389E-3
298.159790E-3
298.048782E-3
298.377228E-3
298.436165E-3
298.597527E-3
298.762321E-3
298.723984E-3
298.843002E-3
298.801231E-3
298.679924E-3
298.572350E-3
298.448753E-3
298.261070E-3
298.028183E-3
297.780418E-3
297.580719E-3
297.191620E-3
296.936989E-3
296.653748E-3
296.351051E-3
296.188545E-3
295.896721E-3
295.777130E-3
295.702171E-3
295.618057E-3
295.691872E-3
295.558548E-3
295.549965E-3
295.413208E-3
295.176315E-3
295.194626E-3
295.060158E-3
295.045853E-3
294.962883E-3
294.855881E-3
294.945717E-3
294.722557E-3
294.810677E-3
294.681931E-3
294.724846E-3
294.808388E-3
294.744301E-3
294.762611E-3
294.545174E-3
294.528008E-3
294.463348E-3
294.251060E-3
294.250488E-3
294.148064E-3
294.142914E-3
294.180107E-3
294.277382E-3
294.285393E-3
294.216156E-3
294.055367E-3
294.062233E-3
293.903160E-3
293.910027E-3
293.728638E-3
293.598175E-3
293.558693E-3
293.349266E-3
293.334389E-3
293.346405E-3
293.212509E-3
293.304062E-3
293.222809E-3
293.355560E-3
293.756104E-3
294.667053E-3
296.207428E-3
297.891998E-3
300.196838E-3
302.413559E-3
304.648590E-3
306.725693E-3
308.160782E-3
308.857727E-3
308.900070E-3
308.346176E-3
307.526207E-3
306.462479E-3
305.416489E-3
304.399109E-3
303.509903E-3
303.038406E-3
302.622414E-3
302.510262E-3
302.454185E-3
302.352905E-3
302.446175E-3
302.410126E-3
302.466774E-3
302.364349E-3
302.089691E-3
301.817894E-3
301.258278E-3
300.813675E-3
300.369644E-3
300.029182E-3
299.888992E-3
299.673271E-3
299.794579E-3
299.839211E-3
299.888992E-3
300.076675E-3
300.050354E-3
300.149918E-3
300.211716E-3
300.042343E-3
300.000000E-3
299.792290E-3
299.788284E-3
299.444962E-3
299.122238E-3
298.916245E-3
298.469353E-3
298.194122E-3
297.892570E-3
297.677994E-3
297.476006E-3
297.235107E-3
297.073746E-3
296.936989E-3
296.812248E-3
296.873474E-3
296.670914E-3
296.581650E-3
296.351051E-3
296.179390E-3
296.122742E-3
295.944786E-3
295.945358E-3
295.975685E-3
295.800591E-3
295.857811E-3
295.770836E-3
295.777702E-3
295.711327E-3
295.705605E-3
295.606041E-3
295.489311E-3
295.363998E-3
295.334816E-3
295.222092E-3
295.253563E-3
295.064163E-3
295.040131E-3
294.984627E-3
294.891930E-3
294.896507E-3
294.783783E-3
294.787788E-3
294.767761E-3
294.600105E-3
294.648743E-3
294.384956E-3
294.364929E-3
294.295120E-3
294.153786E-3
294.078827E-3
293.909454E-3
293.880844E-3
293.804741E-3
293.621635E-3
293.522072E-3
293.395615E-3
293.420219E-3
293.269157E-3
293.294907E-3
293.604469E-3
294.368935E-3
295.675850E-3
297.492027E-3
299.474144E-3
301.650238E-3
303.683281E-3
305.659676E-3
306.845856E-3
307.442665E-3
307.403183E-3
306.777763E-3
305.894852E-3
304.843140E-3
303.742790E-3
302.819252E-3
301.903152E-3
301.249695E-3
300.838852E-3
300.367355E-3
300.264359E-3
300.096130E-3
300.169373E-3
300.198555E-3
300.155067E-3
300.098419E-3
299.766541E-3
299.345398E-3
298.879051E-3
298.465347E-3
298.248482E-3
298.065948E-3
298.115158E-3
298.237610E-3
298.342896E-3
298.694229E-3
298.788071E-3
298.966026E-3
299.056435E-3
299.058151E-3
299.030685E-3
298.904800E-3
298.699951E-3
298.515701E-3
298.293686E-3
297.964668E-3
297.435379E-3
297.165871E-3
296.875191E-3
296.468353E-3
296.372795E-3
296.104431E-3
295.975113E-3
295.872116E-3
295.636940E-3
295.662689E-3
295.417213E-3
295.275307E-3
295.037270E-3
294.889641E-3
294.926262E-3
294.745445E-3
294.725418E-3
294.688225E-3
294.585800E-3
294.721413E-3
294.626999E-3
294.503975E-3
294.445038E-3
294.363213E-3
294.405556E-3
294.378090E-3
294.268227E-3
294.201279E-3
294.023895E-3
294.102859E-3
293.947792E-3
294.005585E-3
294.018745E-3
293.903160E-3
294.031334E-3
293.911171E-3
293.840218E-3
293.690300E-3
293.604469E-3
293.479156E-3
293.370438E-3
293.410492E-3
293.368149E-3
293.210220E-3
293.221664E-3
293.074036E-3
292.940140E-3
292.762756E-3
292.821693E-3
292.719269E-3
292.636871E-3
292.691803E-3
292.983627E-3
293.776703E-3
295.111656E-3
296.755600E-3
298.919106E-3
301.358414E-3
303.465843E-3
305.519485E-3
306.875610E-3
307.691574E-3
307.802010E-3
307.308769E-3
306.645012E-3
305.552673E-3
304.447174E-3
303.486443E-3
302.661896E-3
302.186394E-3
301.623917E-3
301.368141E-3
301.248550E-3
301.135254E-3
301.145554E-3
301.187897E-3
301.217651E-3
301.209641E-3
301.036835E-3
300.759888E-3
300.252914E-3
299.805450E-3
299.305344E-3
299.016953E-3
298.897934E-3
298.685074E-3
298.690796E-3
298.751450E-3
298.825836E-3
299.021530E-3
299.099350E-3
299.212074E-3
299.278450E-3
299.206352E-3
299.201775E-3
299.043846E-3
298.880768E-3
298.673630E-3
298.359489E-3
298.104858E-3
297.579575E-3
297.364998E-3
297.116661E-3
296.847725E-3
296.665764E-3
296.394539E-3
296.393394E-3
296.309280E-3
296.061516E-3
296.131325E-3
295.891571E-3
295.810890E-3
295.633507E-3
295.413780E-3
295.442390E-3
295.370293E-3
295.273590E-3
295.246124E-3
295.213509E-3
295.189476E-3
295.102501E-3
295.085907E-3
294.981766E-3
294.869041E-3
294.903374E-3
294.901085E-3
294.763184E-3
294.665337E-3
294.568634E-3
294.639015E-3
294.586945E-3
294.519424E-3
294.426155E-3
294.332314E-3
294.412422E-3
294.144630E-3
294.186401E-3
294.150925E-3
293.982124E-3
293.990707E-3
293.839073E-3
293.886566E-3
293.883705E-3
293.791580E-3
293.861389E-3
293.797874E-3
293.736649E-3
293.622208E-3
293.389320E-3
293.272591E-3
293.159294E-3
293.062019E-3
293.071747E-3
292.910385E-3
292.975616E-3
293.000221E-3
293.520355E-3
294.499397E-3
295.763969E-3
297.667694E-3
299.714470E-3
302.063370E-3
304.262352E-3
306.075668E-3
307.589722E-3
308.259773E-3
308.320999E-3
307.917595E-3
307.011223E-3
306.016731E-3
304.995346E-3
303.983116E-3
303.159714E-3
302.329445E-3
301.928902E-3
301.603317E-3
301.409340E-3
301.354408E-3
301.309776E-3
301.431084E-3
301.439667E-3
301.527786E-3
301.389885E-3
301.089478E-3
300.699806E-3
300.225449E-3
299.719620E-3
299.346542E-3
299.075317E-3
298.931122E-3
298.801804E-3
298.841286E-3
298.987770E-3
299.165726E-3
299.359131E-3
299.469566E-3
299.466133E-3
299.518776E-3
299.319077E-3
299.235535E-3
298.937988E-3
298.661613E-3
298.410416E-3
298.064232E-3
297.659683E-3
297.497177E-3
297.266006E-3
296.959877E-3
296.783638E-3
296.589088E-3
296.364784E-3
296.254349E-3
296.167946E-3
295.926476E-3
295.800018E-3
295.588875E-3
295.578003E-3
295.496178E-3
295.394897E-3
295.380592E-3
295.215797E-3
295.152855E-3
295.060158E-3
294.921112E-3
294.933701E-3
294.865608E-3
294.778061E-3
294.854164E-3
294.791222E-3
294.794083E-3
294.664764E-3
294.482231E-3
294.545174E-3
294.369507E-3
294.379234E-3
294.317436E-3
294.213867E-3
294.188690E-3
294.118309E-3
294.159508E-3
294.014168E-3
294.005013E-3
293.944359E-3
293.785858E-3
293.717194E-3
293.650246E-3
293.527794E-3
293.392754E-3
293.289757E-3
293.364143E-3
293.328094E-3
293.313789E-3
293.192482E-3
292.971039E-3
292.832565E-3
292.664909E-3
292.552757E-3
292.457771E-3
292.334175E-3
292.347908E-3
292.556763E-3
293.258286E-3
294.446182E-3
296.116447E-3
298.123169E-3
300.290680E-3
302.203560E-3
303.925323E-3
305.079460E-3
305.770111E-3
305.644226E-3
305.145836E-3
304.253197E-3
303.121948E-3
302.136612E-3
301.091194E-3
300.227737E-3
299.578857E-3
298.922539E-3
298.596954E-3
298.381805E-3
298.257065E-3
298.320007E-3
298.309708E-3
298.381805E-3
298.206139E-3
298.087120E-3
297.747803E-3
297.268295E-3
297.032547E-3
296.609688E-3
296.483231E-3
296.567917E-3
296.601105E-3
296.780205E-3
297.097206E-3
297.263145E-3
297.487450E-3
297.504044E-3
297.513199E-3
297.502899E-3
297.429657E-3
297.356415E-3
297.046280E-3
296.789932E-3
296.477509E-3
296.261215E-3
296.003723E-3
295.519638E-3
295.381165E-3
295.145416E-3
295.002937E-3
294.935989E-3
294.725990E-3
294.637871E-3
294.459343E-3
294.345474E-3
294.252777E-3
294.006157E-3
294.036484E-3
293.940353E-3
293.817902E-3
293.902588E-3
293.726921E-3
293.809891E-3
293.671989E-3
293.700600E-3
293.633652E-3
293.439674E-3
293.445396E-3
293.453979E-3
293.409348E-3
293.316650E-3
293.234253E-3
293.256569E-3
293.255997E-3
293.239975E-3
293.236542E-3
293.058014E-3
293.114090E-3
292.998505E-3
292.970467E-3
292.972183E-3
292.836571E-3
292.805672E-3
292.777061E-3
292.795372E-3
292.811394E-3
292.735291E-3
292.712402E-3
292.565918E-3
292.336464E-3
292.201424E-3
292.069817E-3
291.914177E-3
291.853523E-3
291.852379E-3
292.000580E-3
292.247200E-3
293.041992E-3
294.107437E-3
295.766258E-3
297.766113E-3
299.807167E-3
301.997566E-3
303.842354E-3
305.276871E-3
306.109428E-3
306.244469E-3
306.119728E-3
305.367279E-3
304.367638E-3
303.346825E-3
302.215576E-3
301.362991E-3
300.591660E-3
300.068092E-3
299.664116E-3
299.364281E-3
299.341393E-3
299.297905E-3
299.446678E-3
299.621773E-3
299.617195E-3
299.604034E-3
299.340820E-3
298.909378E-3
298.626709E-3
298.033905E-3
297.753525E-3
297.504044E-3
297.372437E-3
297.377014E-3
297.457695E-3
297.644234E-3
297.825050E-3
297.973824E-3
298.164368E-3
298.078537E-3
298.054504E-3
297.969246E-3
297.906303E-3
297.810173E-3
297.549248E-3
297.321510E-3
297.068024E-3
296.747589E-3
296.480370E-3
296.187401E-3
296.036339E-3
295.743942E-3
295.587158E-3
295.461273E-3
295.281601E-3
295.295906E-3
295.159721E-3
295.022392E-3
294.938850E-3
294.709396E-3
294.670486E-3
294.655609E-3
294.632721E-3
294.562912E-3
294.466209E-3
294.384956E-3
294.275093E-3
294.209290E-3
294.256210E-3
294.189262E-3
294.227028E-3
294.094849E-3
294.073105E-3
294.111443E-3
293.952370E-3
293.964958E-3
293.908310E-3
293.812752E-3
293.751526E-3
293.682861E-3
293.694305E-3
293.766403E-3
293.698883E-3
293.692589E-3
293.576431E-3
293.664551E-3
293.595314E-3
293.490601E-3
293.548965E-3
293.474007E-3
293.371010E-3
293.311501E-3
293.100357E-3
293.165016E-3
293.011093E-3
292.908096E-3
292.837143E-3
292.725563E-3
292.634010E-3
292.659187E-3
293.004799E-3
293.695450E-3
294.861031E-3
296.463776E-3
298.294830E-3
300.552177E-3
302.688217E-3
304.440308E-3
305.772972E-3
306.412125E-3
306.631851E-3
306.226158E-3
305.390739E-3
304.452324E-3
303.363419E-3
302.307701E-3
301.478577E-3
300.797081E-3
300.397682E-3
300.030899E-3
299.870682E-3
299.721909E-3
299.555969E-3
299.747086E-3
299.710464E-3
299.652100E-3
299.498749E-3
299.085045E-3
298.772621E-3
298.269653E-3
297.894287E-3
297.650528E-3
297.490883E-3
297.382736E-3
297.257996E-3
297.439384E-3
297.593307E-3
297.740364E-3
297.973824E-3
297.978401E-3
298.057938E-3
298.072243E-3
297.962379E-3
297.889137E-3
297.803879E-3
297.706604E-3
297.357559E-3
296.998215E-3
296.725273E-3
296.417427E-3
296.041489E-3
295.945930E-3
295.731354E-3
295.622635E-3
295.519638E-3
295.393753E-3
295.319939E-3
295.179749E-3
295.172310E-3
295.025253E-3
294.827271E-3
294.748878E-3
294.613838E-3
294.604111E-3
294.430161E-3
294.412994E-3
294.449615E-3
294.382095E-3
294.362640E-3
294.336319E-3
294.256783E-3
294.158936E-3
294.015312E-3
294.018173E-3
293.985558E-3
293.899155E-3
293.885422E-3
293.772697E-3
293.820190E-3
293.690872E-3
293.655396E-3
293.647385E-3
293.528366E-3
293.550110E-3
293.346405E-3
293.378448E-3
293.389320E-3
293.238831E-3
293.266869E-3
293.097496E-3
293.110657E-3
293.010521E-3
292.879486E-3
292.885208E-3
292.647171E-3
292.498398E-3
292.454338E-3
292.223167E-3
292.330742E-3
292.109871E-3
292.228317E-3
292.662621E-3
293.623352E-3
295.084190E-3
296.880341E-3
298.797226E-3
300.668907E-3
302.289963E-3
303.701591E-3
304.316139E-3
304.433441E-3
304.061508E-3
303.254128E-3
302.335739E-3
301.461411E-3
300.567627E-3
299.742508E-3
298.887062E-3
298.347473E-3
297.900581E-3
297.686005E-3
297.576714E-3
297.442245E-3
297.569275E-3
297.499466E-3
297.433090E-3
297.387886E-3
296.827126E-3
296.562767E-3
296.241188E-3
296.056366E-3
295.980835E-3
295.888138E-3
296.088409E-3
296.189117E-3
296.481514E-3
296.686363E-3
296.912956E-3
297.054863E-3
297.047424E-3
297.081757E-3
297.135544E-3
296.951866E-3
296.873474E-3
296.516418E-3
296.283531E-3
296.011162E-3
295.651245E-3
295.506477E-3
295.101357E-3
294.974327E-3
294.872475E-3
294.685364E-3
294.716263E-3
294.628143E-3
294.609261E-3
294.489098E-3
294.363213E-3
294.220734E-3
294.011879E-3
