Notes :


2023-11-10 ¿ÀÈÄ 11:45:31
Volts
Ch : LED 2,
820.513344E-3
820.382881E-3
820.820618E-3
821.235466E-3
821.710968E-3
822.419930E-3
822.653961E-3
822.886848E-3
822.748947E-3
822.604179E-3
822.180748E-3
821.591377E-3
821.167946E-3
820.608330E-3
819.986343E-3
819.252777E-3
818.904305E-3
818.211365E-3
817.450905E-3
817.071533E-3
816.549110E-3
816.149712E-3
815.776062E-3
814.512634E-3
814.945221E-3
814.829063E-3
814.489746E-3
814.260864E-3
813.987923E-3
813.922691E-3
814.053726E-3
813.500404E-3
813.190269E-3
812.909889E-3
812.802887E-3
812.663841E-3
812.452698E-3
812.298775E-3
812.073326E-3
812.291908E-3
811.819839E-3
811.533165E-3
811.428452E-3
811.314011E-3
811.137772E-3
810.932922E-3
810.645103E-3
810.514641E-3
810.080910E-3
809.940147E-3
809.783936E-3
809.545898E-3
809.442329E-3
809.241486E-3
809.111595E-3
808.867836E-3
808.535385E-3
808.117104E-3
807.983780E-3
807.969475E-3
807.709122E-3
807.366371E-3
807.118607E-3
806.610489E-3
806.329536E-3
805.872345E-3
805.554771E-3
805.312157E-3
804.967690E-3
804.964256E-3
805.115891E-3
805.507278E-3
807.024193E-3
809.534454E-3
813.431168E-3
818.265724E-3
823.238754E-3
827.824974E-3
831.703377E-3
834.461403E-3
835.969162E-3
836.301613E-3
836.068726E-3
834.518051E-3
832.741928E-3
830.918884E-3
829.159927E-3
827.471924E-3
826.009369E-3
825.044060E-3
824.376869E-3
823.647881E-3
823.889351E-3
823.925972E-3
824.199486E-3
824.363708E-3
824.226379E-3
823.951149E-3
822.837067E-3
821.505547E-3
820.515633E-3
819.689369E-3
819.400978E-3
819.375229E-3
819.604683E-3
820.244408E-3
820.861816E-3
821.740150E-3
822.221375E-3
822.835922E-3
822.730064E-3
822.382736E-3
822.035980E-3
821.481514E-3
821.182823E-3
820.624924E-3
819.826126E-3
819.288826E-3
818.477440E-3
817.837715E-3
817.164230E-3
816.602898E-3
816.081047E-3
815.515709E-3
815.078545E-3
814.770126E-3
814.449692E-3
814.410782E-3
814.034271E-3
813.735008E-3
813.373947E-3
813.019180E-3
812.940788E-3
812.473297E-3
812.406921E-3
812.222099E-3
811.956024E-3
811.873627E-3
811.563492E-3
811.523437E-3
811.459923E-3
811.350060E-3
811.211586E-3
810.706329E-3
810.808754E-3
810.747528E-3
810.720062E-3
810.644531E-3
810.336113E-3
810.217094E-3
810.056305E-3
809.793091E-3
809.870338E-3
809.488106E-3
809.315300E-3
809.124756E-3
808.827209E-3
808.606339E-3
808.364296E-3
808.152008E-3
807.929993E-3
807.678223E-3
807.444763E-3
807.068825E-3
806.760979E-3
806.514359E-3
806.088638E-3
805.787086E-3
805.435753E-3
805.391121E-3
805.360794E-3
805.452919E-3
805.815697E-3
806.819916E-3
808.846092E-3
812.274170E-3
816.575432E-3
821.297264E-3
825.720406E-3
829.708099E-3
832.808876E-3
834.680557E-3
835.477638E-3
835.151482E-3
834.205055E-3
832.640648E-3
830.736351E-3
829.051208E-3
827.264214E-3
825.750732E-3
824.654388E-3
823.777771E-3
823.197556E-3
822.918320E-3
822.904015E-3
822.906303E-3
822.772980E-3
822.798157E-3
821.927834E-3
820.897865E-3
819.842720E-3
818.875122E-3
818.349266E-3
818.140984E-3
818.194771E-3
818.780136E-3
819.370079E-3
820.168304E-3
820.856094E-3
821.401405E-3
821.815681E-3
821.760750E-3
821.737289E-3
821.616554E-3
821.060371E-3
820.472145E-3
819.727135E-3
819.293976E-3
818.514633E-3
817.823410E-3
817.243767E-3
816.514206E-3
815.638161E-3
815.272522E-3
814.877129E-3
814.645958E-3
814.160728E-3
813.907814E-3
813.716125E-3
813.401413E-3
813.216591E-3
813.025475E-3
812.819481E-3
812.625504E-3
812.397766E-3
812.152290E-3
811.895370E-3
811.730576E-3
811.661911E-3
811.380959E-3
811.204147E-3
811.038208E-3
810.823631E-3
810.634232E-3
810.620499E-3
810.455132E-3
810.074043E-3
809.975624E-3
809.777069E-3
809.472656E-3
809.443474E-3
809.102440E-3
809.016609E-3
808.660698E-3
808.555984E-3
808.572006E-3
808.435249E-3
808.267593E-3
807.703972E-3
807.698822E-3
807.595253E-3
807.437325E-3
807.167816E-3
806.908607E-3
806.517220E-3
806.213379E-3
805.594254E-3
804.950523E-3
804.683876E-3
804.504776E-3
804.376030E-3
804.132843E-3
804.241562E-3
804.916191E-3
806.176758E-3
809.170532E-3
812.829781E-3
817.687798E-3
822.744942E-3
827.491379E-3
831.491089E-3
834.308052E-3
836.159706E-3
836.627769E-3
836.285019E-3
835.021591E-3
833.240318E-3
831.595230E-3
829.846573E-3
828.267860E-3
827.085686E-3
826.028824E-3
825.209427E-3
825.208282E-3
825.225449E-3
825.536728E-3
825.872040E-3
826.239967E-3
826.428795E-3
826.102638E-3
825.424004E-3
824.299049E-3
823.049355E-3
821.818542E-3
821.011734E-3
820.718765E-3
820.715904E-3
821.059799E-3
821.543884E-3
822.129250E-3
822.488022E-3
822.965240E-3
823.346329E-3
823.328018E-3
823.070526E-3
822.821617E-3
822.268295E-3
821.763039E-3
821.076965E-3
820.263290E-3
819.604683E-3
818.978119E-3
818.423653E-3
817.735863E-3
817.181969E-3
816.719055E-3
816.273308E-3
815.899658E-3
815.675926E-3
815.322876E-3
815.114021E-3
814.699745E-3
814.518356E-3
814.281464E-3
813.949013E-3
813.779068E-3
813.542175E-3
813.106155E-3
813.072968E-3
812.838364E-3
812.686157E-3
812.400627E-3
812.162018E-3
811.984062E-3
811.766052E-3
811.688805E-3
811.517143E-3
811.351776E-3
811.265373E-3
811.097145E-3
811.046219E-3
810.789299E-3
810.490036E-3
810.417938E-3
810.066605E-3
809.908104E-3
809.744453E-3
809.710693E-3
809.466934E-3
809.183693E-3
809.052086E-3
808.844948E-3
808.648109E-3
808.427238E-3
808.166885E-3
808.109093E-3
807.680511E-3
807.475090E-3
807.206726E-3
806.712341E-3
806.451416E-3
806.006241E-3
805.581093E-3
805.224037E-3
805.104446E-3
805.193710E-3
805.326462E-3
806.197929E-3
808.172035E-3
811.026764E-3
815.333748E-3
820.259285E-3
825.111008E-3
829.685211E-3
833.133888E-3
835.725403E-3
836.771393E-3
836.986542E-3
836.172867E-3
834.708595E-3
833.254051E-3
831.178665E-3
829.570198E-3
828.105354E-3
826.952362E-3
826.151848E-3
825.579643E-3
825.465202E-3
825.205994E-3
825.536728E-3
826.108360E-3
826.216507E-3
825.980759E-3
825.506401E-3
824.410629E-3
823.190689E-3
822.007370E-3
821.026039E-3
820.668411E-3
820.614052E-3
820.865822E-3
821.220589E-3
821.942139E-3
822.394753E-3
822.632790E-3
823.035049E-3
823.016739E-3
822.970963E-3
822.778702E-3
822.222519E-3
821.970177E-3
821.343040E-3
820.713043E-3
819.747162E-3
819.302559E-3
818.710327E-3
818.115234E-3
817.731285E-3
817.092705E-3
816.599464E-3
816.245842E-3
815.736580E-3
815.511703E-3
815.136337E-3
814.757538E-3
814.561272E-3
814.217377E-3
813.951302E-3
813.708115E-3
813.464355E-3
813.305283E-3
812.977982E-3
812.923622E-3
812.754822E-3
812.521935E-3
812.328529E-3
812.075043E-3
811.982918E-3
811.902237E-3
811.673355E-3
811.626434E-3
811.296844E-3
811.129761E-3
810.809898E-3
810.548973E-3
810.487747E-3
810.081482E-3
809.806252E-3
809.577370E-3
809.373665E-3
809.256363E-3
808.888435E-3
808.760262E-3
808.568573E-3
808.248711E-3
808.032417E-3
807.647896E-3
807.455635E-3
807.013893E-3
806.727791E-3
806.508064E-3
806.070328E-3
805.738449E-3
805.504417E-3
805.111885E-3
804.811478E-3
804.433823E-3
804.203224E-3
804.286194E-3
804.396057E-3
804.849815E-3
805.696678E-3
807.551193E-3
810.761833E-3
814.768982E-3
819.412422E-3
823.832703E-3
827.731705E-3
830.841637E-3
832.597160E-3
833.382797E-3
833.152199E-3
832.352829E-3
831.217575E-3
829.209709E-3
827.498245E-3
825.706673E-3
824.217224E-3
822.934914E-3
821.997070E-3
821.634865E-3
821.242905E-3
821.319008E-3
821.467781E-3
821.372223E-3
821.289253E-3
820.792007E-3
819.939423E-3
818.922043E-3
817.909813E-3
817.521858E-3
817.565346E-3
817.776489E-3
818.275452E-3
818.982124E-3
819.877625E-3
820.542526E-3
821.199417E-3
821.476364E-3
821.529007E-3
821.286392E-3
821.194267E-3
820.529366E-3
820.077896E-3
819.395828E-3
818.828773E-3
818.239403E-3
817.506409E-3
816.776276E-3
815.801811E-3
815.477371E-3
815.012169E-3
814.585876E-3
814.253998E-3
813.829994E-3
813.637733E-3
813.318443E-3
813.072968E-3
812.719345E-3
812.603760E-3
812.556839E-3
812.282753E-3
812.087631E-3
811.952019E-3
811.653900E-3
811.568069E-3
811.332893E-3
811.028481E-3
810.977554E-3
810.641670E-3
810.581017E-3
810.378456E-3
810.226822E-3
810.174179E-3
809.986496E-3
809.876633E-3
809.389114E-3
809.396553E-3
809.245491E-3
808.963966E-3
808.858681E-3
808.740234E-3
808.545685E-3
808.430099E-3
808.215523E-3
807.967758E-3
807.662773E-3
807.539749E-3
807.452774E-3
807.095146E-3
806.808472E-3
806.447411E-3
805.723572E-3
805.449486E-3
805.135345E-3
804.846954E-3
804.517937E-3
804.273033E-3
804.231834E-3
804.342270E-3
804.811478E-3
805.879211E-3
808.515930E-3
812.389755E-3
816.895294E-3
821.697235E-3
826.434517E-3
830.202484E-3
833.292961E-3
834.852219E-3
835.863304E-3
835.305405E-3
834.245682E-3
832.723045E-3
830.941772E-3
829.456329E-3
827.886772E-3
826.530647E-3
825.533295E-3
824.965668E-3
824.585724E-3
824.482727E-3
824.610329E-3
825.042343E-3
825.160789E-3
825.330162E-3
824.908447E-3
824.049568E-3
822.877121E-3
821.729279E-3
820.857239E-3
820.289612E-3
819.900513E-3
820.048141E-3
820.295334E-3
820.947075E-3
821.478653E-3
822.133255E-3
822.403336E-3
822.489166E-3
822.585869E-3
822.328377E-3
821.855736E-3
821.410561E-3
820.818329E-3
820.325089E-3
819.818115E-3
818.994713E-3
818.379021E-3
817.606544E-3
817.174530E-3
816.558266E-3
816.059303E-3
815.618134E-3
815.196419E-3
814.821053E-3
814.664841E-3
814.466858E-3
814.192200E-3
813.835144E-3
813.721848E-3
813.337898E-3
813.108444E-3
812.959671E-3
812.678146E-3
812.452698E-3
812.183189E-3
811.977768E-3
811.945152E-3
811.577225E-3
811.426163E-3
811.484528E-3
811.104012E-3
810.948372E-3
810.653114E-3
810.616493E-3
810.392761E-3
810.257149E-3
810.246849E-3
809.824562E-3
809.941864E-3
809.523582E-3
809.247208E-3
809.136200E-3
808.902168E-3
808.812904E-3
808.608055E-3
808.222389E-3
808.106804E-3
807.893944E-3
807.665634E-3
807.415009E-3
807.195282E-3
806.857109E-3
806.427383E-3
806.042862E-3
805.554771E-3
805.042076E-3
804.801750E-3
804.499626E-3
804.285622E-3
804.408073E-3
804.846382E-3
806.156731E-3
808.448982E-3
812.215805E-3
816.641808E-3
821.222305E-3
825.992775E-3
829.850578E-3
832.957649E-3
834.758377E-3
835.487938E-3
835.403252E-3
834.296608E-3
833.005714E-3
831.414986E-3
829.724693E-3
828.300476E-3
826.923180E-3
825.940704E-3
825.366783E-3
825.113869E-3
825.201416E-3
825.270653E-3
825.267220E-3
825.848007E-3
825.977898E-3
825.730133E-3
824.941635E-3
823.856163E-3
822.694016E-3
821.637154E-3
820.972824E-3
820.598030E-3
820.539093E-3
820.915031E-3
821.309280E-3
821.895218E-3
822.359276E-3
822.681427E-3
822.834778E-3
822.772408E-3
822.596169E-3
822.235107E-3
821.826553E-3
821.349335E-3
820.773125E-3
820.205498E-3
819.447899E-3
818.662834E-3
818.175888E-3
817.481804E-3
816.953659E-3
816.359138E-3
815.956306E-3
815.704536E-3
815.150642E-3
814.915466E-3
814.176178E-3
814.157295E-3
813.997078E-3
813.556480E-3
813.326454E-3
812.917328E-3
812.687302E-3
812.533951E-3
812.317657E-3
812.167740E-3
811.883354E-3
811.752319E-3
811.722565E-3
811.330605E-3
811.214447E-3
810.989571E-3
810.791588E-3
810.697174E-3
810.555267E-3
810.441971E-3
810.238838E-3
810.080338E-3
809.904671E-3
809.680367E-3
809.668350E-3
809.387970E-3
809.259796E-3
809.231186E-3
808.798027E-3
808.704758E-3
808.508492E-3
808.202934E-3
808.069038E-3
807.681656E-3
807.469940E-3
807.223320E-3
806.766701E-3
806.544685E-3
806.011963E-3
805.639458E-3
805.256081E-3
805.039215E-3
804.991722E-3
804.923058E-3
804.964256E-3
805.515862E-3
806.417656E-3
808.586884E-3
811.787224E-3
815.919113E-3
820.287895E-3
824.625778E-3
828.414345E-3
831.017876E-3
832.405472E-3
832.939911E-3
832.640076E-3
831.834984E-3
830.344391E-3
828.773117E-3
827.178955E-3
825.584793E-3
824.416351E-3
823.361206E-3
822.715759E-3
822.216797E-3
822.116661E-3
822.157860E-3
822.194481E-3
822.311211E-3
821.912956E-3
821.567917E-3
820.674706E-3
819.493103E-3
818.609619E-3
818.135262E-3
818.039703E-3
818.335533E-3
818.797874E-3
819.887924E-3
820.258141E-3
820.806313E-3
821.341896E-3
821.465492E-3
821.573639E-3
821.288681E-3
821.008873E-3
820.638084E-3
820.273590E-3
819.550896E-3
818.781281E-3
818.147850E-3
817.579079E-3
816.837502E-3
816.298485E-3
815.735435E-3
815.279961E-3
814.496040E-3
814.339256E-3
814.330673E-3
814.060020E-3
813.907814E-3
813.827133E-3
813.413429E-3
813.405991E-3
813.154793E-3
812.730789E-3
812.735939E-3
812.381172E-3
812.298775E-3
812.123108E-3
811.886787E-3
811.723709E-3
811.396408E-3
811.313438E-3
811.318588E-3
811.003876E-3
811.020470E-3
810.883141E-3
810.758972E-3
810.567856E-3
810.459137E-3
810.412788E-3
810.268021E-3
810.088348E-3
809.917831E-3
809.686661E-3
809.646606E-3
809.231758E-3
809.081841E-3
808.749962E-3
808.506203E-3
808.280754E-3
808.132553E-3
807.577515E-3
806.962967E-3
806.501770E-3
806.110382E-3
805.692101E-3
805.595970E-3
805.503845E-3
805.377960E-3
805.700111E-3
806.391335E-3
808.263016E-3
811.167526E-3
815.010452E-3
819.558907E-3
823.930550E-3
827.939987E-3
831.310844E-3
833.452034E-3
834.742928E-3
834.813309E-3
834.314919E-3
833.001137E-3
831.599236E-3
830.035973E-3
828.317070E-3
827.193832E-3
826.095200E-3
825.338173E-3
824.952507E-3
824.762535E-3
824.977684E-3
825.037766E-3
825.210571E-3
825.054932E-3
824.919319E-3
824.207497E-3
823.278809E-3
821.968460E-3
820.981979E-3
820.264435E-3
820.139122E-3
820.211220E-3
820.313072E-3
821.068954E-3
821.618843E-3
822.325516E-3
822.713470E-3
822.885704E-3
822.989845E-3
822.674561E-3
822.432518E-3
822.166443E-3
821.470070E-3
820.858955E-3
820.203209E-3
819.576645E-3
818.877411E-3
818.205643E-3
817.751884E-3
817.235184E-3
816.405487E-3
816.165733E-3
815.851021E-3
815.708542E-3
815.262222E-3
815.018463E-3
814.734650E-3
814.413643E-3
814.339828E-3
814.031982E-3
813.955879E-3
813.545036E-3
813.445473E-3
813.242340E-3
812.904739E-3
812.786293E-3
812.388039E-3
812.148857E-3
812.019539E-3
811.842728E-3
811.680794E-3
811.471939E-3
811.334610E-3
811.309433E-3
810.943222E-3
811.116028E-3
810.609627E-3
810.174751E-3
810.158157E-3
809.993362E-3
809.777069E-3
809.607697E-3
809.382248E-3
809.294128E-3
809.081268E-3
808.873558E-3
808.712196E-3
808.342552E-3
808.164597E-3
807.695961E-3
807.440186E-3
807.128334E-3
806.752968E-3
806.457710E-3
806.017685E-3
805.637741E-3
805.396271E-3
805.242348E-3
805.449486E-3
806.028557E-3
807.398987E-3
810.070610E-3
814.181900E-3
818.633652E-3
823.150063E-3
827.721405E-3
831.557465E-3
834.423637E-3
836.262703E-3
836.810303E-3
836.609459E-3
835.296822E-3
834.074593E-3
832.752228E-3
831.231308E-3
829.937553E-3
828.843498E-3
828.072739E-3
827.590942E-3
827.304840E-3
827.455902E-3
827.671051E-3
827.814102E-3
828.133392E-3
828.139687E-3
827.723122E-3
827.026749E-3
825.707817E-3
824.401474E-3
823.281097E-3
822.494316E-3
822.137833E-3
822.059441E-3
822.382164E-3
822.734070E-3
823.273659E-3
823.908806E-3
824.197769E-3
824.378586E-3
824.293327E-3
824.335670E-3
