Notes :


2023-11-06 ¿ÀÈÄ 10:07:09
Volts
Ch : LED 2,
525.033188E-3
524.940491E-3
524.996567E-3
524.840927E-3
524.807739E-3
524.676132E-3
524.775124E-3
524.562836E-3
524.428368E-3
524.345970E-3
524.153137E-3
523.801804E-3
523.566055E-3
523.391533E-3
523.303413E-3
523.197556E-3
523.212433E-3
523.147202E-3
523.118019E-3
523.100853E-3
522.939491E-3
522.827339E-3
522.772408E-3
522.705460E-3
522.676277E-3
522.649956E-3
522.782707E-3
522.743225E-3
522.737503E-3
522.702599E-3
522.607613E-3
522.587585E-3
522.546387E-3
522.556686E-3
522.620773E-3
522.588730E-3
522.538376E-3
522.441101E-3
522.431374E-3
522.522926E-3
522.418785E-3
522.346687E-3
522.243690E-3
522.207642E-3
522.141838E-3
522.042274E-3
521.904373E-3
521.786499E-3
521.689796E-3
521.636581E-3
521.582222E-3
521.604538E-3
521.787071E-3
522.155571E-3
522.924614E-3
524.067879E-3
525.298691E-3
526.450539E-3
527.435303E-3
528.101921E-3
528.473282E-3
528.591156E-3
528.412628E-3
528.228951E-3
527.923393E-3
527.403259E-3
527.004433E-3
526.612473E-3
526.223946E-3
525.957870E-3
525.757599E-3
525.679207E-3
525.597382E-3
525.660896E-3
525.793076E-3
525.799942E-3
525.674057E-3
525.473785E-3
525.191689E-3
525.057220E-3
524.846077E-3
524.993134E-3
525.093842E-3
525.231743E-3
525.395966E-3
525.533295E-3
525.643158E-3
525.659180E-3
525.651169E-3
525.354767E-3
525.267220E-3
525.100708E-3
524.981689E-3
524.855804E-3
524.708748E-3
524.407196E-3
524.225807E-3
523.916245E-3
523.768616E-3
523.638725E-3
523.442459E-3
523.457909E-3
523.346329E-3
523.176956E-3
523.088837E-3
522.973824E-3
522.863388E-3
522.716904E-3
522.673416E-3
522.715187E-3
522.620773E-3
522.566414E-3
522.605324E-3
522.490883E-3
522.233391E-3
522.211075E-3
522.156143E-3
522.121239E-3
522.153282E-3
522.229958E-3
522.251701E-3
522.113800E-3
522.100639E-3
521.927261E-3
521.789932E-3
521.672630E-3
521.454620E-3
521.333313E-3
521.277237E-3
521.318436E-3
521.244049E-3
521.137047E-3
521.063805E-3
520.894432E-3
520.838356E-3
520.980263E-3
521.377373E-3
522.246552E-3
523.365211E-3
524.557114E-3
525.717545E-3
526.928329E-3
527.483940E-3
527.592659E-3
527.634430E-3
527.558899E-3
527.251053E-3
526.891136E-3
526.526642E-3
526.239967E-3
525.950432E-3
525.611687E-3
525.303841E-3
524.956512E-3
524.823761E-3
524.682999E-3
524.872398E-3
524.852943E-3
524.903297E-3
524.765396E-3
524.552536E-3
524.225235E-3
523.990059E-3
523.666763E-3
523.744011E-3
523.798370E-3
523.923111E-3
524.203491E-3
524.450684E-3
524.440956E-3
524.317932E-3
524.212074E-3
524.073601E-3
523.912239E-3
523.869324E-3
523.744583E-3
523.600388E-3
523.549461E-3
523.328018E-3
523.140335E-3
522.912025E-3
522.651672E-3
522.458839E-3
522.263718E-3
522.394180E-3
522.285461E-3
522.147560E-3
522.122383E-3
522.061157E-3
522.031975E-3
521.858025E-3
521.792793E-3
521.817398E-3
521.787071E-3
521.795082E-3
521.728134E-3
521.673203E-3
521.695518E-3
521.513557E-3
521.458054E-3
521.487808E-3
521.471214E-3
521.623421E-3
521.456909E-3
521.380806E-3
521.372795E-3
521.245193E-3
521.199417E-3
521.163940E-3
521.100426E-3
521.052361E-3
520.744514E-3
520.717621E-3
520.677567E-3
520.561409E-3
520.355415E-3
520.222664E-3
520.117950E-3
520.148849E-3
520.283318E-3
520.723915E-3
521.348190E-3
522.397041E-3
523.510551E-3
524.600601E-3
525.644302E-3
526.447678E-3
526.986122E-3
527.318573E-3
527.450180E-3
527.167511E-3
526.888847E-3
526.402473E-3
526.013947E-3
525.707817E-3
525.429153E-3
525.094414E-3
524.959373E-3
524.842644E-3
524.746513E-3
524.822617E-3
524.895287E-3
524.899292E-3
524.917030E-3
524.815750E-3
524.692726E-3
524.371719E-3
524.127388E-3
523.990631E-3
523.923111E-3
524.028397E-3
524.091911E-3
524.282455E-3
524.360275E-3
524.303055E-3
524.428368E-3
524.399185E-3
524.364853E-3
524.204063E-3
524.202347E-3
524.108505E-3
524.017525E-3
523.783493E-3
523.370934E-3
523.246193E-3
523.075676E-3
523.027039E-3
522.992134E-3
522.851944E-3
522.789574E-3
522.763252E-3
522.587585E-3
522.500610E-3
522.395897E-3
522.387314E-3
522.260857E-3
522.182465E-3
522.239113E-3
522.273445E-3
522.316933E-3
522.216225E-3
522.140694E-3
522.096634E-3
522.042274E-3
522.022820E-3
522.041130E-3
522.032547E-3
522.085190E-3
522.007942E-3
521.949577E-3
522.074318E-3
521.987343E-3
521.910667E-3
521.780205E-3
521.751595E-3
521.695518E-3
521.583939E-3
521.518707E-3
521.403122E-3
521.228600E-3
521.154213E-3
521.137047E-3
521.195984E-3
521.197128E-3
521.221733E-3
521.272659E-3
521.793365E-3
522.451973E-3
523.393250E-3
524.610901E-3
525.790787E-3
526.815033E-3
527.561760E-3
527.982903E-3
528.136826E-3
527.883911E-3
527.690506E-3
527.387238E-3
527.000999E-3
526.669121E-3
526.445389E-3
526.059723E-3
525.813675E-3
525.553894E-3
525.541306E-3
525.629425E-3
525.649452E-3
525.755882E-3
525.774193E-3
525.640297E-3
525.486946E-3
525.149918E-3
525.008583E-3
524.953651E-3
524.877548E-3
524.906158E-3
525.126457E-3
525.369644E-3
525.501823E-3
525.557899E-3
525.615692E-3
525.504112E-3
525.525856E-3
525.276947E-3
525.200272E-3
525.101852E-3
525.013733E-3
524.897003E-3
524.748230E-3
524.537659E-3
524.213219E-3
523.920250E-3
523.809814E-3
523.706818E-3
523.615265E-3
523.656464E-3
523.700523E-3
523.620415E-3
523.409271E-3
523.366928E-3
523.291969E-3
523.169518E-3
523.146629E-3
523.080254E-3
523.024750E-3
522.964668E-3
522.949791E-3
522.746086E-3
522.811890E-3
522.826195E-3
522.802734E-3
522.740364E-3
522.737503E-3
522.773552E-3
522.655678E-3
522.604752E-3
522.663116E-3
522.531509E-3
522.392464E-3
522.313499E-3
522.243118E-3
522.083473E-3
522.005081E-3
521.906662E-3
521.797371E-3
521.662903E-3
521.546173E-3
521.500969E-3
521.462059E-3
521.602821E-3
522.001648E-3
522.788429E-3
523.941422E-3
525.175667E-3
526.144409E-3
527.093697E-3
527.587509E-3
528.096771E-3
528.029823E-3
527.940559E-3
527.667618E-3
527.231026E-3
526.898575E-3
526.434517E-3
526.194763E-3
525.890350E-3
525.648308E-3
525.532722E-3
525.303268E-3
525.194550E-3
525.256920E-3
525.302124E-3
525.216866E-3
525.112152E-3
524.963951E-3
524.635506E-3
524.448967E-3
524.379158E-3
524.273300E-3
524.299049E-3
524.371147E-3
524.399757E-3
524.552536E-3
524.584579E-3
524.621773E-3
524.555969E-3
524.479866E-3
524.406052E-3
524.328232E-3
524.263573E-3
524.075317E-3
523.943138E-3
523.702240E-3
523.414421E-3
523.141479E-3
522.833061E-3
522.709465E-3
522.481728E-3
522.510338E-3
522.542953E-3
522.627640E-3
522.506905E-3
522.446823E-3
522.205925E-3
522.134972E-3
521.992493E-3
521.936417E-3
521.894073E-3
521.906662E-3
521.754456E-3
521.680641E-3
521.817398E-3
521.783066E-3
521.646309E-3
521.501541E-3
521.470070E-3
521.298981E-3
521.250916E-3
521.268654E-3
521.349335E-3
521.328163E-3
521.218300E-3
521.233177E-3
521.146774E-3
521.187973E-3
521.020889E-3
520.814323E-3
520.723915E-3
520.520210E-3
520.479012E-3
520.504189E-3
520.303345E-3
520.245552E-3
520.310211E-3
520.309639E-3
520.646095E-3
521.387100E-3
522.446251E-3
523.503685E-3
524.625206E-3
525.702095E-3
526.571274E-3
527.277374E-3
527.343750E-3
527.338600E-3
527.251053E-3
526.951790E-3
526.619911E-3
526.273155E-3
526.063728E-3
525.703812E-3
525.403404E-3
525.163078E-3
525.137901E-3
524.956512E-3
525.074387E-3
525.157928E-3
525.264931E-3
525.395966E-3
525.159645E-3
524.830055E-3
524.407768E-3
524.160576E-3
524.018097E-3
524.042702E-3
524.102783E-3
524.288177E-3
524.488449E-3
524.651527E-3
524.608040E-3
524.589729E-3
524.516487E-3
524.437523E-3
524.436378E-3
524.357414E-3
524.288177E-3
524.257851E-3
524.036980E-3
523.771477E-3
523.490524E-3
523.283958E-3
523.048782E-3
522.967529E-3
522.914314E-3
522.887993E-3
522.715759E-3
522.726631E-3
522.668266E-3
522.599030E-3
522.424507E-3
522.336960E-3
522.267723E-3
522.237968E-3
522.257996E-3
522.347260E-3
522.241402E-3
522.128677E-3
522.180748E-3
522.120094E-3
522.074890E-3
521.983337E-3
521.896362E-3
522.003365E-3
521.890640E-3
521.946144E-3
521.989632E-3
521.859741E-3
521.845436E-3
521.811676E-3
521.769905E-3
521.770477E-3
521.585083E-3
521.428871E-3
521.427727E-3
521.310997E-3
521.203423E-3
521.122742E-3
521.056366E-3
521.080971E-3
521.188545E-3
521.179962E-3
521.559906E-3
522.466278E-3
523.447037E-3
524.620628E-3
525.763321E-3
526.716614E-3
527.464485E-3
527.962875E-3
528.041840E-3
527.922249E-3
527.736282E-3
527.330589E-3
527.023888E-3
526.750374E-3
526.435661E-3
526.106644E-3
526.030540E-3
525.675774E-3
525.458908E-3
525.489807E-3
525.605965E-3
525.655174E-3
525.624275E-3
525.532150E-3
525.273514E-3
525.010300E-3
524.935913E-3
524.769974E-3
524.755096E-3
524.854660E-3
525.034332E-3
525.218582E-3
525.303841E-3
525.354195E-3
525.537872E-3
525.326157E-3
525.135040E-3
525.084686E-3
524.945068E-3
524.917030E-3
524.804878E-3
524.687004E-3
524.427223E-3
524.337387E-3
524.114227E-3
523.872757E-3
523.766327E-3
523.710251E-3
523.492813E-3
523.652458E-3
523.466492E-3
523.501396E-3
523.356628E-3
523.257637E-3
523.209000E-3
523.055649E-3
523.009300E-3
523.052788E-3
523.037338E-3
523.001862E-3
522.816467E-3
522.801590E-3
522.612762E-3
522.512627E-3
522.649956E-3
522.700882E-3
522.588158E-3
522.704315E-3
522.679710E-3
522.580147E-3
522.382736E-3
522.364426E-3
522.227669E-3
522.132111E-3
522.150421E-3
522.016525E-3
521.977615E-3
521.915817E-3
521.710396E-3
521.595955E-3
521.437454E-3
521.255493E-3
521.247482E-3
521.233749E-3
521.459770E-3
521.999359E-3
522.749519E-3
524.044418E-3
525.096703E-3
526.242828E-3
527.151489E-3
527.706528E-3
527.921677E-3
527.877617E-3
527.677917E-3
527.435875E-3
527.044487E-3
526.690865E-3
526.364136E-3
526.021957E-3
525.647736E-3
525.477219E-3
525.363922E-3
525.282669E-3
525.168800E-3
525.335312E-3
525.391388E-3
525.363922E-3
525.214005E-3
524.970818E-3
524.703598E-3
524.348831E-3
524.169731E-3
524.249840E-3
524.443817E-3
524.464989E-3
524.577713E-3
524.699020E-3
524.688148E-3
524.640656E-3
524.541664E-3
524.448967E-3
524.313354E-3
524.178314E-3
524.141121E-3
524.067879E-3
523.941994E-3
523.741722E-3
523.539734E-3
523.326874E-3
523.083115E-3
522.936630E-3
522.822189E-3
522.701454E-3
522.628212E-3
522.699165E-3
522.652817E-3
522.524643E-3
522.489166E-3
522.172165E-3
522.118950E-3
521.997643E-3
521.940994E-3
521.950722E-3
521.973610E-3
521.979332E-3
521.876335E-3
521.846581E-3
521.665192E-3
521.521568E-3
521.547890E-3
521.515274E-3
521.476936E-3
521.476364E-3
521.420288E-3
521.417427E-3
521.162796E-3
521.183395E-3
521.103287E-3
521.055794E-3
520.914459E-3
520.732498E-3
520.666122E-3
520.546532E-3
520.405769E-3
520.419502E-3
520.279312E-3
520.212364E-3
520.234680E-3
520.309639E-3
520.606041E-3
521.208572E-3
522.183609E-3
523.284531E-3
524.462128E-3
525.441742E-3
526.302910E-3
526.998711E-3
527.371788E-3
527.433586E-3
527.235603E-3
526.884270E-3
526.559258E-3
526.202774E-3
525.941277E-3
525.634003E-3
525.458336E-3
525.278664E-3
525.168228E-3
525.207710E-3
525.341034E-3
525.441742E-3
525.551605E-3
525.500679E-3
525.272942E-3
525.019455E-3
524.565697E-3
524.328232E-3
524.228096E-3
524.147415E-3
524.251556E-3
524.368858E-3
524.524498E-3
524.669266E-3
524.676132E-3
524.543953E-3
524.401474E-3
524.357986E-3
524.323654E-3
524.255562E-3
524.144554E-3
524.024963E-3
523.832130E-3
523.634720E-3
523.360062E-3
523.177528E-3
523.023033E-3
522.997284E-3
522.805023E-3
522.644234E-3
522.659683E-3
522.581863E-3
522.501755E-3
522.406197E-3
522.289467E-3
522.275734E-3
522.035408E-3
522.204781E-3
522.217941E-3
522.203064E-3
522.187042E-3
522.091484E-3
522.027397E-3
522.003937E-3
521.884918E-3
521.740150E-3
521.786499E-3
521.940994E-3
521.920395E-3
521.889496E-3
521.919250E-3
521.906662E-3
521.797371E-3
521.757317E-3
521.621132E-3
521.685791E-3
521.618843E-3
521.550179E-3
521.440315E-3
521.308708E-3
521.284676E-3
521.163368E-3
521.052361E-3
521.024895E-3
521.035767E-3
520.953369E-3
520.931625E-3
521.098709E-3
521.594810E-3
522.352409E-3
523.606682E-3
524.643517E-3
525.789642E-3
526.822472E-3
527.541161E-3
528.009224E-3
528.167152E-3
528.026962E-3
527.762604E-3
527.557755E-3
527.043343E-3
526.737213E-3
526.484871E-3
526.242828E-3
525.995636E-3
525.828552E-3
525.803947E-3
525.756454E-3
525.819969E-3
525.929832E-3
525.979042E-3
525.865746E-3
525.676918E-3
525.321579E-3
525.054359E-3
525.032616E-3
524.883270E-3
525.080681E-3
525.135040E-3
525.262070E-3
525.449753E-3
525.421715E-3
525.453758E-3
525.389099E-3
525.267220E-3
525.199699E-3
525.180817E-3
525.006866E-3
524.894714E-3
524.761963E-3
524.544525E-3
524.298477E-3
524.041557E-3
523.818970E-3
523.696518E-3
523.503685E-3
523.425293E-3
523.468781E-3
523.466492E-3
523.439598E-3
523.438454E-3
523.218155E-3
523.192406E-3
523.127174E-3
522.940063E-3
522.959518E-3
522.884560E-3
522.948074E-3
522.885132E-3
522.861671E-3
522.950935E-3
523.049927E-3
522.909164E-3
522.803879E-3
522.758675E-3
522.752953E-3
522.687149E-3
522.590446E-3
522.556114E-3
522.467995E-3
522.637367E-3
522.455406E-3
522.453690E-3
522.338104E-3
522.212791E-3
521.982765E-3
521.775627E-3
521.698952E-3
521.471786E-3
521.501541E-3
521.359634E-3
521.322441E-3
521.308708E-3
521.384811E-3
521.611404E-3
522.357559E-3
523.106575E-3
524.262428E-3
525.529861E-3
526.536942E-3
527.385521E-3
527.867317E-3
528.155136E-3
528.142548E-3
527.885056E-3
527.605820E-3
527.271080E-3
527.041054E-3
526.715469E-3
526.348114E-3
526.059723E-3
525.762177E-3
525.667191E-3
525.576782E-3
525.640297E-3
525.638580E-3
525.429153E-3
525.547028E-3
525.391960E-3
525.064087E-3
524.919319E-3
524.624062E-3
524.424934E-3
524.382019E-3
524.512482E-3
524.826622E-3
524.844933E-3
524.975967E-3
524.903870E-3
524.859810E-3
524.821472E-3
524.674416E-3
524.702454E-3
524.526787E-3
524.309921E-3
524.201775E-3
524.110222E-3
523.892212E-3
523.615837E-3
523.402405E-3
523.176956E-3
522.861671E-3
522.861099E-3
522.823334E-3
522.827911E-3
522.786140E-3
522.655106E-3
522.482872E-3
522.329521E-3
522.219658E-3
522.268295E-3
522.115517E-3
522.151566E-3
522.104645E-3
522.086334E-3
522.062874E-3
521.954155E-3
521.833992E-3
521.748734E-3
521.467209E-3
521.545601E-3
521.593094E-3
521.582222E-3
521.527863E-3
521.486092E-3
521.494102E-3
521.438026E-3
521.384811E-3
521.368790E-3
521.244049E-3
521.212006E-3
521.002007E-3
520.872688E-3
520.742226E-3
520.614624E-3
520.586014E-3
520.335960E-3
520.157433E-3
520.203781E-3
520.235252E-3
520.302200E-3
520.557404E-3
521.292114E-3
522.266579E-3
523.414421E-3
524.686432E-3
525.805664E-3
526.700592E-3
527.134323E-3
527.451324E-3
527.604103E-3
527.510262E-3
527.255058E-3
526.922607E-3
526.481438E-3
526.259422E-3
525.904655E-3
525.657463E-3
525.482368E-3
525.343895E-3
525.346756E-3
525.458908E-3
525.604248E-3
525.770760E-3
525.725555E-3
525.608253E-3
525.265503E-3
524.846649E-3
524.550819E-3
524.257278E-3
524.230385E-3
524.381447E-3
524.542236E-3
