Notes :


2023-11-02 ¿ÀÈÄ 6:35:29
Volts
Ch : LED 2,
627.524757E-3
627.643204E-3
626.727104E-3
627.098465E-3
626.808357E-3
626.630974E-3
627.040672E-3
626.436424E-3
626.717949E-3
626.280212E-3
625.591850E-3
625.651932E-3
624.756432E-3
625.436783E-3
625.405312E-3
626.373482E-3
628.874588E-3
631.213188E-3
635.241508E-3
638.383484E-3
641.257668E-3
644.221687E-3
645.317459E-3
646.935654E-3
646.643829E-3
645.938873E-3
645.245934E-3
643.307877E-3
642.696762E-3
640.933228E-3
639.252090E-3
638.327980E-3
636.928368E-3
636.789322E-3
635.718727E-3
635.062408E-3
635.348511E-3
634.350586E-3
634.871292E-3
634.232712E-3
633.485413E-3
633.411026E-3
632.503510E-3
633.186150E-3
632.932091E-3
633.075142E-3
633.950043E-3
633.828163E-3
635.467529E-3
635.542488E-3
635.678101E-3
636.429405E-3
636.253166E-3
636.884308E-3
636.756134E-3
636.142159E-3
636.321259E-3
635.374260E-3
635.702705E-3
634.934807E-3
634.244728E-3
634.206963E-3
633.104897E-3
633.549500E-3
633.051109E-3
632.377625E-3
632.367897E-3
631.559944E-3
631.919289E-3
631.812859E-3
631.192017E-3
631.645203E-3
630.813217E-3
631.488991E-3
631.340218E-3
630.790329E-3
631.198883E-3
630.785179E-3
631.402588E-3
631.314468E-3
631.147957E-3
631.542778E-3
630.957413E-3
631.582260E-3
631.327629E-3
630.357170E-3
630.436134E-3
630.167198E-3
630.865860E-3
630.539131E-3
630.023003E-3
630.612373E-3
630.690193E-3
632.920074E-3
635.246658E-3
638.010979E-3
641.983223E-3
645.066833E-3
649.014473E-3
651.592827E-3
653.132057E-3
654.368591E-3
653.724861E-3
653.673935E-3
652.630806E-3
650.765991E-3
649.695396E-3
647.677231E-3
646.918488E-3
645.580673E-3
644.243431E-3
644.161606E-3
643.167686E-3
643.342209E-3
643.116760E-3
642.581177E-3
642.914772E-3
641.881943E-3
641.836739E-3
641.360664E-3
640.526962E-3
640.771866E-3
640.183640E-3
640.819931E-3
641.063690E-3
641.116905E-3
642.066765E-3
641.675949E-3
642.528534E-3
643.051529E-3
642.753983E-3
643.361664E-3
642.736816E-3
643.031502E-3
642.900467E-3
641.550064E-3
641.384697E-3
640.394211E-3
640.211105E-3
639.557076E-3
638.682747E-3
638.418961E-3
637.554359E-3
637.654495E-3
637.315750E-3
636.557007E-3
636.954117E-3
636.183357E-3
636.584473E-3
636.444283E-3
635.948753E-3
636.597061E-3
635.876656E-3
636.218262E-3
636.195946E-3
635.678673E-3
636.528397E-3
635.787964E-3
636.294937E-3
636.296654E-3
635.738754E-3
636.699486E-3
636.016846E-3
636.624527E-3
636.714935E-3
636.045456E-3
636.646271E-3
635.971069E-3
636.047745E-3
635.830879E-3
635.181999E-3
635.779953E-3
634.820938E-3
635.090446E-3
635.159111E-3
635.430908E-3
637.993240E-3
640.059471E-3
643.500137E-3
647.330475E-3
650.700760E-3
654.753685E-3
656.760406E-3
658.864975E-3
659.841728E-3
659.090996E-3
659.089279E-3
656.921196E-3
655.621147E-3
654.074478E-3
652.020836E-3
651.447487E-3
649.436188E-3
648.533821E-3
648.058319E-3
647.121620E-3
647.662926E-3
646.521950E-3
646.650696E-3
646.285057E-3
644.456863E-3
645.347214E-3
644.417953E-3
644.391632E-3
644.379616E-3
644.070053E-3
645.191002E-3
644.781303E-3
645.473671E-3
646.241570E-3
646.148300E-3
647.256660E-3
646.654129E-3
646.944237E-3
647.141647E-3
646.434402E-3
646.912193E-3
645.682526E-3
645.186424E-3
644.437981E-3
643.364525E-3
643.559647E-3
642.177200E-3
641.500854E-3
640.921783E-3
639.895821E-3
640.295219E-3
639.004326E-3
638.800621E-3
638.647842E-3
637.074280E-3
638.275337E-3
637.380409E-3
637.437057E-3
637.700272E-3
637.110901E-3
637.580681E-3
636.850548E-3
636.910629E-3
637.120628E-3
636.610222E-3
637.380409E-3
636.556435E-3
636.338997E-3
636.744690E-3
636.495209E-3
637.390709E-3
636.535263E-3
636.563301E-3
636.820221E-3
636.384773E-3
636.975861E-3
636.250877E-3
636.029434E-3
635.987091E-3
635.299873E-3
635.828590E-3
634.809494E-3
634.683609E-3
634.330559E-3
633.370399E-3
633.757210E-3
633.263969E-3
634.176064E-3
636.472321E-3
638.864708E-3
642.938232E-3
645.846176E-3
649.604416E-3
652.785873E-3
654.603195E-3
656.841660E-3
656.598473E-3
656.076622E-3
654.977989E-3
652.908325E-3
651.779366E-3
649.241066E-3
647.583961E-3
646.088791E-3
644.164467E-3
643.751335E-3
642.318535E-3
641.705704E-3
641.466522E-3
640.465164E-3
640.698624E-3
639.451790E-3
638.911629E-3
638.754272E-3
637.940598E-3
638.624382E-3
638.168907E-3
638.468742E-3
639.089584E-3
639.007187E-3
640.240860E-3
640.485764E-3
641.017342E-3
641.536903E-3
641.265106E-3
641.966629E-3
641.242218E-3
640.789032E-3
640.156746E-3
638.767433E-3
638.777733E-3
637.647629E-3
636.876297E-3
636.393929E-3
635.309029E-3
635.341644E-3
634.391212E-3
633.865356E-3
633.558083E-3
632.556152E-3
632.965279E-3
632.044601E-3
631.693840E-3
631.799698E-3
631.013489E-3
631.752205E-3
631.097603E-3
630.786896E-3
631.229210E-3
630.341721E-3
630.988884E-3
630.714798E-3
630.525398E-3
630.883598E-3
630.326271E-3
630.874443E-3
630.344009E-3
630.220413E-3
630.423546E-3
629.830170E-3
630.473900E-3
630.036736E-3
629.801559E-3
629.980087E-3
629.290581E-3
629.714012E-3
629.506302E-3
628.981590E-3
629.130363E-3
628.231430E-3
628.630829E-3
628.151894E-3
627.778244E-3
627.319336E-3
626.227570E-3
626.737404E-3
626.213837E-3
626.144028E-3
627.349091E-3
628.523254E-3
632.114410E-3
635.096741E-3
638.519669E-3
642.396927E-3
645.049095E-3
647.990227E-3
649.092865E-3
649.345779E-3
649.223900E-3
647.392845E-3
646.511650E-3
644.276619E-3
642.175484E-3
640.351295E-3
638.120842E-3
637.483406E-3
636.272621E-3
635.438919E-3
635.036659E-3
633.748055E-3
634.089088E-3
633.093452E-3
632.367897E-3
632.373047E-3
631.663513E-3
632.497215E-3
632.486916E-3
632.437706E-3
633.685112E-3
633.813858E-3
635.277557E-3
635.714149E-3
636.043739E-3
636.957550E-3
636.886024E-3
638.091660E-3
637.629890E-3
637.110329E-3
637.023354E-3
635.953903E-3
636.204529E-3
635.386276E-3
634.295654E-3
634.033012E-3
632.831383E-3
632.836533E-3
632.418251E-3
631.657791E-3
631.530762E-3
630.524826E-3
630.935097E-3
630.320549E-3
629.922295E-3
630.206108E-3
629.219055E-3
629.822731E-3
629.544067E-3
629.413605E-3
629.786110E-3
629.178429E-3
629.896545E-3
629.686546E-3
628.858566E-3
629.422188E-3
629.018784E-3
629.986382E-3
630.082512E-3
629.659081E-3
630.061913E-3
629.397583E-3
630.155182E-3
630.043602E-3
629.792404E-3
630.041313E-3
629.318619E-3
629.746628E-3
629.318619E-3
628.718376E-3
628.924942E-3
628.313828E-3
628.642845E-3
628.127861E-3
626.967430E-3
627.315331E-3
626.959419E-3
627.956772E-3
629.418755E-3
631.625175E-3
635.114479E-3
638.110542E-3
642.231560E-3
645.186424E-3
647.475243E-3
649.587822E-3
649.917984E-3
650.351143E-3
649.434471E-3
647.275543E-3
646.420670E-3
644.162178E-3
643.030357E-3
641.333199E-3
639.568520E-3
638.858986E-3
637.296867E-3
637.282562E-3
636.779022E-3
634.938240E-3
635.395432E-3
634.585762E-3
634.697342E-3
634.320831E-3
633.389854E-3
634.275627E-3
634.110260E-3
635.271263E-3
636.090660E-3
635.778236E-3
637.059975E-3
637.498283E-3
638.876724E-3
639.581680E-3
639.621162E-3
640.483475E-3
639.710999E-3
639.925575E-3
639.391708E-3
638.263321E-3
638.168907E-3
636.918068E-3
636.765862E-3
636.268616E-3
635.118484E-3
635.072708E-3
633.936882E-3
634.070778E-3
633.568382E-3
632.766151E-3
633.189583E-3
632.233429E-3
632.370758E-3
632.395935E-3
631.582260E-3
632.240295E-3
631.373405E-3
631.678963E-3
631.676102E-3
631.212616E-3
631.982231E-3
631.209183E-3
631.575394E-3
631.614876E-3
631.166840E-3
632.168198E-3
631.429482E-3
631.656075E-3
631.875229E-3
631.548500E-3
632.298088E-3
631.562805E-3
631.958199E-3
631.795692E-3
631.357956E-3
632.050896E-3
631.090736E-3
631.034660E-3
630.954552E-3
630.272484E-3
630.932236E-3
629.935455E-3
629.800987E-3
629.490852E-3
628.871155E-3
629.873085E-3
630.180359E-3
632.435417E-3
635.516739E-3
638.343430E-3
642.796326E-3
645.508575E-3
648.613358E-3
650.882149E-3
651.730156E-3
652.908897E-3
651.625443E-3
650.563431E-3
649.154091E-3
646.954536E-3
645.885086E-3
643.037224E-3
641.549492E-3
640.315819E-3
638.578033E-3
638.500214E-3
637.013626E-3
636.567307E-3
636.159897E-3
635.064697E-3
635.359955E-3
634.013557E-3
633.726883E-3
633.907700E-3
633.687973E-3
634.476471E-3
634.171486E-3
634.818649E-3
635.459518E-3
635.783958E-3
637.078285E-3
636.840248E-3
637.462234E-3
637.879372E-3
637.520027E-3
637.996674E-3
636.784744E-3
636.233711E-3
635.721588E-3
634.507370E-3
634.396935E-3
632.830238E-3
632.126427E-3
631.482697E-3
630.504799E-3
630.515099E-3
629.202461E-3
628.857422E-3
628.609657E-3
627.800560E-3
628.099823E-3
627.234077E-3
627.069283E-3
627.003479E-3
626.366043E-3
626.870155E-3
626.008987E-3
626.033020E-3
625.991249E-3
625.380707E-3
626.004410E-3
625.334358E-3
625.310898E-3
625.263977E-3
624.773026E-3
625.640488E-3
624.873734E-3
624.874878E-3
624.991608E-3
624.354744E-3
625.029945E-3
624.203110E-3
624.056625E-3
623.913002E-3
623.187447E-3
623.701859E-3
622.703362E-3
622.532272E-3
622.263908E-3
621.378708E-3
621.815300E-3
621.055984E-3
621.157837E-3
621.693993E-3
622.826385E-3
625.839615E-3
628.307533E-3
631.752205E-3
635.600281E-3
638.313675E-3
641.516876E-3
642.603493E-3
643.432045E-3
643.307877E-3
641.894531E-3
641.305161E-3
638.838387E-3
637.015343E-3
635.343933E-3
633.603859E-3
633.126640E-3
631.447220E-3
630.622101E-3
630.176353E-3
629.162979E-3
629.286575E-3
628.332710E-3
627.775955E-3
627.805138E-3
627.095604E-3
627.901840E-3
627.779388E-3
628.372192E-3
629.553223E-3
629.780388E-3
631.334496E-3
631.554794E-3
632.181358E-3
633.386993E-3
633.186150E-3
634.026718E-3
633.694839E-3
633.439064E-3
633.294868E-3
632.229996E-3
632.307816E-3
631.377411E-3
630.485344E-3
630.374908E-3
628.847694E-3
629.549217E-3
628.753853E-3
628.064919E-3
628.173065E-3
627.214050E-3
627.571106E-3
626.850128E-3
626.804924E-3
627.034950E-3
625.567818E-3
626.424408E-3
626.174927E-3
626.061630E-3
626.481056E-3
625.950623E-3
626.689339E-3
626.474762E-3
626.445580E-3
626.849556E-3
626.479912E-3
627.236938E-3
627.066994E-3
627.211761E-3
627.547073E-3
627.000618E-3
627.606583E-3
627.462387E-3
627.098465E-3
627.355385E-3
626.606369E-3
627.191734E-3
626.841545E-3
626.315689E-3
626.223564E-3
625.434494E-3
626.001549E-3
626.419830E-3
627.552223E-3
630.338287E-3
632.706642E-3
636.969566E-3
640.192223E-3
643.347359E-3
646.349716E-3
647.515297E-3
649.207878E-3
648.905182E-3
647.730446E-3
646.977997E-3
644.740677E-3
643.889809E-3
641.889381E-3
639.757347E-3
638.787460E-3
637.043381E-3
637.064552E-3
636.298370E-3
635.613441E-3
635.671806E-3
634.514236E-3
634.701920E-3
634.094238E-3
633.537483E-3
633.726311E-3
633.474541E-3
634.477615E-3
634.749985E-3
635.228348E-3
636.368752E-3
636.645126E-3
638.075066E-3
638.659286E-3
638.854408E-3
639.448357E-3
638.932800E-3
639.625740E-3
638.897896E-3
637.994385E-3
637.853622E-3
636.657715E-3
636.595917E-3
635.725594E-3
634.634399E-3
634.309387E-3
633.200455E-3
633.370399E-3
632.752991E-3
631.914139E-3
632.029152E-3
631.032944E-3
631.454086E-3
631.044388E-3
630.500221E-3
630.698204E-3
630.056763E-3
630.562592E-3
630.226707E-3
629.953766E-3
630.208397E-3
629.606438E-3
630.259323E-3
630.057335E-3
629.384995E-3
629.900551E-3
629.664803E-3
630.402374E-3
630.125999E-3
629.917717E-3
630.344582E-3
629.654503E-3
630.067062E-3
629.700851E-3
629.188728E-3
629.354668E-3
628.768158E-3
629.066849E-3
628.685188E-3
628.035164E-3
628.288651E-3
627.796555E-3
628.928947E-3
629.957199E-3
631.390572E-3
635.032654E-3
638.315964E-3
642.588615E-3
645.834732E-3
648.216248E-3
650.675011E-3
650.997734E-3
651.630592E-3
650.788307E-3
648.962402E-3
647.679520E-3
645.241356E-3
643.887520E-3
642.182350E-3
640.359879E-3
639.698982E-3
638.181496E-3
638.063049E-3
637.707710E-3
636.134720E-3
636.484909E-3
635.564232E-3
635.855484E-3
635.119057E-3
634.311104E-3
634.561729E-3
634.169197E-3
635.105896E-3
635.531616E-3
635.335350E-3
636.254311E-3
636.510658E-3
637.649345E-3
638.080788E-3
637.559509E-3
637.660789E-3
636.991310E-3
637.055969E-3
636.528397E-3
635.305023E-3
635.076141E-3
633.664513E-3
633.429909E-3
632.687187E-3
631.469536E-3
631.296158E-3
630.173492E-3
630.085945E-3
629.803848E-3
629.057121E-3
629.462242E-3
628.500938E-3
628.564453E-3
628.412247E-3
627.747345E-3
628.567314E-3
627.645493E-3
627.880096E-3
627.807999E-3
627.093887E-3
628.017998E-3
627.144241E-3
627.531052E-3
627.653503E-3
626.753426E-3
627.762222E-3
627.252388E-3
627.610016E-3
627.543068E-3
627.032661E-3
627.525330E-3
626.620102E-3
626.753998E-3
626.724815E-3
625.081444E-3
626.039314E-3
625.226784E-3
625.259399E-3
624.811935E-3
623.895836E-3
624.106407E-3
623.685837E-3
624.462318E-3
626.145744E-3
627.663231E-3
631.438637E-3
634.173203E-3
637.874222E-3
641.387558E-3
643.498421E-3
645.942879E-3
645.830154E-3
645.988655E-3
645.420456E-3
642.521095E-3
642.153168E-3
639.586830E-3
638.251877E-3
636.968422E-3
635.274124E-3
635.251236E-3
633.554077E-3
633.389854E-3
633.266830E-3
632.616234E-3
633.052254E-3
631.827736E-3
631.506729E-3
631.629181E-3
630.445862E-3
631.986237E-3
631.711006E-3
632.655144E-3
633.389854E-3
633.738327E-3
635.348511E-3
635.373116E-3
636.020279E-3
636.610794E-3
636.120415E-3
636.924934E-3
635.770798E-3
635.716438E-3
635.259247E-3
634.188652E-3
634.237862E-3
632.870293E-3
632.263184E-3
631.930161E-3
630.981445E-3
631.312180E-3
630.113411E-3
630.187798E-3
629.957199E-3
629.355240E-3
629.979515E-3
628.998184E-3
629.045105E-3
629.211617E-3
627.866364E-3
629.202461E-3
628.563881E-3
628.804779E-3
628.874016E-3
628.619385E-3
629.529762E-3
628.558731E-3
628.844833E-3
629.283142E-3
629.047966E-3
630.016136E-3
629.154396E-3
629.408455E-3
629.617310E-3
629.147530E-3
629.770660E-3
628.875160E-3
628.888893E-3
628.689194E-3
628.168488E-3
628.559875E-3
627.770233E-3
627.234650E-3
627.191162E-3
626.776314E-3
627.965927E-3
628.069496E-3
630.389786E-3
633.267975E-3
636.312675E-3
640.869713E-3
643.727303E-3
646.741104E-3
648.562431E-3
649.528885E-3
650.588608E-3
649.279976E-3
648.340416E-3
647.023201E-3
644.790459E-3
643.766785E-3
641.672516E-3
640.460587E-3
639.629745E-3
638.376045E-3
638.479042E-3
637.453079E-3
637.315178E-3
637.340355E-3
636.585617E-3
636.993027E-3
635.768509E-3
635.433197E-3
635.381699E-3
635.178566E-3
636.174774E-3
635.992241E-3
636.710358E-3
637.741470E-3
638.071632E-3
639.209175E-3
639.203453E-3
639.349365E-3
639.724159E-3
637.651634E-3
638.821220E-3
638.408661E-3
637.715149E-3
637.354088E-3
635.012627E-3
635.808563E-3
634.944534E-3
634.357452E-3
634.146309E-3
633.348656E-3
633.559799E-3
632.615662E-3
632.351303E-3
632.431412E-3
630.624390E-3
631.815720E-3
631.552505E-3
631.539345E-3
631.902122E-3
631.211472E-3
631.761932E-3
631.381989E-3
631.314468E-3
631.648064E-3
630.974579E-3
631.874084E-3
631.302452E-3
631.324768E-3
631.710434E-3
630.289078E-3
631.511879E-3
631.187439E-3
