Notes :


2023-11-13 ¿ÀÀü 12:57:27
Volts
Ch : LED 2,
936.145592E-3
936.004829E-3
935.807991E-3
935.972214E-3
935.756493E-3
935.852623E-3
935.759354E-3
935.590553E-3
935.773087E-3
935.513878E-3
935.556793E-3
935.494995E-3
935.323906E-3
935.398865E-3
935.162544E-3
935.250092E-3
935.219193E-3
935.123634E-3
935.244942E-3
934.989738E-3
935.095596E-3
934.851265E-3
934.843254E-3
935.020065E-3
934.875298E-3
934.866142E-3
934.843826E-3
934.668732E-3
934.787750E-3
934.533119E-3
934.736824E-3
934.606361E-3
934.364319E-3
934.295654E-3
934.030724E-3
933.913422E-3
933.607292E-3
933.241081E-3
933.241081E-3
932.889748E-3
932.699203E-3
932.696342E-3
932.499504E-3
932.675743E-3
933.119774E-3
933.980942E-3
935.347939E-3
936.921501E-3
938.931656E-3
940.500641E-3
941.863060E-3
942.635536E-3
943.123627E-3
943.489838E-3
943.405724E-3
943.274117E-3
943.022919E-3
942.498779E-3
942.264748E-3
941.761780E-3
941.512871E-3
941.336060E-3
941.179848E-3
941.217613E-3
941.074562E-3
941.259384E-3
941.124344E-3
941.182137E-3
941.356659E-3
941.187286E-3
940.977859E-3
940.845680E-3
940.269470E-3
939.990807E-3
939.588547E-3
939.532471E-3
939.424896E-3
939.482117E-3
939.645195E-3
939.624596E-3
939.939880E-3
940.001106E-3
939.985657E-3
940.243149E-3
939.851761E-3
939.939308E-3
939.731026E-3
939.460945E-3
939.264679E-3
938.992310E-3
938.677025E-3
938.494492E-3
938.245583E-3
938.132858E-3
937.712860E-3
937.535477E-3
937.558365E-3
937.320900E-3
937.238503E-3
936.949539E-3
937.018776E-3
936.871147E-3
936.644554E-3
936.650848E-3
936.480904E-3
936.375618E-3
936.420250E-3
936.317825E-3
936.300659E-3
936.060333E-3
936.054611E-3
936.078072E-3
935.895538E-3
935.896683E-3
935.771370E-3
935.680962E-3
935.666084E-3
935.601997E-3
935.570526E-3
935.462379E-3
935.490990E-3
935.399437E-3
935.301018E-3
935.314751E-3
935.176849E-3
935.123634E-3
935.089302E-3
934.892464E-3
934.874153E-3
934.554291E-3
934.545708E-3
934.306526E-3
933.917427E-3
933.917999E-3
933.672523E-3
933.440781E-3
933.410454E-3
933.138084E-3
933.250237E-3
933.523750E-3
934.362030E-3
935.856628E-3
937.419891E-3
939.390564E-3
940.819359E-3
942.438698E-3
943.488693E-3
943.931580E-3
944.390488E-3
944.273758E-3
944.112968E-3
943.866920E-3
943.187141E-3
943.012047E-3
942.552567E-3
942.187500E-3
941.869926E-3
941.589546E-3
941.563797E-3
941.337776E-3
941.411591E-3
941.591263E-3
941.594696E-3
941.835594E-3
941.691971E-3
941.689110E-3
941.512871E-3
941.075706E-3
940.687752E-3
940.216827E-3
939.948463E-3
939.853477E-3
939.702415E-3
939.914703E-3
939.811707E-3
939.975357E-3
940.239716E-3
940.172768E-3
940.322113E-3
940.230560E-3
940.234566E-3
940.042305E-3
939.721298E-3
939.684677E-3
939.469528E-3
939.175987E-3
939.074135E-3
938.680458E-3
938.562012E-3
938.338280E-3
938.249588E-3
938.182640E-3
937.830734E-3
937.866783E-3
937.557220E-3
937.533188E-3
937.430763E-3
937.216759E-3
937.361526E-3
937.091446E-3
937.038803E-3
937.134933E-3
936.848831E-3
936.884880E-3
936.683464E-3
936.667442E-3
936.737251E-3
936.494637E-3
936.599922E-3
936.421394E-3
936.280060E-3
936.456299E-3
936.304665E-3
936.258888E-3
936.027145E-3
936.078072E-3
936.070061E-3
935.746193E-3
935.932159E-3
935.902405E-3
935.715294E-3
935.667801E-3
935.337639E-3
935.405159E-3
935.169983E-3
934.992027E-3
934.889030E-3
934.543991E-3
934.423256E-3
934.189224E-3
934.020996E-3
933.992958E-3
933.701706E-3
933.714867E-3
933.808136E-3
934.115982E-3
935.141373E-3
936.395073E-3
938.230705E-3
939.920425E-3
941.439629E-3
942.868996E-3
943.700981E-3
944.230270E-3
944.282341E-3
944.308090E-3
944.032860E-3
943.529320E-3
943.262100E-3
942.621803E-3
942.165184E-3
941.908836E-3
941.365242E-3
941.290283E-3
941.083717E-3
941.041946E-3
941.213608E-3
941.063118E-3
941.221619E-3
941.194725E-3
941.114044E-3
940.975571E-3
940.502357E-3
940.187073E-3
939.765358E-3
939.566803E-3
939.409447E-3
939.228630E-3
939.520454E-3
939.616013E-3
939.866066E-3
939.943314E-3
940.020561E-3
940.125275E-3
939.942169E-3
939.902115E-3
939.827728E-3
939.466095E-3
939.514160E-3
939.114189E-3
938.790894E-3
938.614655E-3
938.120270E-3
938.091660E-3
937.834167E-3
937.592125E-3
937.448502E-3
937.207031E-3
937.153816E-3
936.966705E-3
936.895752E-3
936.805344E-3
936.402512E-3
936.426544E-3
936.441422E-3
936.224556E-3
936.165619E-3
935.904694E-3
936.056328E-3
935.868645E-3
935.767365E-3
935.675240E-3
935.466385E-3
935.549927E-3
935.353661E-3
935.357666E-3
935.449219E-3
935.101891E-3
935.173416E-3
935.086441E-3
935.070419E-3
935.141373E-3
934.873581E-3
934.812355E-3
934.806061E-3
934.665871E-3
934.462166E-3
934.140015E-3
934.122276E-3
933.875656E-3
933.600998E-3
933.381844E-3
933.185005E-3
933.060265E-3
932.800484E-3
932.638550E-3
932.626534E-3
932.666588E-3
933.205032E-3
934.057617E-3
935.423470E-3
937.257957E-3
938.985443E-3
940.805626E-3
942.125702E-3
943.046951E-3
943.625450E-3
943.688965E-3
943.686676E-3
943.442917E-3
942.967415E-3
942.725372E-3
942.060471E-3
941.691971E-3
941.279411E-3
940.932083E-3
940.885162E-3
940.607643E-3
940.659714E-3
940.508080E-3
940.494347E-3
940.581322E-3
940.555000E-3
940.592194E-3
940.371895E-3
940.090370E-3
939.853477E-3
939.234352E-3
939.151382E-3
938.840675E-3
938.650703E-3
938.723946E-3
938.731956E-3
939.045525E-3
939.191437E-3
939.185143E-3
939.218330E-3
939.114189E-3
939.257240E-3
939.002609E-3
938.833237E-3
938.681602E-3
938.439560E-3
938.232422E-3
937.940025E-3
937.424469E-3
937.390709E-3
936.924362E-3
936.952972E-3
936.652565E-3
936.295509E-3
936.268044E-3
936.059189E-3
936.116409E-3
935.918999E-3
935.751915E-3
935.771942E-3
935.422325E-3
935.510445E-3
935.377121E-3
935.185432E-3
935.300446E-3
935.058403E-3
935.183716E-3
935.057831E-3
934.757996E-3
934.901047E-3
934.685898E-3
934.695625E-3
934.511375E-3
934.398079E-3
934.602928E-3
934.229851E-3
934.277916E-3
934.288788E-3
934.118271E-3
934.101105E-3
933.849335E-3
933.971786E-3
933.828163E-3
933.769226E-3
933.801842E-3
933.463097E-3
933.503723E-3
933.326912E-3
932.997322E-3
932.986450E-3
932.762718E-3
932.496643E-3
932.121849E-3
932.032013E-3
931.899261E-3
931.757927E-3
931.973648E-3
932.512665E-3
933.556938E-3
935.158539E-3
936.928940E-3
938.937378E-3
940.680313E-3
941.950035E-3
942.995453E-3
943.387413E-3
943.690681E-3
943.703842E-3
943.450928E-3
943.195152E-3
942.513657E-3
942.150879E-3
941.659355E-3
941.182709E-3
941.061401E-3
940.665436E-3
940.769005E-3
940.556717E-3
940.607071E-3
940.751839E-3
940.636826E-3
940.863991E-3
940.764427E-3
940.634537E-3
940.503502E-3
940.121841E-3
939.805412E-3
939.269257E-3
938.992310E-3
938.917351E-3
938.606644E-3
938.690186E-3
938.690186E-3
938.845825E-3
939.045525E-3
939.035225E-3
939.142799E-3
939.098167E-3
938.947678E-3
939.083290E-3
938.681030E-3
938.579750E-3
938.309669E-3
937.921715E-3
937.961197E-3
937.564659E-3
937.430763E-3
937.244225E-3
936.981583E-3
936.930084E-3
936.702919E-3
936.667442E-3
936.432838E-3
936.275482E-3
936.435127E-3
935.990524E-3
936.017418E-3
935.925293E-3
935.658646E-3
935.794258E-3
935.597420E-3
935.584259E-3
935.517883E-3
935.446930E-3
935.424614E-3
935.283279E-3
935.276985E-3
935.226059E-3
935.176849E-3
935.254669E-3
934.981728E-3
935.025787E-3
934.861565E-3
934.766579E-3
934.792900E-3
934.645271E-3
934.724236E-3
934.610939E-3
934.522820E-3
934.665871E-3
934.344864E-3
934.299660E-3
934.183502E-3
933.854485E-3
933.847618E-3
933.625031E-3
933.456230E-3
933.329201E-3
932.995033E-3
932.859993E-3
932.687187E-3
932.668877E-3
932.666588E-3
932.620811E-3
933.163261E-3
933.860779E-3
935.269547E-3
936.936951E-3
938.722229E-3
940.747261E-3
941.940308E-3
943.022919E-3
943.702698E-3
943.813133E-3
944.010544E-3
943.584824E-3
943.424606E-3
942.911911E-3
942.253876E-3
942.096519E-3
941.522026E-3
941.206169E-3
940.965843E-3
940.694046E-3
940.629959E-3
940.701485E-3
940.790176E-3
940.855980E-3
940.858841E-3
940.945244E-3
940.585899E-3
940.403366E-3
940.036583E-3
939.606285E-3
939.356804E-3
939.023781E-3
939.000320E-3
939.097023E-3
939.202881E-3
939.594841E-3
939.479256E-3
939.721298E-3
939.854050E-3
939.739037E-3
939.748764E-3
939.514160E-3
939.446068E-3
939.227486E-3
938.924217E-3
938.822937E-3
938.436127E-3
938.199806E-3
938.034439E-3
937.715149E-3
937.677956E-3
937.345505E-3
937.236786E-3
937.090302E-3
936.887169E-3
936.821938E-3
936.564445E-3
936.523247E-3
936.478043E-3
936.343575E-3
936.400795E-3
936.139297E-3
936.077499E-3
936.100960E-3
935.928154E-3
935.938454E-3
935.679817E-3
935.577965E-3
935.488129E-3
935.524178E-3
935.433197E-3
935.322189E-3
935.202599E-3
935.139656E-3
935.066414E-3
935.058975E-3
934.822655E-3
934.817505E-3
934.700775E-3
934.529686E-3
934.644699E-3
934.420395E-3
934.342003E-3
934.256744E-3
933.967781E-3
934.019852E-3
933.785248E-3
933.590698E-3
933.486557E-3
933.123207E-3
932.992744E-3
932.711792E-3
932.562447E-3
932.498360E-3
932.339287E-3
932.439995E-3
932.664871E-3
933.344650E-3
934.640694E-3
936.225128E-3
938.339996E-3
940.038300E-3
941.534615E-3
942.788315E-3
943.328476E-3
943.807411E-3
943.630028E-3
943.568802E-3
943.234634E-3
942.712784E-3
942.459869E-3
941.847610E-3
941.465378E-3
941.080284E-3
940.664291E-3
940.603638E-3
940.457153E-3
940.471458E-3
940.528679E-3
940.430260E-3
940.760994E-3
940.585899E-3
940.563583E-3
940.297508E-3
939.792252E-3
939.434624E-3
939.039803E-3
938.775444E-3
938.771439E-3
938.609505E-3
938.899040E-3
939.043808E-3
939.087868E-3
939.313889E-3
939.234352E-3
939.438629E-3
939.220047E-3
939.044952E-3
938.967705E-3
938.696480E-3
938.477325E-3
938.231850E-3
937.950325E-3
937.755203E-3
937.397575E-3
937.257385E-3
936.959839E-3
936.840248E-3
936.692619E-3
936.551857E-3
936.345291E-3
936.161613E-3
936.086655E-3
936.163902E-3
935.873222E-3
935.837746E-3
935.783386E-3
935.601997E-3
935.507011E-3
935.379410E-3
935.425758E-3
935.374260E-3
935.314178E-3
935.410309E-3
935.113907E-3
935.203743E-3
935.061264E-3
934.943962E-3
935.035515E-3
934.886742E-3
934.876442E-3
934.656143E-3
934.479332E-3
934.535408E-3
934.343147E-3
934.379768E-3
934.323120E-3
934.204102E-3
934.217262E-3
933.904839E-3
934.043312E-3
933.752632E-3
933.675385E-3
933.725166E-3
933.362961E-3
933.304596E-3
933.118629E-3
932.835388E-3
932.698059E-3
932.374191E-3
932.441711E-3
932.208252E-3
932.321548E-3
932.470894E-3
933.057976E-3
934.295082E-3
935.832596E-3
937.704849E-3
939.738464E-3
941.229630E-3
942.619514E-3
943.449211E-3
943.999100E-3
944.266891E-3
944.139862E-3
943.931580E-3
943.444633E-3
942.953110E-3
942.664719E-3
942.107964E-3
941.915703E-3
941.602135E-3
941.377258E-3
941.474533E-3
941.392708E-3
941.480255E-3
941.427040E-3
941.534042E-3
941.640472E-3
941.548347E-3
941.591263E-3
941.231918E-3
940.869713E-3
940.415382E-3
939.979935E-3
939.668083E-3
939.538193E-3
939.415169E-3
939.433479E-3
939.521599E-3
939.735603E-3
939.887238E-3
939.939880E-3
940.007401E-3
939.780235E-3
939.752197E-3
939.616013E-3
939.464951E-3
939.321327E-3
938.959694E-3
938.810921E-3
938.583183E-3
938.311386E-3
938.140869E-3
937.822723E-3
937.687683E-3
937.488556E-3
937.280846E-3
937.218475E-3
936.898041E-3
936.951256E-3
936.875153E-3
936.653709E-3
936.666870E-3
936.403656E-3
936.353874E-3
936.294365E-3
936.226845E-3
936.186218E-3
935.939598E-3
936.025429E-3
935.924721E-3
935.871506E-3
935.884666E-3
935.654068E-3
935.862923E-3
935.679817E-3
935.565376E-3
935.576248E-3
935.418892E-3
935.461235E-3
935.261536E-3
935.123062E-3
935.308456E-3
935.107613E-3
935.216904E-3
935.054970E-3
935.022926E-3
934.900475E-3
934.729958E-3
934.863281E-3
934.732819E-3
934.488487E-3
934.531975E-3
934.149170E-3
934.147453E-3
933.889389E-3
933.602715E-3
933.482552E-3
933.359528E-3
933.425903E-3
933.317757E-3
933.514023E-3
934.016991E-3
934.847832E-3
936.367035E-3
937.992096E-3
939.861488E-3
941.584969E-3
942.854118E-3
944.051743E-3
944.650841E-3
944.920921E-3
944.934082E-3
944.605064E-3
944.428253E-3
943.862915E-3
943.314171E-3
942.986298E-3
942.402077E-3
942.319679E-3
942.022705E-3
941.930580E-3
942.026138E-3
942.002106E-3
942.202950E-3
942.141151E-3
942.093658E-3
942.192078E-3
941.872215E-3
941.777229E-3
941.292000E-3
940.896034E-3
940.772438E-3
940.298653E-3
940.274048E-3
940.288925E-3
940.339279E-3
940.466309E-3
940.546989E-3
940.800476E-3
940.866852E-3
940.778160E-3
940.851402E-3
940.497780E-3
940.541840E-3
940.442848E-3
940.062904E-3
940.018845E-3
939.710426E-3
939.503860E-3
939.359093E-3
939.067268E-3
938.995743E-3
938.757706E-3
938.693619E-3
938.485909E-3
938.285065E-3
938.269043E-3
938.109398E-3
938.156891E-3
938.000107E-3
937.796974E-3
937.790108E-3
937.600136E-3
937.695694E-3
937.556076E-3
937.394142E-3
937.518311E-3
937.240219E-3
937.273407E-3
937.239647E-3
936.987877E-3
937.037086E-3
936.930084E-3
936.970711E-3
936.853409E-3
936.796188E-3
936.711502E-3
936.616516E-3
936.606789E-3
936.480904E-3
936.419678E-3
936.474037E-3
936.152458E-3
936.260605E-3
936.085510E-3
935.967064E-3
935.857773E-3
935.584259E-3
935.669518E-3
935.467529E-3
935.088730E-3
934.997177E-3
934.712791E-3
934.592628E-3
934.487343E-3
934.297943E-3
934.343147E-3
934.297371E-3
934.672165E-3
935.197449E-3
936.248589E-3
937.854767E-3
939.458656E-3
941.238785E-3
942.614365E-3
943.595695E-3
944.471169E-3
944.770432E-3
944.867134E-3
944.688606E-3
944.254303E-3
944.147301E-3
943.474388E-3
943.192863E-3
942.638969E-3
942.182922E-3
942.131996E-3
941.783524E-3
941.823006E-3
941.867065E-3
941.809845E-3
941.955185E-3
941.843033E-3
941.901970E-3
941.709137E-3
941.290283E-3
941.082001E-3
940.468025E-3
940.170479E-3
939.873505E-3
939.713287E-3
939.892387E-3
939.943314E-3
940.311241E-3
940.358162E-3
940.222549E-3
940.702057E-3
940.553856E-3
940.574455E-3
940.395355E-3
940.148735E-3
940.027428E-3
939.774513E-3
939.538765E-3
939.211464E-3
938.807487E-3
938.823509E-3
938.355446E-3
938.160324E-3
937.977791E-3
937.794685E-3
937.779236E-3
937.479401E-3
937.473679E-3
937.362099E-3
937.084007E-3
937.097168E-3
936.879158E-3
936.987877E-3
936.821938E-3
936.741257E-3
936.773872E-3
936.502075E-3
936.470032E-3
936.397934E-3
936.136436E-3
936.304092E-3
936.055756E-3
936.001396E-3
935.944176E-3
935.806847E-3
935.831451E-3
935.646057E-3
935.622025E-3
935.504150E-3
935.389137E-3
935.406876E-3
935.157967E-3
935.156822E-3
935.092735E-3
934.878731E-3
935.120201E-3
934.856987E-3
934.684181E-3
934.612083E-3
934.406090E-3
934.407806E-3
934.136581E-3
934.010124E-3
933.717728E-3
933.487701E-3
933.338356E-3
933.017349E-3
932.932091E-3
932.927513E-3
932.858276E-3
933.603859E-3
934.280205E-3
935.720444E-3
937.586403E-3
939.241791E-3
941.138077E-3
942.180634E-3
943.131065E-3
943.753624E-3
943.961906E-3
944.140434E-3
943.832016E-3
943.656921E-3
943.433762E-3
942.866707E-3
