Notes :


2023-11-06 ¿ÀÈÄ 10:41:47
Volts
Ch : LED 2,
427.130127E-3
427.115822E-3
427.034569E-3
427.043724E-3
426.977348E-3
426.943588E-3
426.981926E-3
426.789093E-3
426.949310E-3
426.908112E-3
426.960182E-3
426.924133E-3
426.898384E-3
426.836014E-3
426.767921E-3
426.702690E-3
426.724434E-3
426.552200E-3
426.411438E-3
426.377678E-3
426.309013E-3
426.262665E-3
426.299858E-3
426.461792E-3
426.699829E-3
427.024269E-3
427.934647E-3
428.921700E-3
429.862976E-3
430.710983E-3
431.324959E-3
431.863403E-3
432.166100E-3
432.184982E-3
432.159805E-3
431.998444E-3
431.805611E-3
431.683731E-3
431.424522E-3
431.191063E-3
431.039429E-3
430.944443E-3
430.924416E-3
430.740166E-3
430.864906E-3
430.992508E-3
431.052017E-3
431.203079E-3
431.099510E-3
431.054878E-3
430.826569E-3
430.672646E-3
430.439758E-3
430.465508E-3
430.287552E-3
430.269814E-3
430.298424E-3
430.282974E-3
430.404854E-3
430.462074E-3
430.525589E-3
430.519867E-3
430.593681E-3
430.609131E-3
430.513000E-3
430.432892E-3
430.518150E-3
430.336761E-3
430.373955E-3
430.256081E-3
430.181694E-3
430.064964E-3
430.024910E-3
429.960251E-3
429.812622E-3
429.759979E-3
429.682159E-3
429.539108E-3
429.595757E-3
429.480743E-3
429.424667E-3
429.361725E-3
429.295921E-3
429.178619E-3
429.049301E-3
429.083061E-3
428.843307E-3
428.851891E-3
428.817558E-3
428.756332E-3
428.752327E-3
428.752899E-3
428.629875E-3
428.628731E-3
428.513145E-3
428.679085E-3
428.568649E-3
428.476524E-3
428.406143E-3
428.422737E-3
428.259087E-3
428.108025E-3
428.001595E-3
428.018761E-3
427.799034E-3
427.783585E-3
427.703476E-3
427.682304E-3
427.614784E-3
427.597046E-3
427.682877E-3
428.086281E-3
428.750038E-3
429.663277E-3
430.436897E-3
431.208229E-3
431.898308E-3
432.360649E-3
432.699966E-3
432.760620E-3
432.844162E-3
432.750320E-3
432.557487E-3
432.309723E-3
431.952667E-3
431.728363E-3
431.438255E-3
431.267166E-3
431.121826E-3
430.799103E-3
430.922699E-3
430.885506E-3
430.932426E-3
430.879784E-3
430.749893E-3
430.625725E-3
430.423737E-3
430.139351E-3
429.859543E-3
429.734230E-3
429.710770E-3
429.685593E-3
429.592896E-3
429.569435E-3
429.537392E-3
429.644394E-3
429.664993E-3
429.774857E-3
429.747391E-3
429.677010E-3
429.638672E-3
429.535675E-3
429.424667E-3
429.322243E-3
429.239273E-3
429.088211E-3
428.834724E-3
428.783798E-3
428.626442E-3
428.635025E-3
428.481102E-3
428.386116E-3
428.310585E-3
428.221893E-3
428.131485E-3
428.131485E-3
428.015327E-3
427.924347E-3
427.813911E-3
427.712631E-3
427.701187E-3
427.692604E-3
427.633667E-3
427.575874E-3
427.340126E-3
427.396774E-3
427.341843E-3
427.288628E-3
427.344704E-3
427.280617E-3
427.227974E-3
427.249146E-3
427.206230E-3
427.072906E-3
427.077484E-3
427.045441E-3
426.957893E-3
426.864052E-3
426.976204E-3
426.840591E-3
426.735306E-3
426.583099E-3
426.528168E-3
426.414299E-3
426.394272E-3
426.420593E-3
426.288986E-3
426.257515E-3
426.452637E-3
426.678658E-3
427.393913E-3
428.313446E-3
429.227257E-3
429.998589E-3
430.796242E-3
431.426239E-3
431.774139E-3
432.030487E-3
431.956100E-3
431.888580E-3
431.735802E-3
431.588173E-3
431.294632E-3
431.103516E-3
430.895805E-3
430.755043E-3
430.729866E-3
430.600548E-3
430.590820E-3
430.591393E-3
430.666924E-3
430.669212E-3
430.621719E-3
430.638313E-3
430.458641E-3
430.284119E-3
429.952240E-3
429.735374E-3
429.648399E-3
429.667854E-3
429.597473E-3
429.608345E-3
429.577446E-3
429.670143E-3
429.741096E-3
429.830933E-3
429.788589E-3
429.794884E-3
429.793167E-3
429.797173E-3
429.782295E-3
429.756546E-3
429.647255E-3
429.558563E-3
429.182625E-3
429.138565E-3
429.183769E-3
429.018974E-3
428.918266E-3
428.799820E-3
428.722000E-3
428.636742E-3
428.445053E-3
428.460503E-3
428.318024E-3
428.259659E-3
428.221321E-3
428.063965E-3
428.030777E-3
427.906036E-3
427.783585E-3
427.758408E-3
427.607346E-3
427.616501E-3
427.493477E-3
427.504349E-3
427.407646E-3
427.397919E-3
427.372169E-3
427.194786E-3
427.275467E-3
427.299500E-3
427.206230E-3
427.203941E-3
427.157021E-3
427.108383E-3
427.109528E-3
427.000809E-3
427.096367E-3
427.007103E-3
426.924706E-3
426.797104E-3
426.626587E-3
426.602554E-3
426.548767E-3
426.452637E-3
426.424599E-3
426.341057E-3
426.376534E-3
426.512146E-3
426.977348E-3
427.728081E-3
428.521156E-3
429.424667E-3
430.331039E-3
431.097221E-3
431.752968E-3
432.028770E-3
432.192421E-3
432.234192E-3
432.144356E-3
432.074547E-3
431.843948E-3
431.663132E-3
431.434822E-3
431.231117E-3
431.123543E-3
431.022835E-3
431.110382E-3
431.044006E-3
431.136703E-3
431.102943E-3
431.161308E-3
431.113815E-3
430.843735E-3
430.868912E-3
430.701256E-3
430.415726E-3
430.312729E-3
430.232048E-3
430.145073E-3
430.111313E-3
430.135918E-3
430.344772E-3
430.264091E-3
430.325890E-3
430.354500E-3
430.406570E-3
430.467796E-3
430.470657E-3
430.535316E-3
430.446625E-3
430.348778E-3
430.272102E-3
430.169678E-3
430.054665E-3
429.928207E-3
429.819489E-3
429.755402E-3
429.829788E-3
429.681587E-3
429.523659E-3
429.476738E-3
429.434967E-3
429.250717E-3
429.211807E-3
429.150581E-3
429.030418E-3
429.103661E-3
428.909111E-3
428.842163E-3
428.741455E-3
428.580093E-3
428.573799E-3
428.467941E-3
428.409576E-3
428.427887E-3
428.430748E-3
428.411865E-3
428.349495E-3
428.336334E-3
428.343201E-3
428.222466E-3
428.261948E-3
428.209877E-3
428.174400E-3
427.989006E-3
428.021622E-3
427.966118E-3
427.939796E-3
427.840805E-3
427.813339E-3
427.698898E-3
427.659416E-3
427.748680E-3
427.783012E-3
427.621078E-3
427.604485E-3
427.720642E-3
428.106308E-3
428.826141E-3
429.557991E-3
430.474091E-3
431.221390E-3
432.107162E-3
432.478523E-3
432.835007E-3
432.939720E-3
432.892799E-3
432.801247E-3
432.566071E-3
432.336617E-3
432.065392E-3
431.734657E-3
431.512642E-3
431.294632E-3
431.343842E-3
431.211662E-3
431.145859E-3
431.151009E-3
431.247139E-3
431.151009E-3
431.031990E-3
430.974770E-3
430.788803E-3
430.492401E-3
430.279541E-3
430.103874E-3
429.982567E-3
429.870987E-3
429.844666E-3
429.945946E-3
429.922485E-3
429.971695E-3
430.023766E-3
429.987717E-3
429.937935E-3
429.968262E-3
429.923058E-3
429.816628E-3
429.684448E-3
429.576302E-3
429.458427E-3
429.283333E-3
429.204369E-3
428.993225E-3
428.849030E-3
428.620148E-3
428.558350E-3
428.439903E-3
428.350067E-3
428.323174E-3
428.196144E-3
428.075409E-3
428.061104E-3
427.911758E-3
427.656555E-3
427.586746E-3
427.475166E-3
427.447701E-3
427.408218E-3
427.413940E-3
427.253723E-3
427.247429E-3
427.137566E-3
427.084923E-3
427.099800E-3
426.991081E-3
426.992226E-3
426.953888E-3
426.878357E-3
426.844025E-3
426.847458E-3
426.791954E-3
426.686668E-3
426.600266E-3
426.707268E-3
426.544189E-3
426.519012E-3
426.338196E-3
426.268387E-3
426.222610E-3
426.173973E-3
425.999451E-3
426.026917E-3
426.026344E-3
426.137924E-3
426.498985E-3
427.186203E-3
428.041649E-3
428.910255E-3
429.732513E-3
430.452919E-3
431.141281E-3
431.449127E-3
431.593895E-3
431.665421E-3
431.413078E-3
431.315804E-3
430.990219E-3
430.894089E-3
430.679512E-3
430.353355E-3
430.178261E-3
430.107880E-3
430.043793E-3
429.949951E-3
429.903030E-3
430.067825E-3
429.963112E-3
429.906464E-3
429.804611E-3
429.721069E-3
429.549980E-3
429.284477E-3
429.082489E-3
428.970337E-3
428.791237E-3
428.742599E-3
428.770638E-3
428.727722E-3
428.707695E-3
428.723717E-3
428.866196E-3
428.854179E-3
428.925705E-3
429.016113E-3
428.952026E-3
428.787231E-3
428.813553E-3
428.719711E-3
428.641891E-3
428.443909E-3
428.333473E-3
428.296280E-3
428.264809E-3
428.158951E-3
428.005600E-3
427.918625E-3
427.845383E-3
427.664566E-3
427.599335E-3
427.479744E-3
427.359581E-3
427.276039E-3
427.158737E-3
427.084351E-3
426.924706E-3
426.850319E-3
426.750755E-3
426.658630E-3
426.555634E-3
426.422882E-3
426.271248E-3
426.282120E-3
426.238632E-3
426.186562E-3
426.244926E-3
426.148224E-3
426.059532E-3
426.034355E-3
425.981140E-3
426.132202E-3
425.889587E-3
425.840378E-3
425.782013E-3
425.771713E-3
425.743103E-3
425.681877E-3
425.646400E-3
425.482178E-3
425.473595E-3
425.303650E-3
425.254440E-3
425.199509E-3
425.131416E-3
425.111961E-3
425.014687E-3
425.024414E-3
425.251579E-3
425.850677E-3
426.588821E-3
427.428818E-3
428.350067E-3
429.246140E-3
429.963684E-3
430.517006E-3
430.937004E-3
431.060600E-3
431.100082E-3
430.932999E-3
430.727005E-3
430.555344E-3
430.281830E-3
429.955673E-3
429.793167E-3
429.520226E-3
429.476166E-3
429.396629E-3
429.477882E-3
429.459572E-3
429.552841E-3
429.489899E-3
429.468155E-3
429.440117E-3
429.436111E-3
429.195786E-3
428.954887E-3
428.760338E-3
428.728294E-3
428.574944E-3
428.522873E-3
428.502274E-3
428.526878E-3
428.601265E-3
428.612137E-3
428.649330E-3
428.753471E-3
428.788376E-3
428.870201E-3
428.834152E-3
428.812981E-3
428.778076E-3
428.851318E-3
428.581810E-3
428.421593E-3
428.356361E-3
428.263092E-3
428.197861E-3
428.188133E-3
428.094292E-3
427.967834E-3
427.800179E-3
427.758980E-3
427.793884E-3
427.675438E-3
427.578735E-3
427.494621E-3
427.343559E-3
427.416801E-3
427.217102E-3
427.185059E-3
427.042580E-3
427.106667E-3
426.998520E-3
426.980209E-3
427.065468E-3
426.969337E-3
426.787949E-3
426.865196E-3
426.814842E-3
426.825142E-3
426.773643E-3
426.860619E-3
426.737022E-3
426.725006E-3
426.709557E-3
426.924706E-3
426.716995E-3
426.662064E-3
426.527596E-3
426.557350E-3
426.498985E-3
426.304436E-3
426.227188E-3
426.112175E-3
426.161385E-3
426.127052E-3
426.095009E-3
426.049232E-3
426.085281E-3
426.529312E-3
427.180481E-3
427.952957E-3
428.760910E-3
429.685593E-3
430.347061E-3
430.894089E-3
431.335831E-3
431.510353E-3
431.565857E-3
431.453705E-3
431.205940E-3
430.953026E-3
430.748749E-3
430.365372E-3
430.142784E-3
429.819489E-3
429.681587E-3
429.583740E-3
429.492760E-3
429.528236E-3
429.457855E-3
429.414368E-3
429.400635E-3
429.374886E-3
429.254723E-3
429.059601E-3
428.819275E-3
428.656197E-3
428.449631E-3
428.425026E-3
428.735161E-3
428.548622E-3
428.545761E-3
428.516579E-3
428.588676E-3
428.621864E-3
428.679657E-3
428.721428E-3
428.707123E-3
428.592682E-3
428.565216E-3
428.343201E-3
428.159523E-3
428.093719E-3
428.020477E-3
427.819061E-3
427.895737E-3
427.662277E-3
427.421951E-3
427.355003E-3
427.270889E-3
427.074623E-3
427.029991E-3
426.840019E-3
426.730156E-3
426.521301E-3
426.520157E-3
426.541328E-3
426.305008E-3
426.235771E-3
426.188278E-3
425.970840E-3
425.896454E-3
425.737381E-3
425.828362E-3
425.742531E-3
425.568008E-3
425.504494E-3
425.412369E-3
425.386047E-3
425.376892E-3
425.251007E-3
425.271034E-3
425.516510E-3
425.368309E-3
425.198936E-3
425.050163E-3
424.938011E-3
424.766350E-3
424.708557E-3
424.615860E-3
424.673653E-3
424.571228E-3
424.515724E-3
424.507141E-3
424.499130E-3
424.603271E-3
424.984932E-3
425.614357E-3
426.430893E-3
427.197647E-3
428.062820E-3
428.856468E-3
429.334259E-3
429.773140E-3
429.940224E-3
430.161667E-3
429.944229E-3
429.747391E-3
429.492188E-3
429.231262E-3
428.860474E-3
428.685951E-3
428.447342E-3
428.384972E-3
428.413582E-3
428.262520E-3
428.188133E-3
428.176689E-3
428.133202E-3
428.134346E-3
428.085709E-3
428.007317E-3
427.781296E-3
427.437401E-3
427.286339E-3
427.123260E-3
427.149582E-3
427.075195E-3
427.089500E-3
427.099800E-3
427.090073E-3
427.159309E-3
427.041435E-3
427.180481E-3
427.256584E-3
427.181053E-3
427.154732E-3
427.194214E-3
427.057457E-3
426.932144E-3
426.816559E-3
426.628304E-3
426.655769E-3
426.509857E-3
426.474953E-3
426.401711E-3
426.282120E-3
426.099586E-3
426.014900E-3
425.919342E-3
426.081848E-3
425.819206E-3
425.638390E-3
425.483322E-3
425.379753E-3
425.325394E-3
425.212097E-3
425.112534E-3
425.107384E-3
425.034142E-3
424.911690E-3
424.928856E-3
424.810982E-3
424.799538E-3
424.900818E-3
424.767494E-3
424.661636E-3
424.623871E-3
424.608421E-3
424.601555E-3
424.521446E-3
424.524879E-3
424.389267E-3
424.229622E-3
424.312019E-3
424.246216E-3
424.258804E-3
424.128914E-3
423.962975E-3
423.887444E-3
423.748970E-3
423.748970E-3
423.719788E-3
423.661995E-3
423.690033E-3
423.734093E-3
424.072838E-3
424.634743E-3
425.240707E-3
426.108170E-3
426.964760E-3
427.558708E-3
428.418732E-3
428.877640E-3
429.203796E-3
429.323387E-3
429.263878E-3
429.190063E-3
428.925133E-3
428.744316E-3
428.265953E-3
428.099442E-3
427.942085E-3
427.800179E-3
427.740669E-3
427.709770E-3
427.655411E-3
427.738380E-3
427.642822E-3
427.927780E-3
427.744102E-3
427.597046E-3
427.403069E-3
427.184486E-3
427.084351E-3
426.873207E-3
426.776505E-3
426.678658E-3
426.630592E-3
426.584816E-3
426.638031E-3
426.657486E-3
426.752472E-3
426.686668E-3
426.769066E-3
426.739311E-3
426.796532E-3
426.843452E-3
426.769066E-3
426.801682E-3
426.600266E-3
426.537895E-3
426.430893E-3
426.405716E-3
426.408005E-3
426.240921E-3
426.111603E-3
425.997734E-3
425.999451E-3
425.907326E-3
425.847816E-3
425.831795E-3
425.695038E-3
425.791168E-3
425.609779E-3
425.408363E-3
425.340843E-3
425.305939E-3
425.210381E-3
425.153732E-3
425.107956E-3
425.095367E-3
425.184631E-3
425.111961E-3
425.069618E-3
424.935150E-3
424.965477E-3
424.956322E-3
424.979782E-3
424.835014E-3
424.809837E-3
425.070763E-3
424.883652E-3
424.804687E-3
424.785233E-3
424.691963E-3
424.659920E-3
424.516869E-3
424.532318E-3
424.454498E-3
424.501991E-3
424.497986E-3
424.391556E-3
424.290848E-3
424.285698E-3
424.396133E-3
424.972343E-3
425.698471E-3
426.541328E-3
427.420807E-3
428.192711E-3
428.846741E-3
429.326820E-3
429.603195E-3
429.590607E-3
429.460144E-3
429.286194E-3
429.108810E-3
428.997231E-3
428.630447E-3
428.236771E-3
427.982140E-3
427.818489E-3
427.737236E-3
427.676582E-3
427.520943E-3
427.611923E-3
427.654839E-3
427.692032E-3
427.623940E-3
427.460861E-3
427.198792E-3
427.096939E-3
426.866341E-3
426.822281E-3
426.690674E-3
426.680946E-3
426.722145E-3
426.715279E-3
426.763344E-3
426.846313E-3
426.853180E-3
426.918983E-3
427.078056E-3
427.009964E-3
426.959038E-3
427.015686E-3
426.901817E-3
426.737595E-3
426.707268E-3
426.481819E-3
426.343346E-3
425.976562E-3
425.989723E-3
425.948524E-3
425.799751E-3
425.777435E-3
425.688171E-3
425.573730E-3
425.506210E-3
425.332832E-3
425.394630E-3
425.217247E-3
425.049019E-3
424.938011E-3
424.798393E-3
424.760056E-3
424.618149E-3
424.501419E-3
424.409294E-3
424.155235E-3
424.216461E-3
424.076271E-3
424.122047E-3
424.063110E-3
423.923492E-3
423.854828E-3
423.787880E-3
423.731804E-3
423.820496E-3
423.661995E-3
423.532104E-3
423.361588E-3
423.283195E-3
423.205948E-3
423.072624E-3
423.002815E-3
422.979927E-3
422.791100E-3
422.733307E-3
422.687531E-3
422.990227E-3
423.524094E-3
424.246788E-3
424.991798E-3
425.811195E-3
426.573944E-3
426.891518E-3
427.514648E-3
427.685165E-3
427.817917E-3
427.738380E-3
427.565575E-3
427.340698E-3
427.079773E-3
426.752472E-3
426.727867E-3
426.401138E-3
426.214027E-3
426.142502E-3
426.056671E-3
