Notes :


2023-10-26 ¿ÀÈÄ 10:52:41
Volts
Ch : LED 2,
279.438972E-3
282.207298E-3
283.963966E-3
287.049294E-3
289.262581E-3
289.838791E-3
291.631508E-3
291.902733E-3
293.022537E-3
292.755890E-3
291.903305E-3
292.512131E-3
291.427231E-3
292.149353E-3
292.542458E-3
292.578506E-3
294.205284E-3
294.752312E-3
295.990562E-3
296.202278E-3
295.515060E-3
295.738792E-3
294.864464E-3
294.989777E-3
294.562912E-3
293.654251E-3
293.951225E-3
294.104004E-3
295.045280E-3
295.472717E-3
295.488167E-3
296.946144E-3
297.231674E-3
298.978043E-3
299.846077E-3
300.006866E-3
301.741219E-3
301.816750E-3
302.964020E-3
303.507614E-3
303.043556E-3
304.565620E-3
304.336739E-3
304.940987E-3
305.104065E-3
304.462051E-3
305.514336E-3
304.739571E-3
305.431938E-3
305.347252E-3
304.772758E-3
305.849648E-3
305.209923E-3
306.052208E-3
306.102562E-3
305.453682E-3
307.024956E-3
306.146622E-3
306.867027E-3
306.904221E-3
306.415558E-3
307.913017E-3
307.323074E-3
308.145332E-3
308.456039E-3
307.780266E-3
309.603310E-3
308.856583E-3
309.626770E-3
309.996986E-3
309.769821E-3
311.255836E-3
310.701370E-3
311.282158E-3
311.051559E-3
310.873604E-3
312.349319E-3
311.508751E-3
311.823463E-3
312.125015E-3
311.314774E-3
312.677193E-3
311.984253E-3
312.448883E-3
312.746429E-3
312.514114E-3
314.039040E-3
313.580704E-3
314.204407E-3
314.828110E-3
313.920021E-3
315.855789E-3
315.170288E-3
314.695930E-3
312.801361E-3
308.766747E-3
304.843712E-3
297.932053E-3
292.140770E-3
286.343765E-3
280.381966E-3
279.711914E-3
277.731514E-3
278.377533E-3
279.644966E-3
281.203079E-3
285.071754E-3
286.559486E-3
289.256859E-3
291.613770E-3
291.286469E-3
294.510269E-3
294.350052E-3
294.639587E-3
294.827271E-3
293.896866E-3
294.820404E-3
293.645668E-3
294.167519E-3
294.746017E-3
294.030190E-3
296.751022E-3
296.738434E-3
297.696304E-3
298.389244E-3
297.858810E-3
298.924828E-3
297.391891E-3
297.299194E-3
297.304916E-3
296.331024E-3
297.665405E-3
296.802521E-3
297.492027E-3
298.137474E-3
297.748375E-3
300.170517E-3
300.071526E-3
301.514053E-3
302.954865E-3
303.117371E-3
305.233955E-3
304.839706E-3
305.853653E-3
306.523132E-3
306.576920E-3
308.197403E-3
307.444382E-3
308.101273E-3
308.520126E-3
306.887627E-3
309.016800E-3
308.306122E-3
308.537865E-3
308.856583E-3
308.757019E-3
309.824181E-3
309.060287E-3
309.445381E-3
309.895134E-3
309.419060E-3
310.582924E-3
309.564400E-3
310.063362E-3
310.515976E-3
310.260773E-3
311.797142E-3
311.201477E-3
311.640930E-3
311.976814E-3
312.032890E-3
313.530350E-3
312.626839E-3
313.288307E-3
313.851929E-3
313.877106E-3
315.117073E-3
314.523697E-3
315.113640E-3
315.650940E-3
315.279579E-3
316.440582E-3
315.747643E-3
315.993690E-3
316.095543E-3
315.682411E-3
316.935539E-3
315.948486E-3
316.524696E-3
316.532135E-3
316.603088E-3
317.942619E-3
317.414474E-3
317.999268E-3
318.486214E-3
317.567253E-3
319.554520E-3
319.125938E-3
319.254112E-3
318.860435E-3
315.979958E-3
314.104271E-3
309.043121E-3
303.042984E-3
297.481155E-3
291.456985E-3
287.981415E-3
284.477234E-3
283.857536E-3
284.488678E-3
285.719490E-3
288.939285E-3
290.676498E-3
293.569565E-3
296.436310E-3
298.355484E-3
301.273727E-3
301.783562E-3
302.697372E-3
303.551102E-3
303.052711E-3
303.903008E-3
302.839851E-3
302.829552E-3
303.296471E-3
303.526497E-3
305.203629E-3
304.802513E-3
305.180168E-3
305.407906E-3
304.466629E-3
305.060577E-3
303.299904E-3
302.366066E-3
302.135468E-3
301.031685E-3
301.899147E-3
301.070595E-3
301.284027E-3
302.126884E-3
301.906586E-3
304.083252E-3
304.274940E-3
305.199051E-3
306.136894E-3
305.772972E-3
308.288956E-3
308.837700E-3
309.463692E-3
310.312843E-3
310.432434E-3
311.841202E-3
311.424065E-3
311.808586E-3
312.321854E-3
311.560249E-3
312.948418E-3
312.314415E-3
312.419128E-3
312.662888E-3
312.146759E-3
313.232231E-3
312.400246E-3
312.482643E-3
312.985039E-3
312.360764E-3
313.620758E-3
312.995338E-3
312.892914E-3
313.443947E-3
313.215637E-3
314.105415E-3
313.781548E-3
313.816452E-3
314.745712E-3
314.259338E-3
315.325928E-3
315.099907E-3
315.289879E-3
316.207695E-3
316.403961E-3
317.572975E-3
317.015648E-3
317.342949E-3
317.749214E-3
317.594719E-3
318.764877E-3
318.027878E-3
318.164063E-3
318.920517E-3
317.907143E-3
319.635201E-3
319.355965E-3
319.915581E-3
320.587921E-3
320.308685E-3
321.483994E-3
321.229935E-3
321.339226E-3
321.486282E-3
319.908714E-3
318.465042E-3
314.024734E-3
308.894348E-3
303.483009E-3
296.880341E-3
292.810249E-3
288.359642E-3
285.813904E-3
285.776711E-3
285.461426E-3
288.116455E-3
289.899445E-3
292.376518E-3
295.279884E-3
296.843147E-3
300.173950E-3
301.502609E-3
302.558327E-3
303.636360E-3
303.299904E-3
304.360771E-3
303.872681E-3
303.648949E-3
303.558540E-3
302.788353E-3
304.340172E-3
304.634857E-3
305.289459E-3
306.233597E-3
305.509758E-3
306.122589E-3
305.636215E-3
304.983902E-3
305.010223E-3
303.461838E-3
304.020309E-3
303.400040E-3
303.304482E-3
303.287888E-3
302.949715E-3
304.565620E-3
304.890060E-3
305.564117E-3
306.887627E-3
306.771469E-3
308.650589E-3
309.447670E-3
310.083389E-3
311.136246E-3
310.925102E-3
312.529564E-3
312.721252E-3
313.241386E-3
313.854790E-3
313.156128E-3
314.283371E-3
314.263344E-3
314.255333E-3
314.770317E-3
313.786125E-3
314.659882E-3
314.604378E-3
314.230728E-3
314.722252E-3
313.928032E-3
314.990044E-3
314.843559E-3
314.787483E-3
315.190315E-3
314.558601E-3
315.646935E-3
315.267563E-3
315.182304E-3
315.882683E-3
315.284729E-3
316.591072E-3
316.682053E-3
316.752434E-3
317.036819E-3
316.644287E-3
318.014145E-3
318.275642E-3
318.080521E-3
318.980026E-3
318.694496E-3
319.743919E-3
319.726181E-3
319.557381E-3
320.129585E-3
319.471550E-3
320.780754E-3
320.589066E-3
320.724678E-3
321.497154E-3
320.562172E-3
322.157478E-3
322.212410E-3
322.307396E-3
323.234367E-3
322.542572E-3
324.004555E-3
323.783684E-3
322.476768E-3
321.395874E-3
316.666603E-3
313.134384E-3
307.194901E-3
300.684357E-3
295.986557E-3
291.066742E-3
289.746666E-3
288.165665E-3
288.142204E-3
289.966965E-3
291.362000E-3
295.232391E-3
297.587585E-3
299.792290E-3
302.418137E-3
303.334236E-3
306.209564E-3
306.872177E-3
307.030106E-3
307.721901E-3
306.897926E-3
308.136177E-3
307.767677E-3
307.265282E-3
308.114433E-3
307.887268E-3
309.762955E-3
309.941483E-3
309.629631E-3
309.790421E-3
308.801651E-3
309.370995E-3
308.492088E-3
307.357407E-3
307.265854E-3
306.109428E-3
307.428360E-3
307.237244E-3
306.966019E-3
307.516479E-3
307.864952E-3
310.041618E-3
310.256767E-3
310.766602E-3
312.146187E-3
312.236595E-3
314.511108E-3
314.845848E-3
315.181160E-3
316.283798E-3
316.246033E-3
317.730331E-3
317.786407E-3
317.622757E-3
318.228722E-3
317.775536E-3
319.040108E-3
318.799210E-3
318.348312E-3
318.982315E-3
318.355179E-3
319.561386E-3
319.300461E-3
318.896484E-3
319.271278E-3
318.665314E-3
319.743919E-3
319.589996E-3
319.047546E-3
319.487000E-3
319.163704E-3
320.227432E-3
320.418549E-3
319.828033E-3
320.392227E-3
320.439148E-3
321.660233E-3
321.552658E-3
321.248245E-3
321.916580E-3
321.811867E-3
323.113060E-3
323.169136E-3
322.572899E-3
323.374557E-3
323.124504E-3
323.996544E-3
323.807716E-3
323.577118E-3
324.006271E-3
323.692703E-3
324.798775E-3
324.652290E-3
324.341583E-3
325.198746E-3
325.174713E-3
325.973511E-3
326.267624E-3
325.853920E-3
326.544571E-3
325.990677E-3
326.508522E-3
325.457382E-3
322.536278E-3
319.397736E-3
313.579559E-3
308.774757E-3
303.183174E-3
298.142052E-3
295.553970E-3
293.336678E-3
294.031334E-3
294.823265E-3
296.249771E-3
299.173164E-3
301.230240E-3
304.801369E-3
306.897354E-3
308.103561E-3
310.568619E-3
311.634636E-3
313.270569E-3
313.747787E-3
313.583565E-3
314.041901E-3
313.748932E-3
314.784050E-3
314.730835E-3
314.706802E-3
315.333939E-3
314.762878E-3
315.332794E-3
314.477348E-3
312.776184E-3
312.611389E-3
311.316490E-3
311.179733E-3
310.592651E-3
309.734344E-3
310.216713E-3
309.845924E-3
310.957718E-3
311.418915E-3
311.809731E-3
313.010788E-3
313.109779E-3
314.732552E-3
315.515327E-3
315.821457E-3
317.040253E-3
317.174721E-3
318.648148E-3
319.068718E-3
318.982315E-3
320.017433E-3
319.652367E-3
320.788193E-3
321.047974E-3
320.459175E-3
321.264267E-3
320.761871E-3
321.520042E-3
321.370697E-3
320.680046E-3
321.400452E-3
320.711517E-3
321.537781E-3
321.212769E-3
320.583344E-3
321.429634E-3
320.885468E-3
321.404457E-3
321.431351E-3
320.874023E-3
321.753502E-3
321.163559E-3
322.159767E-3
322.379494E-3
321.848488E-3
322.620392E-3
322.273636E-3
323.062134E-3
323.300171E-3
321.709442E-3
323.180008E-3
323.117638E-3
323.724174E-3
324.117279E-3
323.748779E-3
324.864006E-3
324.438858E-3
325.464249E-3
325.845337E-3
325.317192E-3
326.415825E-3
326.256752E-3
326.994896E-3
326.860428E-3
325.930595E-3
324.509239E-3
320.875168E-3
317.312050E-3
311.667252E-3
305.040550E-3
300.588226E-3
296.248627E-3
294.158363E-3
292.659760E-3
291.716194E-3
293.534088E-3
295.097351E-3
298.639297E-3
301.143265E-3
302.947426E-3
306.023598E-3
307.406616E-3
309.507179E-3
310.442162E-3
310.524559E-3
311.074448E-3
311.106491E-3
311.501312E-3
311.231232E-3
310.672188E-3
311.720467E-3
311.795425E-3
312.859154E-3
312.847137E-3
312.160492E-3
312.625122E-3
311.710739E-3
311.912155E-3
311.164856E-3
309.635925E-3
309.654808E-3
309.118080E-3
309.584999E-3
309.431648E-3
308.782196E-3
310.151482E-3
310.484505E-3
311.585426E-3
312.229156E-3
312.166786E-3
313.739777E-3
313.890839E-3
315.663528E-3
316.663170E-3
316.561317E-3
317.988968E-3
317.815590E-3
318.830109E-3
319.259262E-3
318.669891E-3
320.009422E-3
319.425774E-3
320.178223E-3
320.320702E-3
319.690704E-3
320.793343E-3
320.258331E-3
320.630836E-3
320.951271E-3
320.143318E-3
321.120644E-3
320.542717E-3
321.295738E-3
321.256256E-3
320.416832E-3
321.842194E-3
321.027374E-3
321.667671E-3
321.747208E-3
321.249962E-3
322.701073E-3
321.992111E-3
322.766876E-3
322.915077E-3
322.178078E-3
323.729324E-3
322.975731E-3
323.933029E-3
323.828316E-3
323.312187E-3
325.041962E-3
324.427986E-3
325.449371E-3
325.809288E-3
325.271988E-3
327.033806E-3
326.637268E-3
327.589417E-3
327.658081E-3
326.418686E-3
327.415466E-3
325.087166E-3
322.422981E-3
317.746353E-3
311.129379E-3
307.077026E-3
301.317215E-3
297.955513E-3
295.492172E-3
293.897438E-3
295.408058E-3
295.980263E-3
298.643303E-3
301.308632E-3
303.425789E-3
307.121086E-3
308.214569E-3
310.624695E-3
312.340164E-3
312.664604E-3
314.673615E-3
314.105988E-3
314.448738E-3
314.509392E-3
313.934326E-3
315.045547E-3
314.709663E-3
315.304184E-3
315.930176E-3
315.392303E-3
316.049767E-3
314.487076E-3
313.997269E-3
313.518906E-3
312.161636E-3
312.694931E-3
310.966873E-3
311.102486E-3
311.438942E-3
310.861588E-3
312.666321E-3
312.085533E-3
313.318634E-3
314.101410E-3
314.325142E-3
316.399384E-3
316.317558E-3
317.385864E-3
318.340302E-3
318.383217E-3
320.221710E-3
319.702721E-3
320.276642E-3
321.072578E-3
320.579338E-3
322.075653E-3
321.215630E-3
321.349525E-3
321.814728E-3
321.398735E-3
322.556305E-3
321.423912E-3
321.630478E-3
322.046471E-3
321.402740E-3
322.472763E-3
321.415901E-3
321.695137E-3
321.888542E-3
320.709229E-3
322.210693E-3
321.368980E-3
321.402168E-3
321.933174E-3
321.574974E-3
322.806931E-3
321.908569E-3
322.326279E-3
322.786903E-3
322.220421E-3
323.628044E-3
322.891045E-3
323.410606E-3
324.091530E-3
323.980522E-3
325.437927E-3
324.778175E-3
325.417328E-3
325.885963E-3
326.066208E-3
327.235794E-3
326.205826E-3
325.609589E-3
323.984528E-3
320.591354E-3
317.378998E-3
311.161995E-3
306.170082E-3
301.603317E-3
297.854805E-3
296.859741E-3
295.341682E-3
296.376228E-3
298.255920E-3
299.783707E-3
303.408051E-3
304.881477E-3
307.550240E-3
309.666824E-3
311.036110E-3
313.302040E-3
313.427353E-3
314.231300E-3
315.094757E-3
314.775467E-3
316.007423E-3
315.254974E-3
315.633774E-3
316.442299E-3
316.248322E-3
317.134666E-3
315.432930E-3
314.912796E-3
314.256477E-3
312.920380E-3
312.596512E-3
310.877037E-3
310.555458E-3
310.536003E-3
310.117722E-3
311.396027E-3
310.952568E-3
311.633492E-3
312.759018E-3
311.823463E-3
314.370346E-3
314.666176E-3
315.598869E-3
316.555023E-3
316.800499E-3
318.493652E-3
318.142891E-3
318.580627E-3
319.150543E-3
319.208908E-3
320.615387E-3
319.925308E-3
320.261192E-3
320.403099E-3
320.141029E-3
321.042252E-3
320.332718E-3
320.123291E-3
320.429993E-3
319.939041E-3
320.983887E-3
320.067787E-3
320.262337E-3
320.298386E-3
320.116997E-3
321.025658E-3
320.289803E-3
320.440865E-3
320.694923E-3
319.337082E-3
321.049690E-3
320.646858E-3
321.315193E-3
321.412468E-3
321.022797E-3
322.112274E-3
321.608734E-3
321.868515E-3
322.392082E-3
322.217560E-3
323.760223E-3
323.099327E-3
323.553658E-3
323.781395E-3
323.739052E-3
325.308037E-3
324.762154E-3
325.028229E-3
324.643135E-3
321.742058E-3
320.820808E-3
315.348816E-3
309.897423E-3
304.273224E-3
298.606682E-3
295.691872E-3
292.139053E-3
290.717697E-3
290.942001E-3
291.640091E-3
294.677925E-3
296.139336E-3
298.428154E-3
301.162148E-3
302.823830E-3
305.558968E-3
306.091690E-3
306.973457E-3
307.818604E-3
307.426643E-3
308.484077E-3
307.395172E-3
307.651520E-3
307.851791E-3
307.277298E-3
308.918953E-3
308.620834E-3
309.173012E-3
309.537506E-3
308.650589E-3
309.118080E-3
307.715034E-3
306.821823E-3
306.753731E-3
305.969810E-3
306.650162E-3
306.025887E-3
306.276512E-3
306.884766E-3
307.073593E-3
308.577347E-3
308.773041E-3
309.577560E-3
310.291672E-3
310.770607E-3
312.678909E-3
312.559891E-3
313.102913E-3
313.930321E-3
313.708878E-3
315.212059E-3
314.717674E-3
314.940834E-3
315.562820E-3
315.265846E-3
316.405106E-3
315.708160E-3
315.678978E-3
316.071510E-3
315.691566E-3
316.702080E-3
316.290665E-3
316.180801E-3
316.702652E-3
316.208267E-3
317.307472E-3
316.648293E-3
316.988754E-3
317.425919E-3
317.207336E-3
318.041611E-3
317.471695E-3
317.659950E-3
318.003273E-3
317.541504E-3
318.811798E-3
318.236160E-3
318.299103E-3
318.874741E-3
318.552589E-3
319.965363E-3
319.729614E-3
320.118713E-3
320.752716E-3
320.363045E-3
321.767235E-3
321.726036E-3
322.288513E-3
322.757149E-3
322.104836E-3
322.883034E-3
321.310043E-3
318.962288E-3
315.266991E-3
308.976746E-3
304.448891E-3
298.614120E-3
294.012451E-3
291.495323E-3
289.084625E-3
290.236473E-3
290.927696E-3
292.580795E-3
295.347977E-3
296.718979E-3
300.338173E-3
302.348900E-3
303.802299E-3
305.976105E-3
306.208992E-3
307.598305E-3
307.360840E-3
307.273293E-3
307.641220E-3
306.519699E-3
307.474709E-3
307.621193E-3
308.340454E-3
309.315491E-3
308.394814E-3
309.554672E-3
309.120369E-3
308.805084E-3
308.342743E-3
306.587791E-3
306.880188E-3
306.243896E-3
305.889130E-3
306.309700E-3
305.625916E-3
307.155991E-3
307.565689E-3
308.412552E-3
309.310341E-3
309.293175E-3
311.109352E-3
311.678123E-3
312.383080E-3
313.230515E-3
313.136101E-3
