Notes :


2023-10-27 ¿ÀÈÄ 9:14:56
Volts
Ch : LED 2,
771.055984E-3
769.859505E-3
770.015144E-3
768.449020E-3
769.121933E-3
767.703438E-3
765.597153E-3
765.459251E-3
763.857651E-3
764.342880E-3
763.110352E-3
761.283875E-3
761.423492E-3
759.979248E-3
760.858727E-3
760.068512E-3
758.940125E-3
759.518051E-3
758.415985E-3
759.659958E-3
759.059715E-3
757.929611E-3
758.347321E-3
757.820892E-3
758.922386E-3
758.245468E-3
757.361412E-3
758.193398E-3
757.258987E-3
758.306122E-3
757.905006E-3
756.687927E-3
757.069016E-3
756.326294E-3
757.633209E-3
756.985474E-3
755.835342E-3
756.576347E-3
755.593872E-3
756.408691E-3
755.890846E-3
754.567337E-3
754.958725E-3
753.903008E-3
754.603386E-3
753.923035E-3
752.268791E-3
752.666473E-3
751.435661E-3
752.063370E-3
751.458549E-3
749.480438E-3
750.465202E-3
750.966454E-3
754.575348E-3
758.069801E-3
762.339020E-3
768.961143E-3
774.381065E-3
780.389786E-3
783.741760E-3
783.995247E-3
786.138153E-3
784.923935E-3
784.708214E-3
782.288933E-3
779.030800E-3
778.121567E-3
775.556946E-3
775.245667E-3
774.161911E-3
772.329712E-3
773.063278E-3
772.520256E-3
773.922729E-3
774.160194E-3
773.260117E-3
774.319267E-3
772.810364E-3
772.717667E-3
771.113777E-3
767.662239E-3
768.891907E-3
767.523193E-3
768.169212E-3
768.257332E-3
767.701149E-3
770.130157E-3
769.089317E-3
770.364189E-3
770.210838E-3
768.977165E-3
770.701790E-3
768.466759E-3
768.576050E-3
767.431068E-3
765.480423E-3
766.332436E-3
763.714600E-3
763.645363E-3
762.780762E-3
760.257339E-3
761.860657E-3
760.234451E-3
760.359192E-3
759.978676E-3
758.272934E-3
760.098267E-3
758.689499E-3
758.930397E-3
758.740997E-3
757.403183E-3
759.228516E-3
757.630348E-3
758.023453E-3
757.949638E-3
756.848717E-3
758.637428E-3
756.919098E-3
757.432938E-3
757.406616E-3
756.210136E-3
757.673264E-3
756.195831E-3
756.591225E-3
756.518555E-3
754.817963E-3
756.958580E-3
755.239105E-3
755.350113E-3
755.412483E-3
754.108429E-3
755.495453E-3
753.589439E-3
753.465271E-3
753.005791E-3
751.646233E-3
752.675629E-3
750.696373E-3
750.698662E-3
750.600243E-3
748.873329E-3
751.171875E-3
750.075531E-3
751.425934E-3
753.993416E-3
756.485939E-3
764.250183E-3
768.861580E-3
774.824524E-3
779.041672E-3
781.339645E-3
784.502792E-3
782.927513E-3
782.229424E-3
780.406380E-3
777.493858E-3
776.849556E-3
773.155403E-3
771.625900E-3
770.368767E-3
768.653297E-3
769.661522E-3
767.996979E-3
768.641281E-3
769.167709E-3
768.126297E-3
769.971657E-3
767.889404E-3
767.153549E-3
765.853500E-3
764.162636E-3
765.044403E-3
763.280869E-3
763.927460E-3
764.773750E-3
764.412689E-3
767.090034E-3
766.414261E-3
767.036819E-3
767.432213E-3
766.587067E-3
767.821312E-3
765.455818E-3
764.895058E-3
763.710022E-3
762.130165E-3
762.723541E-3
760.608101E-3
760.070801E-3
759.730911E-3
757.533073E-3
759.013367E-3
757.091331E-3
757.111359E-3
756.910515E-3
755.968666E-3
757.503319E-3
755.904579E-3
756.100273E-3
756.260490E-3
755.645370E-3
756.863022E-3
755.387306E-3
755.744934E-3
755.747223E-3
754.718399E-3
755.992126E-3
754.662895E-3
754.585075E-3
754.664612E-3
753.834343E-3
755.517197E-3
753.959084E-3
754.296112E-3
754.665184E-3
752.966881E-3
754.943275E-3
753.436661E-3
753.793716E-3
753.532791E-3
752.301979E-3
753.511620E-3
751.512337E-3
751.428795E-3
751.023674E-3
750.017166E-3
751.179314E-3
749.414635E-3
749.606895E-3
749.678421E-3
749.047279E-3
751.564980E-3
753.087044E-3
757.560539E-3
763.350105E-3
768.446159E-3
775.674248E-3
778.827667E-3
782.322121E-3
784.340858E-3
783.927155E-3
784.837532E-3
782.234001E-3
780.224991E-3
778.364754E-3
775.746346E-3
775.275993E-3
772.924805E-3
772.119713E-3
772.168922E-3
771.322060E-3
773.074722E-3
772.561455E-3
772.651291E-3
773.331070E-3
772.478485E-3
773.117638E-3
770.688629E-3
769.043541E-3
767.995834E-3
766.233444E-3
767.252541E-3
766.291237E-3
766.791916E-3
767.619324E-3
767.277145E-3
769.123650E-3
768.570900E-3
768.574905E-3
768.720245E-3
767.279434E-3
768.276215E-3
766.601372E-3
765.569687E-3
765.205193E-3
762.799072E-3
763.848495E-3
762.015152E-3
761.175728E-3
760.920525E-3
758.660889E-3
759.987259E-3
758.834267E-3
758.457184E-3
758.311272E-3
756.539726E-3
758.254623E-3
757.443810E-3
757.339096E-3
757.731056E-3
755.734634E-3
757.534218E-3
756.697083E-3
756.528854E-3
757.032967E-3
755.316353E-3
757.062721E-3
756.310272E-3
756.069946E-3
756.579208E-3
754.341316E-3
756.180954E-3
755.335236E-3
755.076599E-3
755.248833E-3
753.607178E-3
755.358696E-3
754.630852E-3
753.899002E-3
754.171944E-3
752.353477E-3
754.010582E-3
753.016663E-3
751.829910E-3
751.650238E-3
749.642944E-3
751.024818E-3
749.999428E-3
749.280167E-3
749.398613E-3
747.805595E-3
749.867821E-3
750.682640E-3
753.009224E-3
758.076668E-3
762.093544E-3
769.668961E-3
774.874306E-3
778.836823E-3
782.373047E-3
782.393646E-3
784.620667E-3
783.390999E-3
780.876160E-3
779.723167E-3
775.863075E-3
775.859070E-3
773.767662E-3
771.814156E-3
771.845627E-3
770.131302E-3
772.009850E-3
771.749496E-3
771.421051E-3
772.645569E-3
771.294594E-3
772.772598E-3
771.419907E-3
769.235802E-3
768.394661E-3
765.836906E-3
766.795921E-3
766.050911E-3
765.185165E-3
766.412544E-3
766.093826E-3
768.205833E-3
768.125725E-3
767.246246E-3
767.914581E-3
766.997910E-3
767.899132E-3
766.361046E-3
764.477348E-3
764.327431E-3
762.594795E-3
763.152122E-3
761.535645E-3
759.918022E-3
759.695435E-3
758.326721E-3
759.143257E-3
757.840919E-3
756.321144E-3
756.413269E-3
755.239105E-3
756.681633E-3
755.548096E-3
754.659462E-3
755.172729E-3
754.485512E-3
755.522919E-3
754.666901E-3
753.869247E-3
754.253197E-3
753.325653E-3
754.600525E-3
753.778839E-3
752.737427E-3
753.253555E-3
752.528000E-3
753.531075E-3
752.824402E-3
751.961517E-3
752.564621E-3
751.627922E-3
752.870178E-3
751.995277E-3
750.982475E-3
751.348114E-3
750.166512E-3
751.198769E-3
750.087547E-3
749.135971E-3
749.370575E-3
748.237610E-3
749.079323E-3
748.261070E-3
746.965599E-3
747.147560E-3
746.010590E-3
746.994781E-3
746.405411E-3
745.818329E-3
747.875404E-3
749.893570E-3
755.876541E-3
760.894775E-3
766.052628E-3
772.256470E-3
775.643349E-3
779.690552E-3
780.431557E-3
779.356956E-3
778.601074E-3
776.106262E-3
775.384712E-3
772.381783E-3
768.872452E-3
768.038750E-3
766.504669E-3
767.173576E-3
766.233444E-3
765.284157E-3
766.402245E-3
765.884399E-3
767.397881E-3
766.824532E-3
765.090752E-3
764.976311E-3
762.993050E-3
762.974167E-3
761.736488E-3
760.863876E-3
762.205124E-3
762.151337E-3
764.043617E-3
764.472198E-3
764.239883E-3
765.858650E-3
765.170288E-3
766.290092E-3
765.696144E-3
764.022446E-3
764.225006E-3
762.696075E-3
762.885475E-3
761.730766E-3
759.646225E-3
759.844208E-3
758.225441E-3
758.579063E-3
757.693863E-3
756.002426E-3
756.341743E-3
755.181313E-3
755.871391E-3
755.391312E-3
753.873253E-3
754.633713E-3
753.824043E-3
754.855728E-3
754.430008E-3
752.931976E-3
753.751945E-3
752.791786E-3
753.710175E-3
753.293610E-3
752.085114E-3
752.904510E-3
752.117157E-3
752.787781E-3
752.529144E-3
751.284599E-3
752.088547E-3
751.059723E-3
752.087402E-3
751.570702E-3
750.389671E-3
751.451111E-3
750.145912E-3
750.671196E-3
750.115013E-3
748.001862E-3
749.179459E-3
747.629929E-3
748.206711E-3
747.312927E-3
745.521927E-3
747.114944E-3
745.802307E-3
746.796227E-3
748.213577E-3
750.181389E-3
756.890488E-3
761.347389E-3
767.969513E-3
772.907639E-3
776.140022E-3
781.217194E-3
781.255531E-3
782.010841E-3
781.030655E-3
778.257751E-3
778.050041E-3
774.411964E-3
773.277855E-3
771.689415E-3
769.366264E-3
770.524979E-3
768.691063E-3
769.178581E-3
769.294167E-3
767.951775E-3
770.952988E-3
769.916153E-3
770.464325E-3
769.626045E-3
767.106056E-3
767.614746E-3
764.673042E-3
764.535141E-3
764.242744E-3
763.375854E-3
765.600586E-3
764.762306E-3
765.698433E-3
766.123581E-3
765.416908E-3
767.334366E-3
765.657234E-3
765.501595E-3
765.039825E-3
763.176155E-3
764.218140E-3
761.852074E-3
761.290741E-3
760.234451E-3
758.145332E-3
759.586143E-3
757.454681E-3
757.233810E-3
756.897354E-3
754.687500E-3
756.701660E-3
755.122948E-3
755.068016E-3
755.174446E-3
754.129028E-3
755.738068E-3
754.018021E-3
754.019165E-3
753.984261E-3
753.178024E-3
754.928398E-3
753.136253E-3
753.603745E-3
753.804588E-3
751.725197E-3
754.182816E-3
752.790642E-3
752.771187E-3
753.072739E-3
752.056503E-3
753.630066E-3
751.723480E-3
751.559830E-3
751.487160E-3
749.068451E-3
750.918961E-3
749.107361E-3
748.918533E-3
748.184395E-3
746.491814E-3
748.546028E-3
747.196198E-3
748.114014E-3
749.828339E-3
752.318573E-3
758.709526E-3
762.907219E-3
769.095612E-3
774.408531E-3
777.614021E-3
781.866646E-3
781.558800E-3
781.812859E-3
780.860138E-3
778.554726E-3
778.313255E-3
774.841118E-3
773.481560E-3
772.190094E-3
770.478630E-3
771.580124E-3
769.887543E-3
770.333290E-3
770.791054E-3
770.272064E-3
772.202682E-3
770.589638E-3
770.682335E-3
770.067215E-3
767.735481E-3
767.927742E-3
765.197182E-3
764.932251E-3
764.702225E-3
764.137459E-3
765.920448E-3
764.911079E-3
765.871811E-3
766.421700E-3
766.160202E-3
767.637634E-3
765.835190E-3
766.003990E-3
765.486717E-3
764.111137E-3
764.678764E-3
762.470055E-3
762.070084E-3
761.330795E-3
758.517265E-3
759.820747E-3
758.064079E-3
757.849503E-3
757.700157E-3
755.885124E-3
757.439232E-3
755.797577E-3
755.584717E-3
755.393600E-3
753.821754E-3
755.587578E-3
754.294968E-3
754.200554E-3
754.240036E-3
753.619766E-3
755.108643E-3
753.883553E-3
754.050636E-3
754.305267E-3
753.651810E-3
754.897499E-3
753.108215E-3
753.317070E-3
753.257561E-3
751.891708E-3
752.785492E-3
750.715828E-3
750.543594E-3
750.413704E-3
749.085045E-3
749.901581E-3
748.307991E-3
748.466492E-3
749.226379E-3
749.858093E-3
754.604530E-3
757.769966E-3
763.341522E-3
768.800354E-3
771.825600E-3
777.765083E-3
779.012489E-3
780.369186E-3
780.377769E-3
778.277206E-3
778.352165E-3
775.045967E-3
773.162270E-3
771.599007E-3
769.147682E-3
769.521332E-3
767.667961E-3
767.764091E-3
768.094826E-3
767.350388E-3
768.976593E-3
767.744064E-3
767.241669E-3
766.605949E-3
763.425636E-3
764.370918E-3
762.370491E-3
761.565399E-3
762.016296E-3
761.450386E-3
763.383865E-3
762.736130E-3
763.102913E-3
763.800430E-3
763.341522E-3
764.725685E-3
763.290024E-3
762.626839E-3
762.468338E-3
761.001778E-3
761.418915E-3
759.530067E-3
758.587074E-3
758.089256E-3
756.390953E-3
756.776047E-3
755.043411E-3
754.187965E-3
754.094124E-3
752.376938E-3
753.453255E-3
752.091408E-3
751.815033E-3
752.272224E-3
750.761604E-3
752.363777E-3
751.558685E-3
751.342964E-3
751.535225E-3
748.525429E-3
751.320648E-3
750.777054E-3
750.994492E-3
751.537514E-3
749.997711E-3
751.796150E-3
751.048279E-3
750.922966E-3
750.834274E-3
749.018669E-3
750.370216E-3
749.102783E-3
748.708534E-3
748.532295E-3
746.296692E-3
747.521210E-3
746.517563E-3
746.420860E-3
746.636009E-3
745.386314E-3
748.748016E-3
750.739288E-3
754.878616E-3
760.921669E-3
764.814377E-3
771.730042E-3
774.732399E-3
777.258110E-3
778.919792E-3
777.198029E-3
777.908707E-3
775.586128E-3
772.917366E-3
770.976448E-3
767.567825E-3
767.658806E-3
765.522766E-3
764.432716E-3
764.359474E-3
762.641144E-3
764.741707E-3
764.096832E-3
764.023018E-3
763.834190E-3
761.247253E-3
761.904716E-3
760.183525E-3
759.567261E-3
759.815598E-3
758.357620E-3
760.836983E-3
761.275864E-3
761.770821E-3
763.139534E-3
762.096977E-3
764.214134E-3
763.667107E-3
762.743568E-3
762.769890E-3
760.422707E-3
761.095047E-3
759.651375E-3
757.979965E-3
757.619476E-3
755.311775E-3
756.282234E-3
755.138397E-3
753.890991E-3
754.035759E-3
751.994705E-3
753.520203E-3
752.874184E-3
751.961517E-3
752.550888E-3
750.544739E-3
752.244759E-3
751.873970E-3
751.088333E-3
751.860809E-3
750.171661E-3
752.119446E-3
751.825333E-3
751.213646E-3
752.105141E-3
750.437737E-3
752.210426E-3
751.819038E-3
750.826263E-3
751.430511E-3
749.733353E-3
751.211357E-3
750.315857E-3
749.284172E-3
749.413490E-3
747.610474E-3
748.852730E-3
747.979546E-3
746.960449E-3
747.305489E-3
746.273232E-3
749.078751E-3
751.120377E-3
754.507256E-3
760.834694E-3
765.834045E-3
773.012924E-3
776.793480E-3
779.451370E-3
781.926727E-3
781.309891E-3
781.953621E-3
779.794693E-3
776.790047E-3
775.230789E-3
772.217560E-3
771.756935E-3
769.900131E-3
768.357468E-3
768.532562E-3
767.794418E-3
769.486427E-3
769.148254E-3
768.674469E-3
768.867302E-3
767.460251E-3
767.678261E-3
765.657806E-3
763.504601E-3
763.352394E-3
762.478065E-3
764.174652E-3
763.878822E-3
763.711166E-3
765.336227E-3
765.022087E-3
766.778755E-3
766.399384E-3
765.677261E-3
765.846062E-3
764.424706E-3
765.197754E-3
763.452530E-3
761.829185E-3
761.474991E-3
759.865379E-3
760.398674E-3
758.873749E-3
757.549667E-3
757.307625E-3
756.114006E-3
756.987762E-3
755.711174E-3
754.664040E-3
755.045700E-3
754.062080E-3
755.407906E-3
754.456329E-3
753.846931E-3
754.314995E-3
753.722191E-3
754.876900E-3
754.175377E-3
753.021812E-3
753.961945E-3
753.396034E-3
754.547882E-3
754.060364E-3
753.385735E-3
753.931046E-3
753.315926E-3
754.355621E-3
753.708458E-3
752.570343E-3
752.798080E-3
751.642799E-3
752.259064E-3
751.141548E-3
749.897575E-3
750.001144E-3
748.701096E-3
749.388313E-3
748.578072E-3
748.122025E-3
749.898148E-3
751.775551E-3
757.704163E-3
762.697220E-3
767.987823E-3
774.583054E-3
779.054832E-3
783.903122E-3
785.504150E-3
785.490417E-3
785.736465E-3
783.273697E-3
782.873726E-3
780.139732E-3
776.775742E-3
775.825882E-3
773.573112E-3
773.783112E-3
772.841835E-3
771.218491E-3
772.777748E-3
772.458458E-3
774.164200E-3
773.959923E-3
772.633553E-3
772.705650E-3
770.459747E-3
769.972229E-3
768.185806E-3
766.444016E-3
766.914368E-3
766.220856E-3
767.754364E-3
767.802429E-3
767.355537E-3
768.773460E-3
768.287086E-3
769.529915E-3
769.008064E-3
767.528915E-3
767.551231E-3
765.900421E-3
766.157913E-3
765.062141E-3
763.009644E-3
763.127518E-3
761.427498E-3
761.762810E-3
760.492516E-3
758.800507E-3
759.031677E-3
757.735634E-3
758.314133E-3
757.681274E-3
756.257057E-3
756.751442E-3
755.982971E-3
756.931114E-3
756.251335E-3
755.339813E-3
756.062508E-3
755.176735E-3
756.179810E-3
755.710602E-3
754.299545E-3
755.114937E-3
754.348183E-3
755.064583E-3
754.742432E-3
752.829552E-3
754.325867E-3
753.747368E-3
754.738426E-3
754.262352E-3
752.838135E-3
753.627777E-3
752.138901E-3
752.690506E-3
751.961517E-3
750.239182E-3
750.563049E-3
749.172020E-3
749.611473E-3
749.007797E-3
746.854591E-3
748.221016E-3
747.870255E-3
750.803947E-3
754.134178E-3
757.843208E-3
765.110779E-3
770.451164E-3
776.951408E-3
781.292152E-3
783.250237E-3
786.107254E-3
785.085869E-3
784.697914E-3
782.330704E-3
778.840828E-3
778.195953E-3
774.596786E-3
773.653221E-3
771.989822E-3
769.935036E-3
771.622467E-3
770.473480E-3
771.617889E-3
771.566391E-3
770.369339E-3
772.065353E-3
