Notes :


2023-11-10 ¿ÀÈÄ 10:03:08
Volts
Ch : LED 2,
322.293091E-3
322.387505E-3
322.426414E-3
322.276497E-3
322.190666E-3
322.096825E-3
321.883965E-3
321.712303E-3
321.423912E-3
321.234512E-3
320.827103E-3
320.645714E-3
320.512390E-3
320.293236E-3
320.128441E-3
319.957924E-3
319.722748E-3
319.482422E-3
319.231224E-3
319.152260E-3
318.939400E-3
318.834686E-3
318.786621E-3
318.689919E-3
318.707085E-3
318.675613E-3
318.608093E-3
318.540001E-3
318.476486E-3
318.443871E-3
318.274498E-3
318.129158E-3
318.107986E-3
317.979813E-3
318.055344E-3
318.107414E-3
318.018150E-3
318.098831E-3
318.011856E-3
317.922592E-3
317.855072E-3
317.774963E-3
317.833328E-3
317.679977E-3
317.579842E-3
317.576408E-3
317.503166E-3
317.572975E-3
317.394447E-3
317.423630E-3
317.373848E-3
317.306328E-3
317.281151E-3
316.905785E-3
316.897202E-3
316.779900E-3
316.643715E-3
316.683769E-3
316.564751E-3
316.880035E-3
317.316628E-3
318.187523E-3
319.537354E-3
321.089745E-3
322.960854E-3
324.817085E-3
326.558304E-3
327.979088E-3
328.829384E-3
329.146957E-3
329.045677E-3
328.503227E-3
327.710152E-3
326.784897E-3
325.980377E-3
325.247955E-3
324.561310E-3
324.275780E-3
323.969650E-3
323.906708E-3
323.902130E-3
323.939323E-3
324.078369E-3
324.044609E-3
324.203682E-3
324.224854E-3
324.093246E-3
323.783112E-3
323.141098E-3
322.613525E-3
322.258186E-3
321.917725E-3
321.747208E-3
321.632767E-3
321.766663E-3
321.942329E-3
322.002411E-3
322.288513E-3
322.314835E-3
322.461319E-3
322.504234E-3
322.336578E-3
322.250175E-3
321.947479E-3
321.765518E-3
321.533203E-3
321.203041E-3
321.110344E-3
320.783043E-3
320.615387E-3
320.427132E-3
320.249176E-3
320.206261E-3
320.051193E-3
320.092392E-3
319.786263E-3
319.593430E-3
319.544792E-3
319.419479E-3
319.353676E-3
319.353676E-3
319.137955E-3
319.168282E-3
319.252396E-3
319.141960E-3
319.089317E-3
318.964577E-3
319.048691E-3
318.974876E-3
318.998337E-3
318.981743E-3
318.898201E-3
318.934250E-3
318.903351E-3
318.927956E-3
318.930244E-3
318.874168E-3
318.877029E-3
318.740273E-3
318.916512E-3
318.843269E-3
318.814087E-3
318.950844E-3
318.832970E-3
318.751717E-3
318.618965E-3
318.510246E-3
318.464470E-3
318.219566E-3
318.129730E-3
318.093109E-3
318.039894E-3
318.192101E-3
318.298531E-3
318.383217E-3
318.649864E-3
319.326210E-3
320.640564E-3
322.057915E-3
323.878098E-3
325.742912E-3
327.492142E-3
328.983879E-3
329.899406E-3
330.306244E-3
330.349159E-3
329.982376E-3
329.195023E-3
328.098679E-3
327.122498E-3
326.341438E-3
325.576973E-3
325.167847E-3
324.600792E-3
324.567604E-3
324.609375E-3
324.684906E-3
324.877167E-3
324.849701E-3
324.952698E-3
324.815369E-3
324.453735E-3
324.100685E-3
323.563385E-3
323.203468E-3
323.032379E-3
322.887039E-3
323.114204E-3
323.218918E-3
323.472404E-3
323.765373E-3
323.908424E-3
324.191093E-3
324.137306E-3
324.176216E-3
323.945045E-3
323.661232E-3
323.393440E-3
323.135376E-3
322.949982E-3
322.778893E-3
322.468185E-3
322.214699E-3
321.988106E-3
321.851349E-3
321.720314E-3
321.416473E-3
321.286583E-3
321.095467E-3
321.054840E-3
320.938110E-3
320.760155E-3
320.779037E-3
320.577621E-3
320.508957E-3
320.467186E-3
320.264053E-3
320.341873E-3
320.147324E-3
320.103264E-3
320.084381E-3
319.948196E-3
320.034599E-3
319.826317E-3
319.783401E-3
319.732475E-3
319.596863E-3
319.663811E-3
319.580841E-3
319.586563E-3
319.692421E-3
319.715309E-3
319.595718E-3
319.505310E-3
319.573975E-3
319.428635E-3
319.269562E-3
319.353104E-3
319.210625E-3
319.146538E-3
319.026375E-3
318.790627E-3
318.783188E-3
318.648720E-3
318.588638E-3
318.568611E-3
318.522835E-3
318.774605E-3
319.119644E-3
319.987106E-3
321.263695E-3
322.877884E-3
325.060844E-3
327.010918E-3
329.011917E-3
330.578041E-3
331.668091E-3
332.145309E-3
331.873512E-3
331.315041E-3
330.442429E-3
329.604149E-3
328.670883E-3
327.853775E-3
327.327919E-3
326.957703E-3
326.592636E-3
326.457024E-3
326.372910E-3
326.411819E-3
326.608086E-3
326.636124E-3
326.679039E-3
326.511955E-3
326.259041E-3
325.926018E-3
325.370979E-3
324.905205E-3
324.317551E-3
323.843193E-3
323.672104E-3
323.544502E-3
323.547935E-3
323.507881E-3
323.649216E-3
323.750496E-3
323.871803E-3
323.919868E-3
323.847771E-3
323.898697E-3
323.762512E-3
323.498154E-3
323.222923E-3
322.860146E-3
322.566032E-3
322.366333E-3
321.956062E-3
321.768951E-3
321.466827E-3
321.185303E-3
321.079445E-3
320.892906E-3
320.847702E-3
320.671463E-3
320.435143E-3
320.359612E-3
320.164490E-3
320.137596E-3
319.938469E-3
319.858932E-3
319.792557E-3
319.705009E-3
319.674683E-3
319.575119E-3
319.603157E-3
319.722176E-3
319.554520E-3
319.551086E-3
319.388008E-3
319.304466E-3
319.133377E-3
319.087029E-3
319.111633E-3
319.048119E-3
319.065857E-3
319.118500E-3
318.981743E-3
319.066429E-3
319.034958E-3
318.846130E-3
318.890190E-3
318.755150E-3
318.744278E-3
318.630409E-3
318.598366E-3
318.482780E-3
318.270493E-3
318.259621E-3
318.078804E-3
317.952347E-3
317.952919E-3
317.776680E-3
317.907715E-3
317.888832E-3
318.158340E-3
318.664169E-3
319.564247E-3
320.961571E-3
322.705650E-3
324.775314E-3
327.044106E-3
328.941536E-3
330.616379E-3
331.517601E-3
331.821442E-3
331.728172E-3
331.019211E-3
330.173492E-3
329.224205E-3
328.380775E-3
327.638626E-3
326.883888E-3
326.519966E-3
326.434708E-3
326.253891E-3
326.331139E-3
326.244164E-3
326.478767E-3
326.546860E-3
326.626968E-3
326.589775E-3
326.244164E-3
325.814438E-3
325.211334E-3
324.624252E-3
324.146461E-3
323.807144E-3
323.634911E-3
323.610878E-3
323.822021E-3
323.979378E-3
323.926163E-3
324.259186E-3
324.394798E-3
324.339294E-3
324.326134E-3
324.042320E-3
323.934174E-3
323.668098E-3
323.476410E-3
323.443794E-3
323.131943E-3
322.941971E-3
322.630692E-3
322.368622E-3
322.154617E-3
321.804428E-3
321.689987E-3
321.544647E-3
321.394730E-3
321.332359E-3
321.068573E-3
320.989037E-3
320.994186E-3
320.946693E-3
320.935249E-3
320.863152E-3
320.806503E-3
320.757294E-3
320.592499E-3
320.627975E-3
320.494652E-3
320.532417E-3
320.566750E-3
320.534134E-3
320.724678E-3
320.473480E-3
320.586777E-3
320.532417E-3
320.405388E-3
320.373344E-3
320.285797E-3
320.262337E-3
320.261192E-3
320.301247E-3
320.273209E-3
320.180511E-3
320.268059E-3
320.324707E-3
320.248032E-3
320.215988E-3
319.979095E-3
320.066643E-3
319.949341E-3
319.769096E-3
319.774246E-3
319.600296E-3
319.520187E-3
319.406319E-3
319.412613E-3
319.476128E-3
319.410896E-3
319.555092E-3
320.094681E-3
321.066284E-3
322.603798E-3
324.465752E-3
326.701355E-3
328.668022E-3
330.455017E-3
331.953049E-3
332.618523E-3
332.752991E-3
332.379341E-3
331.658363E-3
330.715942E-3
329.667091E-3
328.874588E-3
328.227997E-3
327.596855E-3
327.083015E-3
326.851273E-3
326.835251E-3
326.714516E-3
326.779175E-3
326.840401E-3
326.788330E-3
327.037239E-3
326.698494E-3
326.251602E-3
325.802422E-3
325.326347E-3
325.003052E-3
324.687195E-3
324.564743E-3
324.647141E-3
324.589348E-3
324.998474E-3
325.214195E-3
325.458527E-3
325.557518E-3
325.461388E-3
325.507736E-3
325.293732E-3
324.979591E-3
324.869728E-3
324.424553E-3
324.213409E-3
323.808861E-3
323.531914E-3
323.284721E-3
322.975159E-3
322.788620E-3
322.594643E-3
322.526550E-3
322.344589E-3
322.141457E-3
322.041321E-3
321.835899E-3
321.628189E-3
321.474266E-3
321.320343E-3
321.245384E-3
321.105194E-3
320.951271E-3
320.889473E-3
320.678902E-3
320.677185E-3
320.625687E-3
320.570183E-3
320.689201E-3
320.440292E-3
320.380783E-3
320.264626E-3
320.170784E-3
320.171356E-3
320.009422E-3
319.941902E-3
319.956207E-3
319.908142E-3
319.984245E-3
319.862938E-3
319.843483E-3
319.742775E-3
319.648361E-3
319.504738E-3
319.252968E-3
319.239807E-3
319.106483E-3
318.860435E-3
318.709946E-3
318.459320E-3
318.423271E-3
318.340302E-3
318.275070E-3
318.339729E-3
318.478775E-3
318.994331E-3
319.750786E-3
321.058273E-3
322.814941E-3
324.680901E-3
326.803780E-3
328.718948E-3
330.299950E-3
331.385994E-3
331.818008E-3
331.611443E-3
330.915070E-3
330.037880E-3
329.073715E-3
328.029442E-3
327.268982E-3
326.657295E-3
326.184082E-3
326.006699E-3
325.798988E-3
325.844765E-3
325.843048E-3
325.858498E-3
326.003838E-3
325.943756E-3
326.011276E-3
325.561523E-3
324.937820E-3
324.334717E-3
323.590279E-3
323.099327E-3
322.787476E-3
322.465324E-3
322.406960E-3
322.278214E-3
322.437286E-3
322.505379E-3
322.721100E-3
322.872162E-3
322.785759E-3
322.727966E-3
322.548294E-3
322.193527E-3
322.134590E-3
321.731186E-3
321.414185E-3
321.061707E-3
320.664597E-3
320.455742E-3
320.088959E-3
319.877815E-3
319.708443E-3
319.385147E-3
319.304466E-3
319.048691E-3
318.896484E-3
318.720818E-3
318.577194E-3
318.455887E-3
318.315697E-3
318.194389E-3
318.120003E-3
318.045616E-3
317.962074E-3
317.775536E-3
317.740631E-3
317.679405E-3
317.583275E-3
317.602730E-3
317.573547E-3
317.443657E-3
317.330933E-3
317.277145E-3
317.254829E-3
317.168427E-3
317.074013E-3
317.054558E-3
317.009926E-3
317.045975E-3
316.871452E-3
316.862869E-3
316.841125E-3
316.676903E-3
316.698074E-3
316.485786E-3
316.504669E-3
316.460037E-3
316.339874E-3
316.417122E-3
316.256905E-3
316.109848E-3
315.928459E-3
315.763664E-3
315.716743E-3
315.500450E-3
315.670395E-3
315.647507E-3
315.656662E-3
316.109848E-3
316.724396E-3
318.033600E-3
319.619179E-3
321.608162E-3
323.834038E-3
325.801849E-3
327.658081E-3
328.792191E-3
329.429054E-3
329.453087E-3
328.908348E-3
328.100395E-3
327.297592E-3
326.239014E-3
325.336075E-3
324.641991E-3
324.159050E-3
323.963356E-3
323.731613E-3
323.812294E-3
323.704720E-3
323.830605E-3
323.884392E-3
323.823738E-3
323.860359E-3
323.643494E-3
323.261261E-3
322.652435E-3
321.916580E-3
321.526909E-3
320.989609E-3
320.710373E-3
320.478058E-3
320.296097E-3
320.425415E-3
320.607948E-3
320.797348E-3
320.952415E-3
320.932961E-3
320.775032E-3
320.586205E-3
320.562744E-3
320.314407E-3
320.122147E-3
319.983673E-3
319.659805E-3
319.446945E-3
319.085884E-3
318.736839E-3
318.531990E-3
318.242455E-3
318.063927E-3
317.963219E-3
317.796135E-3
317.702866E-3
317.553520E-3
317.444229E-3
317.351532E-3
317.234230E-3
317.274857E-3
317.060852E-3
316.991615E-3
317.014503E-3
316.849136E-3
316.762733E-3
316.723824E-3
316.882324E-3
316.911507E-3
316.882896E-3
316.895485E-3
316.739845E-3
316.739845E-3
316.798210E-3
316.690063E-3
316.674042E-3
316.520119E-3
316.518402E-3
316.485214E-3
316.556168E-3
316.616249E-3
316.575050E-3
316.472054E-3
316.677475E-3
316.457748E-3
316.496086E-3
316.343307E-3
316.306686E-3
316.342163E-3
316.307831E-3
316.336441E-3
316.231155E-3
316.085243E-3
316.121292E-3
316.041183E-3
315.941620E-3
315.743637E-3
315.789413E-3
315.863800E-3
315.858078E-3
316.078949E-3
316.417694E-3
317.329788E-3
318.705368E-3
320.374489E-3
322.685051E-3
324.835396E-3
326.874161E-3
328.605080E-3
329.707146E-3
330.215836E-3
329.899979E-3
329.348946E-3
328.511810E-3
327.499580E-3
326.613235E-3
325.716591E-3
325.203323E-3
324.737549E-3
324.357605E-3
324.286079E-3
324.302101E-3
324.524689E-3
324.590492E-3
324.712944E-3
324.821091E-3
324.914360E-3
324.522972E-3
324.052620E-3
323.448372E-3
322.987747E-3
322.507668E-3
322.385216E-3
322.426987E-3
322.483635E-3
322.905350E-3
322.876167E-3
323.132515E-3
323.328781E-3
323.349953E-3
323.360252E-3
323.195457E-3
323.005486E-3
322.826958E-3
322.386932E-3
322.319984E-3
322.099113E-3
321.910286E-3
321.666527E-3
321.281433E-3
321.175003E-3
320.899773E-3
320.738983E-3
320.523262E-3
320.371056E-3
320.294952E-3
320.091820E-3
320.015144E-3
319.939613E-3
319.841766E-3
319.773674E-3
319.724464E-3
319.612312E-3
319.556808E-3
319.369125E-3
319.396591E-3
319.326782E-3
319.270706E-3
319.302750E-3
319.067001E-3
319.195747E-3
319.095612E-3
319.048119E-3
319.012642E-3
318.902206E-3
318.929672E-3
318.893051E-3
318.870735E-3
318.784332E-3
318.634415E-3
318.675041E-3
318.668747E-3
318.586349E-3
318.556595E-3
318.367195E-3
318.431282E-3
318.285942E-3
318.271637E-3
318.094826E-3
317.789841E-3
317.645073E-3
317.444801E-3
317.249680E-3
317.170143E-3
317.152405E-3
317.224503E-3
317.403030E-3
317.706299E-3
318.416405E-3
319.631195E-3
321.287155E-3
323.281860E-3
325.348091E-3
327.366829E-3
328.964424E-3
330.303955E-3
330.770874E-3
330.857849E-3
330.388069E-3
329.411888E-3
328.468323E-3
327.382851E-3
326.517105E-3
325.915146E-3
325.340080E-3
325.008774E-3
324.731827E-3
324.708366E-3
324.800491E-3
324.777603E-3
324.879456E-3
324.893188E-3
324.924660E-3
324.770164E-3
324.205399E-3
323.819160E-3
323.113060E-3
322.523689E-3
322.155190E-3
321.834183E-3
321.874809E-3
321.755219E-3
321.902275E-3
322.168350E-3
322.160339E-3
322.318268E-3
322.298241E-3
322.349739E-3
322.233582E-3
321.805000E-3
321.732903E-3
321.419907E-3
321.173286E-3
320.979881E-3
320.531845E-3
320.228004E-3
319.900131E-3
319.552231E-3
319.547653E-3
319.196892E-3
319.053841E-3
318.834114E-3
318.680763E-3
318.638992E-3
318.452454E-3
318.360901E-3
318.184662E-3
318.061066E-3
317.950630E-3
317.804718E-3
317.793846E-3
317.638206E-3
317.571831E-3
317.540359E-3
317.613029E-3
317.439079E-3
317.448235E-3
317.370987E-3
317.288589E-3
317.176437E-3
317.246246E-3
317.117500E-3
317.009354E-3
317.003059E-3
316.877174E-3
316.862869E-3
316.768456E-3
316.667175E-3
316.621399E-3
316.607666E-3
316.671753E-3
316.530418E-3
316.389084E-3
316.498375E-3
316.371918E-3
316.339874E-3
316.304398E-3
316.205978E-3
316.116714E-3
315.854645E-3
315.882111E-3
315.608597E-3
315.573120E-3
315.575981E-3
315.446663E-3
315.505028E-3
315.589142E-3
315.882683E-3
316.637421E-3
317.785263E-3
319.454384E-3
321.330070E-3
323.436928E-3
325.698853E-3
327.658081E-3
329.045105E-3
329.814720E-3
330.045891E-3
329.545784E-3
328.690910E-3
327.735329E-3
326.675606E-3
325.696564E-3
324.915504E-3
324.283218E-3
323.918724E-3
323.828888E-3
323.752213E-3
323.720169E-3
323.732185E-3
323.937035E-3
323.908424E-3
323.885536E-3
323.842049E-3
323.482132E-3
323.119926E-3
322.564316E-3
321.947479E-3
321.536636E-3
320.999336E-3
320.884895E-3
320.755005E-3
320.777893E-3
320.864296E-3
321.025085E-3
321.053123E-3
321.110344E-3
321.050835E-3
321.110344E-3
320.969009E-3
320.902634E-3
320.732117E-3
320.464897E-3
320.281792E-3
319.929314E-3
319.647217E-3
319.273567E-3
318.956566E-3
318.860435E-3
318.580627E-3
318.451881E-3
318.248749E-3
317.939758E-3
317.901993E-3
317.745209E-3
317.659950E-3
317.457962E-3
317.356682E-3
317.372131E-3
317.088890E-3
317.061996E-3
317.098045E-3
317.074013E-3
317.127800E-3
317.075157E-3
317.078018E-3
317.004776E-3
316.843987E-3
316.782188E-3
316.698647E-3
316.775894E-3
316.864014E-3
316.845131E-3
316.910934E-3
316.795921E-3
316.789627E-3
316.765022E-3
316.889191E-3
316.858864E-3
316.549301E-3
316.598511E-3
316.616249E-3
316.466904E-3
316.488647E-3
316.480064E-3
316.554451E-3
316.652870E-3
316.563034E-3
316.669464E-3
