Notes :


2023-10-23 ¿ÀÈÄ 9:06:08
Volts
Ch : LED 2,
640.969849E-3
644.714355E-3
641.832733E-3
645.767784E-3
644.094658E-3
640.745544E-3
644.164467E-3
640.952110E-3
643.474388E-3
642.786598E-3
638.897896E-3
641.848183E-3
638.220406E-3
641.992378E-3
641.619301E-3
638.587761E-3
644.445992E-3
640.611649E-3
646.326256E-3
648.545837E-3
648.710060E-3
658.523941E-3
657.950592E-3
664.080048E-3
665.399551E-3
663.110733E-3
669.751740E-3
664.397049E-3
665.899086E-3
663.696671E-3
657.831573E-3
661.608696E-3
654.455566E-3
656.229401E-3
655.930710E-3
652.131844E-3
658.732796E-3
653.636742E-3
657.259369E-3
657.459641E-3
654.688454E-3
660.185623E-3
653.993797E-3
655.966187E-3
654.705620E-3
650.776863E-3
657.262802E-3
651.749611E-3
655.676651E-3
654.553413E-3
649.604988E-3
658.102226E-3
653.753471E-3
657.519722E-3
658.191490E-3
654.438400E-3
659.930992E-3
653.837013E-3
656.033134E-3
655.742455E-3
650.661850E-3
657.134056E-3
650.687027E-3
651.923561E-3
652.373314E-3
647.681808E-3
654.362869E-3
649.298286E-3
650.523376E-3
650.164604E-3
646.770859E-3
653.668785E-3
648.481178E-3
649.981499E-3
651.058388E-3
646.979141E-3
652.959824E-3
647.424316E-3
648.855400E-3
649.750328E-3
646.709061E-3
652.952957E-3
648.194504E-3
649.253654E-3
650.180626E-3
646.567154E-3
652.784729E-3
647.111320E-3
648.769569E-3
649.142647E-3
646.026421E-3
651.921272E-3
646.250725E-3
647.978210E-3
648.311806E-3
645.100021E-3
652.001381E-3
646.283913E-3
647.405434E-3
648.181915E-3
644.736099E-3
650.118256E-3
644.290924E-3
645.328903E-3
646.163177E-3
643.495560E-3
648.690033E-3
642.870140E-3
643.990517E-3
645.196724E-3
641.477966E-3
648.628235E-3
646.456146E-3
651.536179E-3
656.481171E-3
657.730865E-3
667.915535E-3
666.386032E-3
670.761681E-3
672.335815E-3
669.566917E-3
674.703026E-3
667.500687E-3
667.089272E-3
665.886497E-3
661.259079E-3
665.487099E-3
659.148788E-3
659.318161E-3
660.075760E-3
657.742882E-3
663.090706E-3
658.817482E-3
661.608124E-3
662.950516E-3
660.284615E-3
664.646530E-3
659.144211E-3
659.770775E-3
660.013390E-3
652.886009E-3
659.303284E-3
654.576874E-3
656.206512E-3
658.004951E-3
655.591393E-3
661.258507E-3
656.397629E-3
657.897377E-3
659.110451E-3
656.752396E-3
662.042999E-3
656.402206E-3
656.027412E-3
656.429672E-3
653.089714E-3
658.297348E-3
653.704262E-3
653.820992E-3
654.437828E-3
651.688957E-3
656.696320E-3
651.555634E-3
651.331902E-3
652.439117E-3
649.285698E-3
655.704689E-3
650.763130E-3
651.603699E-3
652.793884E-3
649.970055E-3
655.169106E-3
650.612068E-3
650.905609E-3
651.976776E-3
648.856544E-3
655.154800E-3
651.030350E-3
651.131058E-3
652.059174E-3
648.554993E-3
653.878212E-3
649.290848E-3
650.156021E-3
651.769638E-3
648.120689E-3
653.754044E-3
649.414444E-3
648.499489E-3
650.752831E-3
647.327042E-3
652.647972E-3
647.867203E-3
647.499275E-3
648.492622E-3
645.750618E-3
650.628662E-3
645.887375E-3
645.918846E-3
647.403717E-3
644.272614E-3
648.861694E-3
644.451714E-3
644.424248E-3
646.384621E-3
643.687248E-3
648.846245E-3
646.282768E-3
648.084068E-3
653.973770E-3
655.499268E-3
663.986778E-3
664.264870E-3
667.409706E-3
670.989418E-3
669.277382E-3
673.556900E-3
669.104576E-3
667.988777E-3
667.588234E-3
661.701965E-3
664.902306E-3
660.023117E-3
658.246994E-3
658.521080E-3
654.879570E-3
660.202789E-3
658.927345E-3
658.474159E-3
660.338402E-3
656.839943E-3
662.631798E-3
658.975983E-3
657.505989E-3
658.184624E-3
652.673721E-3
658.539963E-3
653.491402E-3
654.209518E-3
657.330894E-3
653.663635E-3
659.791374E-3
656.618500E-3
656.377029E-3
658.591461E-3
653.942871E-3
659.956741E-3
656.089783E-3
654.571724E-3
656.207657E-3
650.259018E-3
656.623650E-3
652.961540E-3
651.436615E-3
653.740311E-3
648.355293E-3
654.149437E-3
650.723648E-3
649.533463E-3
651.624298E-3
646.486473E-3
652.312660E-3
650.053024E-3
649.184418E-3
650.857544E-3
645.639610E-3
651.180840E-3
648.422241E-3
647.335052E-3
649.968910E-3
645.705986E-3
651.215172E-3
648.259163E-3
646.625519E-3
647.332764E-3
643.928146E-3
648.490906E-3
646.341133E-3
644.963264E-3
647.203445E-3
642.806053E-3
647.804260E-3
646.030426E-3
644.851112E-3
645.861626E-3
641.608429E-3
646.717644E-3
644.933510E-3
643.137360E-3
645.225334E-3
640.988159E-3
644.732666E-3
642.626953E-3
640.534973E-3
642.772293E-3
638.577461E-3
643.720436E-3
641.869354E-3
641.180992E-3
643.484116E-3
641.353798E-3
649.270248E-3
650.961113E-3
653.347778E-3
659.234047E-3
659.429741E-3
667.307854E-3
666.516495E-3
665.454483E-3
666.783714E-3
661.583519E-3
665.563202E-3
660.659981E-3
656.720352E-3
657.903671E-3
653.000450E-3
657.626152E-3
655.303001E-3
653.757477E-3
656.482315E-3
652.878571E-3
659.337044E-3
657.019615E-3
655.179977E-3
655.817986E-3
652.675438E-3
657.095146E-3
653.606415E-3
651.135635E-3
654.192924E-3
651.265526E-3
656.206512E-3
654.705048E-3
652.626228E-3
655.661774E-3
653.235054E-3
658.050156E-3
656.175613E-3
653.476524E-3
655.007744E-3
651.724434E-3
655.365944E-3
653.013039E-3
650.341415E-3
651.983643E-3
648.280907E-3
651.955032E-3
650.393486E-3
647.768211E-3
649.626732E-3
645.860481E-3
650.364304E-3
648.430252E-3
646.479034E-3
649.061394E-3
645.654488E-3
650.061035E-3
648.210526E-3
646.578598E-3
648.312378E-3
644.471169E-3
650.114250E-3
649.047089E-3
646.821785E-3
649.034500E-3
645.549774E-3
650.173187E-3
648.939514E-3
645.847893E-3
648.881721E-3
645.297432E-3
648.615646E-3
646.804619E-3
644.609070E-3
648.112679E-3
643.708420E-3
647.661781E-3
646.569443E-3
644.531822E-3
646.115112E-3
643.154526E-3
647.564507E-3
645.672226E-3
642.701340E-3
645.707703E-3
641.549492E-3
645.337486E-3
644.932365E-3
641.068268E-3
644.530106E-3
640.952110E-3
644.522667E-3
644.037437E-3
641.796112E-3
644.065475E-3
642.822647E-3
650.074196E-3
652.549553E-3
653.400993E-3
660.849380E-3
661.920547E-3
668.471146E-3
670.166588E-3
668.453979E-3
672.560692E-3
667.961884E-3
670.210075E-3
667.741585E-3
660.547829E-3
663.646889E-3
659.196281E-3
662.191772E-3
660.633659E-3
657.627296E-3
660.086060E-3
658.013535E-3
662.262726E-3
662.494469E-3
657.903671E-3
662.456131E-3
659.216881E-3
662.235832E-3
660.363007E-3
656.945801E-3
660.368729E-3
656.379318E-3
658.707047E-3
658.065605E-3
654.777145E-3
660.094643E-3
656.687737E-3
660.286331E-3
659.325027E-3
656.357002E-3
661.763191E-3
656.339836E-3
659.357643E-3
657.776642E-3
653.635025E-3
658.822060E-3
653.301430E-3
655.682945E-3
655.208588E-3
651.782799E-3
657.141495E-3
651.200294E-3
654.143715E-3
653.645325E-3
649.954033E-3
655.848885E-3
650.613785E-3
653.247070E-3
652.848244E-3
647.032928E-3
654.627228E-3
650.093651E-3
652.786446E-3
652.249146E-3
646.043015E-3
654.061317E-3
649.852180E-3
652.099228E-3
651.833153E-3
648.417091E-3
654.553413E-3
649.634743E-3
651.820564E-3
651.511002E-3
648.192215E-3
654.630089E-3
648.636818E-3
650.832367E-3
651.425171E-3
644.834518E-3
652.619934E-3
647.832870E-3
649.275398E-3
649.542618E-3
646.324539E-3
652.363586E-3
647.080994E-3
648.109245E-3
647.697830E-3
644.795609E-3
650.889587E-3
645.597839E-3
646.690750E-3
647.199440E-3
643.466949E-3
649.492264E-3
643.941879E-3
645.193863E-3
646.724510E-3
644.066620E-3
651.752472E-3
648.587608E-3
654.240417E-3
659.498405E-3
658.509636E-3
669.434166E-3
666.987991E-3
669.753456E-3
670.878983E-3
666.907310E-3
672.013092E-3
664.193344E-3
664.540100E-3
662.746811E-3
658.644104E-3
662.765694E-3
656.666565E-3
657.616997E-3
658.139992E-3
652.997017E-3
660.800171E-3
656.581306E-3
658.505630E-3
660.110664E-3
656.730652E-3
662.169456E-3
655.941582E-3
656.629372E-3
656.137276E-3
652.692604E-3
657.811546E-3
652.947235E-3
654.590607E-3
656.620216E-3
654.328537E-3
659.287834E-3
654.716492E-3
656.150436E-3
656.278038E-3
652.891159E-3
657.515144E-3
651.507568E-3
652.363586E-3
653.049088E-3
648.826218E-3
653.542900E-3
648.359299E-3
649.622154E-3
649.907684E-3
646.167755E-3
650.513077E-3
646.409225E-3
647.488403E-3
647.701836E-3
644.608498E-3
650.589180E-3
645.671082E-3
645.614433E-3
647.088432E-3
644.302368E-3
649.227333E-3
643.734169E-3
644.518089E-3
645.892525E-3
643.204308E-3
648.283195E-3
643.438911E-3
644.732094E-3
645.454216E-3
642.356300E-3
646.943092E-3
642.031860E-3
642.495918E-3
644.676590E-3
640.981293E-3
646.685028E-3
641.602707E-3
641.588974E-3
642.379761E-3
638.790321E-3
644.179916E-3
639.794540E-3
640.308952E-3
641.677666E-3
638.323975E-3
644.503784E-3
639.323616E-3
638.361168E-3
640.326691E-3
633.963776E-3
641.492271E-3
637.869644E-3
638.400650E-3
639.515305E-3
637.045097E-3
644.014549E-3
642.774582E-3
646.393204E-3
652.491760E-3
651.174545E-3
662.175179E-3
661.167526E-3
663.022041E-3
665.761185E-3
662.313652E-3
666.170311E-3
660.672569E-3
658.730507E-3
658.684158E-3
654.270172E-3
658.825493E-3
653.459358E-3
652.874565E-3
653.796387E-3
651.716423E-3
657.634735E-3
654.129982E-3
654.048729E-3
656.120110E-3
650.131989E-3
656.072617E-3
652.360153E-3
651.648903E-3
652.692032E-3
649.271965E-3
655.032349E-3
651.310158E-3
651.684952E-3
654.606628E-3
650.721931E-3
656.234550E-3
652.726364E-3
653.493690E-3
654.567719E-3
650.800896E-3
655.720711E-3
651.622581E-3
651.366234E-3
652.603912E-3
647.294998E-3
653.056526E-3
649.037933E-3
648.879433E-3
649.307442E-3
644.407654E-3
649.310303E-3
646.795464E-3
645.348358E-3
647.700691E-3
642.890739E-3
648.670006E-3
646.541977E-3
646.083069E-3
647.642326E-3
643.272400E-3
648.593330E-3
646.904755E-3
645.316887E-3
647.719574E-3
642.946815E-3
648.999023E-3
645.784950E-3
644.805336E-3
646.677589E-3
642.232704E-3
647.335052E-3
645.492554E-3
644.437408E-3
646.602631E-3
641.781807E-3
646.697044E-3
644.616508E-3
643.895531E-3
645.643616E-3
641.341209E-3
647.048950E-3
644.310379E-3
642.462158E-3
643.901825E-3
640.121269E-3
646.617508E-3
644.306374E-3
642.554855E-3
643.659210E-3
639.408875E-3
645.520020E-3
642.485619E-3
641.104317E-3
642.755127E-3
638.978577E-3
645.350075E-3
643.651199E-3
642.672729E-3
647.981071E-3
647.601128E-3
658.561707E-3
660.133553E-3
662.440109E-3
667.837715E-3
666.876411E-3
673.934555E-3
670.769119E-3
668.490601E-3
668.944931E-3
663.896942E-3
668.153000E-3
663.872337E-3
660.154152E-3
661.307144E-3
656.439972E-3
661.633873E-3
658.665276E-3
656.908035E-3
660.975838E-3
658.382607E-3
663.409424E-3
661.601830E-3
659.449196E-3
660.966110E-3
656.209373E-3
660.035133E-3
657.939148E-3
654.966545E-3
656.629944E-3
653.712273E-3
657.761765E-3
656.620216E-3
654.828072E-3
656.438828E-3
654.128838E-3
658.724213E-3
656.771851E-3
654.384041E-3
655.478668E-3
651.982498E-3
656.554413E-3
653.839874E-3
651.342773E-3
653.440475E-3
649.144363E-3
653.890800E-3
651.123619E-3
648.687172E-3
650.430107E-3
646.996880E-3
650.969124E-3
648.850250E-3
647.499275E-3
649.261665E-3
646.895599E-3
651.848030E-3
649.714279E-3
647.381973E-3
648.624229E-3
645.946884E-3
650.537109E-3
649.112320E-3
646.624374E-3
648.861694E-3
644.992447E-3
650.148582E-3
648.924065E-3
646.013832E-3
648.096085E-3
644.051743E-3
649.341202E-3
648.233414E-3
645.890808E-3
647.621155E-3
643.786240E-3
647.316742E-3
645.444489E-3
643.160248E-3
646.001816E-3
642.502785E-3
646.101952E-3
644.120407E-3
641.861916E-3
644.815636E-3
640.647125E-3
644.649696E-3
643.436623E-3
640.258598E-3
642.941093E-3
639.603424E-3
643.437767E-3
641.706276E-3
639.635468E-3
640.855980E-3
638.370895E-3
643.341637E-3
645.022202E-3
645.651627E-3
652.436829E-3
653.168106E-3
660.571861E-3
663.303566E-3
662.091637E-3
665.565491E-3
662.455559E-3
665.834999E-3
663.302994E-3
658.672142E-3
659.424019E-3
653.581810E-3
656.706619E-3
654.159737E-3
650.715637E-3
652.692604E-3
649.024200E-3
653.040504E-3
652.605629E-3
649.673080E-3
653.437614E-3
650.077629E-3
652.936935E-3
652.197075E-3
648.163605E-3
650.527382E-3
647.105026E-3
650.166893E-3
649.198151E-3
647.559929E-3
649.931145E-3
647.488403E-3
651.905251E-3
650.774574E-3
648.200798E-3
650.993729E-3
647.726440E-3
650.764275E-3
649.495125E-3
645.828438E-3
648.938370E-3
644.840813E-3
647.075844E-3
645.773506E-3
639.867783E-3
644.921494E-3
641.108894E-3
643.549347E-3
643.771362E-3
637.895966E-3
645.114326E-3
640.673447E-3
643.787956E-3
643.085861E-3
639.307594E-3
645.152664E-3
640.244865E-3
643.595695E-3
642.153168E-3
638.873863E-3
645.746613E-3
641.154671E-3
643.789101E-3
643.614578E-3
639.798546E-3
646.275902E-3
641.338921E-3
643.195724E-3
643.023491E-3
639.390564E-3
645.218468E-3
640.967560E-3
643.196297E-3
642.871284E-3
638.464737E-3
644.926643E-3
640.910912E-3
642.847252E-3
642.316818E-3
638.350296E-3
644.215393E-3
639.001465E-3
641.203880E-3
640.167046E-3
636.637688E-3
643.008041E-3
637.985229E-3
639.763641E-3
639.468956E-3
636.130142E-3
643.496132E-3
640.086365E-3
645.462227E-3
649.621010E-3
650.086784E-3
660.629654E-3
658.634377E-3
663.548470E-3
665.460205E-3
662.843513E-3
668.362999E-3
661.763191E-3
662.012100E-3
660.827637E-3
655.634880E-3
660.153580E-3
653.508568E-3
654.812050E-3
654.417229E-3
650.830650E-3
657.588387E-3
652.302361E-3
654.065323E-3
655.593681E-3
653.094292E-3
659.034348E-3
653.499413E-3
653.831863E-3
653.285980E-3
649.831009E-3
655.445480E-3
649.450493E-3
650.835228E-3
651.876640E-3
649.853897E-3
656.007957E-3
651.006317E-3
653.299141E-3
654.026985E-3
650.993729E-3
657.273674E-3
651.018333E-3
651.393700E-3
651.563644E-3
647.701263E-3
653.285408E-3
647.885513E-3
648.166466E-3
648.900604E-3
645.708847E-3
650.391769E-3
644.322968E-3
645.299149E-3
646.010971E-3
643.898392E-3
649.227905E-3
644.252586E-3
645.862770E-3
646.906471E-3
641.258240E-3
648.019981E-3
643.773079E-3
644.066620E-3
645.380974E-3
643.260384E-3
648.342705E-3
643.324471E-3
644.424248E-3
645.677376E-3
643.125916E-3
648.734093E-3
643.652916E-3
644.824219E-3
645.485687E-3
643.177986E-3
647.911263E-3
643.060112E-3
643.637466E-3
644.709206E-3
641.525459E-3
646.754265E-3
642.136002E-3
643.049812E-3
644.249153E-3
641.607857E-3
647.195435E-3
641.828156E-3
641.960907E-3
643.041229E-3
640.543556E-3
645.374680E-3
640.682030E-3
641.472816E-3
641.686249E-3
639.670944E-3
644.892311E-3
640.799332E-3
643.202591E-3
646.871567E-3
647.189713E-3
657.607269E-3
656.968117E-3
661.952019E-3
665.809250E-3
665.508842E-3
671.880913E-3
666.590881E-3
666.580582E-3
665.567780E-3
661.198425E-3
665.449905E-3
659.371376E-3
657.755470E-3
658.370590E-3
654.462433E-3
659.707260E-3
654.747963E-3
655.704689E-3
658.114243E-3
655.137634E-3
660.936928E-3
656.445694E-3
656.536102E-3
657.048225E-3
653.580093E-3
658.058167E-3
652.555275E-3
652.687454E-3
654.077339E-3
650.610352E-3
656.747818E-3
652.331543E-3
653.803825E-3
656.014824E-3
653.593254E-3
658.462143E-3
654.029846E-3
653.792953E-3
654.836082E-3
651.319885E-3
655.012894E-3
651.125908E-3
650.539970E-3
651.521873E-3
647.790527E-3
652.706337E-3
647.560501E-3
