Notes :


2023-11-13 ¿ÀÀü 12:46:32
Volts
Ch : LED 2,
944.847107E-3
945.248222E-3
945.816994E-3
947.090149E-3
949.048805E-3
951.240349E-3
953.435326E-3
955.307579E-3
956.783295E-3
957.740021E-3
957.781792E-3
958.142853E-3
958.331108E-3
958.081055E-3
957.754326E-3
957.424736E-3
956.942368E-3
956.598473E-3
956.114960E-3
956.062317E-3
955.787659E-3
955.637169E-3
955.699539E-3
955.602837E-3
955.709839E-3
955.841446E-3
955.860329E-3
955.895805E-3
955.444908E-3
955.198860E-3
954.723930E-3
954.179192E-3
953.751755E-3
953.541756E-3
953.472519E-3
953.285980E-3
953.384399E-3
953.657341E-3
953.632164E-3
953.774071E-3
953.811264E-3
953.836441E-3
953.795242E-3
953.614998E-3
953.286552E-3
953.256798E-3
952.903175E-3
952.826500E-3
952.528381E-3
952.163315E-3
951.921844E-3
951.538467E-3
951.410866E-3
951.286125E-3
951.115608E-3
950.981712E-3
950.630951E-3
950.554848E-3
950.434685E-3
950.296211E-3
950.189209E-3
949.914551E-3
950.291634E-3
949.771500E-3
949.657059E-3
949.615288E-3
949.491119E-3
949.481964E-3
949.339485E-3
949.306870E-3
949.182701E-3
949.443054E-3
949.279404E-3
948.948669E-3
949.001884E-3
948.959541E-3
948.928070E-3
948.881149E-3
948.726082E-3
948.657417E-3
948.280334E-3
948.493767E-3
948.336411E-3
948.196220E-3
948.115540E-3
947.936440E-3
947.685242E-3
947.538757E-3
947.142792E-3
947.012901E-3
946.776009E-3
946.441269E-3
946.357155E-3
946.152878E-3
945.827293E-3
945.810699E-3
946.861839E-3
947.649765E-3
949.254799E-3
951.468658E-3
953.620720E-3
955.572510E-3
957.126045E-3
958.123398E-3
958.786011E-3
959.051514E-3
958.997726E-3
958.897018E-3
958.429527E-3
958.045578E-3
957.568932E-3
957.165527E-3
956.856537E-3
956.441689E-3
956.595039E-3
956.319809E-3
956.219101E-3
956.148720E-3
956.138420E-3
956.161308E-3
956.200218E-3
956.107521E-3
956.011963E-3
955.055237E-3
954.888725E-3
954.544258E-3
954.253578E-3
954.068184E-3
953.931427E-3
954.010963E-3
954.148293E-3
954.371452E-3
955.113602E-3
954.806328E-3
954.592896E-3
954.444122E-3
954.263306E-3
954.126549E-3
953.905678E-3
953.772926E-3
953.319168E-3
952.920341E-3
952.650833E-3
952.298927E-3
952.098083E-3
951.952744E-3
951.583672E-3
951.410866E-3
951.110458E-3
950.967407E-3
950.915337E-3
950.737381E-3
950.755692E-3
950.521088E-3
950.420380E-3
950.287056E-3
950.074196E-3
950.696754E-3
950.110245E-3
949.924278E-3
949.861336E-3
949.701118E-3
949.659348E-3
949.501419E-3
949.443626E-3
949.285698E-3
948.691177E-3
948.941231E-3
948.891449E-3
948.844528E-3
948.754692E-3
948.616791E-3
948.696899E-3
948.501205E-3
948.339272E-3
948.048019E-3
947.945023E-3
947.733879E-3
947.610283E-3
947.289276E-3
947.030067E-3
946.778870E-3
946.513939E-3
946.030426E-3
945.908546E-3
944.995308E-3
944.606209E-3
944.340134E-3
944.126701E-3
944.468307E-3
945.069122E-3
946.274757E-3
948.152733E-3
950.129128E-3
952.018547E-3
953.837585E-3
955.184555E-3
956.233978E-3
956.749535E-3
956.902885E-3
956.435966E-3
956.443977E-3
956.127548E-3
955.690384E-3
955.228615E-3
954.804611E-3
954.361725E-3
953.977776E-3
953.764915E-3
953.568649E-3
953.606987E-3
953.329468E-3
953.581810E-3
953.485107E-3
953.371239E-3
953.426743E-3
952.985001E-3
952.541542E-3
952.596474E-3
951.632309E-3
951.127052E-3
950.736809E-3
950.686455E-3
950.767136E-3
950.875854E-3
951.062393E-3
951.279259E-3
951.385689E-3
951.650620E-3
951.618576E-3
951.790810E-3
951.544762E-3
951.377106E-3
951.131630E-3
950.739098E-3
950.503349E-3
950.168610E-3
949.897385E-3
949.491119E-3
949.151230E-3
948.924637E-3
948.608208E-3
948.485756E-3
948.077202E-3
948.062325E-3
947.967339E-3
947.764206E-3
947.720718E-3
947.537613E-3
947.418594E-3
947.348785E-3
947.161102E-3
947.822571E-3
947.304153E-3
947.142220E-3
946.999168E-3
946.801186E-3
946.766281E-3
946.759415E-3
946.647835E-3
946.583748E-3
945.607567E-3
945.961761E-3
945.786667E-3
945.862770E-3
945.717430E-3
945.522881E-3
945.489120E-3
945.391846E-3
945.252228E-3
945.237923E-3
945.097160E-3
945.010185E-3
944.853973E-3
944.634247E-3
944.627953E-3
944.409943E-3
944.296646E-3
944.042015E-3
943.437767E-3
943.391418E-3
943.193436E-3
942.926788E-3
942.648125E-3
942.525101E-3
942.443275E-3
942.429543E-3
942.638397E-3
942.642975E-3
944.089508E-3
946.152878E-3
948.298073E-3
950.657272E-3
952.656555E-3
954.260445E-3
955.832291E-3
956.413651E-3
956.741524E-3
956.805038E-3
956.595039E-3
956.289482E-3
955.835152E-3
955.533028E-3
954.917908E-3
954.088783E-3
954.022980E-3
953.710556E-3
953.751755E-3
953.647614E-3
953.752327E-3
953.870773E-3
954.040718E-3
954.198647E-3
954.625511E-3
954.064178E-3
953.943443E-3
953.322029E-3
952.858543E-3
952.412224E-3
951.964760E-3
951.710701E-3
951.598549E-3
951.985359E-3
951.755905E-3
951.657486E-3
951.813698E-3
951.896667E-3
952.068329E-3
951.881790E-3
951.743889E-3
951.613998E-3
952.029991E-3
951.502419E-3
951.029205E-3
950.574303E-3
950.304794E-3
949.965477E-3
949.793243E-3
949.703979E-3
949.329758E-3
949.311447E-3
948.934364E-3
948.788452E-3
948.591614E-3
948.470306E-3
948.337555E-3
948.242569E-3
948.178482E-3
948.052025E-3
947.916412E-3
947.848892E-3
947.710419E-3
947.683525E-3
947.528458E-3
947.529030E-3
947.399712E-3
946.656990E-3
947.020340E-3
947.187424E-3
947.096443E-3
947.206879E-3
946.837234E-3
946.904755E-3
946.675873E-3
946.594620E-3
946.088219E-3
946.132278E-3
946.048737E-3
945.945740E-3
945.754051E-3
945.720291E-3
945.565224E-3
945.485687E-3
945.365524E-3
945.962906E-3
945.464516E-3
944.999313E-3
944.994736E-3
944.971848E-3
944.958687E-3
944.943237E-3
944.751549E-3
944.712639E-3
944.658279E-3
944.195938E-3
944.085503E-3
943.723297E-3
943.507004E-3
943.388557E-3
943.198586E-3
943.305588E-3
943.231201E-3
943.184853E-3
943.989372E-3
945.469666E-3
947.460365E-3
949.770355E-3
952.206230E-3
954.249001E-3
955.803108E-3
956.853676E-3
957.132339E-3
957.584381E-3
957.660484E-3
957.340050E-3
957.044220E-3
956.526947E-3
956.033134E-3
956.193924E-3
955.294991E-3
954.910469E-3
954.446983E-3
954.264450E-3
954.163170E-3
954.225540E-3
954.476166E-3
954.557419E-3
953.930283E-3
954.371452E-3
954.247856E-3
954.089355E-3
953.680801E-3
953.227043E-3
952.684021E-3
952.449989E-3
952.357864E-3
951.500702E-3
951.948166E-3
952.330971E-3
952.641106E-3
952.640533E-3
952.690315E-3
952.661133E-3
952.586746E-3
952.363014E-3
951.543045E-3
951.690102E-3
951.614571E-3
951.307297E-3
951.050377E-3
950.649834E-3
950.373459E-3
950.051880E-3
949.919128E-3
949.194145E-3
949.156380E-3
949.074554E-3
948.981857E-3
948.795891E-3
948.569298E-3
948.473740E-3
948.178482E-3
948.128128E-3
948.038292E-3
947.924995E-3
947.845459E-3
947.557068E-3
947.539902E-3
947.458649E-3
947.226334E-3
947.923279E-3
947.260094E-3
947.048950E-3
946.850967E-3
946.181488E-3
945.814705E-3
945.587540E-3
945.493126E-3
945.312881E-3
945.312881E-3
945.039368E-3
944.755554E-3
944.554710E-3
944.233131E-3
944.079208E-3
943.951607E-3
943.731308E-3
943.536758E-3
943.229485E-3
943.259239E-3
943.100166E-3
942.862129E-3
942.635536E-3
942.402649E-3
942.281342E-3
942.037010E-3
941.718292E-3
941.875076E-3
941.388130E-3
940.869141E-3
940.691185E-3
940.406227E-3
940.127563E-3
940.205383E-3
939.979362E-3
940.203094E-3
940.429687E-3
942.471886E-3
944.748116E-3
947.045517E-3
949.374390E-3
951.211739E-3
952.680016E-3
953.639603E-3
954.002380E-3
954.202080E-3
954.064178E-3
953.684235E-3
953.096008E-3
952.555275E-3
952.030563E-3
951.357651E-3
951.613998E-3
950.879860E-3
950.317383E-3
950.263023E-3
950.146294E-3
950.115967E-3
950.252724E-3
950.258446E-3
950.365448E-3
950.765991E-3
950.265884E-3
949.904251E-3
949.227905E-3
948.855972E-3
948.426247E-3
948.257446E-3
948.050308E-3
947.946167E-3
948.430824E-3
948.365593E-3
948.162460E-3
948.263168E-3
948.324394E-3
948.461151E-3
948.369026E-3
948.153877E-3
948.002815E-3
947.981644E-3
947.464943E-3
947.147942E-3
946.679878E-3
946.376610E-3
946.005821E-3
945.719147E-3
945.474243E-3
945.117760E-3
944.638252E-3
944.082069E-3
943.881226E-3
943.796539E-3
943.610573E-3
943.604279E-3
943.448067E-3
943.429184E-3
943.250084E-3
942.917061E-3
942.874718E-3
942.783737E-3
942.723083E-3
942.663574E-3
942.495346E-3
942.556572E-3
942.770576E-3
942.399788E-3
942.183495E-3
942.038155E-3
942.002678E-3
941.845894E-3
941.812706E-3
941.639900E-3
941.564941E-3
941.325760E-3
941.142654E-3
941.115761E-3
940.801620E-3
940.738678E-3
940.661430E-3
940.347290E-3
940.290642E-3
939.970207E-3
940.105247E-3
939.827728E-3
939.660072E-3
939.494705E-3
939.418602E-3
939.377975E-3
939.269257E-3
938.971138E-3
938.849831E-3
938.709068E-3
938.570023E-3
938.287354E-3
937.964630E-3
937.886238E-3
937.591553E-3
937.330055E-3
937.035370E-3
936.962700E-3
937.011909E-3
937.379837E-3
938.398933E-3
939.967346E-3
942.130852E-3
944.681168E-3
947.020912E-3
949.029922E-3
950.697899E-3
951.761627E-3
952.503204E-3
952.668571E-3
952.522087E-3
952.212524E-3
951.658058E-3
951.141357E-3
950.161171E-3
949.832153E-3
949.441338E-3
948.916626E-3
948.884583E-3
948.735237E-3
948.642540E-3
948.686028E-3
948.808479E-3
948.974991E-3
949.052238E-3
949.018478E-3
949.021912E-3
948.844528E-3
948.580742E-3
948.041725E-3
947.579384E-3
947.242928E-3
946.917915E-3
946.876717E-3
946.835518E-3
946.931648E-3
947.035217E-3
947.100449E-3
947.325325E-3
947.293854E-3
947.143364E-3
946.971703E-3
946.774292E-3
946.761131E-3
946.471024E-3
946.196938E-3
945.977211E-3
945.626450E-3
945.310020E-3
945.058250E-3
944.859123E-3
944.499207E-3
944.189644E-3
944.005394E-3
943.894386E-3
943.699265E-3
943.590546E-3
943.312454E-3
943.213463E-3
943.123055E-3
943.100166E-3
942.996597E-3
942.824936E-3
942.790604E-3
942.648697E-3
942.513657E-3
942.888451E-3
942.442131E-3
942.350578E-3
942.200089E-3
942.023277E-3
941.951180E-3
941.869926E-3
941.845322E-3
941.764641E-3
941.591263E-3
941.548920E-3
941.354370E-3
941.193008E-3
941.017342E-3
940.796471E-3
940.743256E-3
940.477753E-3
940.377617E-3
940.426254E-3
940.059471E-3
939.982796E-3
939.744759E-3
939.656639E-3
939.345932E-3
939.417458E-3
939.399147E-3
939.171982E-3
939.257240E-3
938.965988E-3
938.828087E-3
938.731384E-3
938.594627E-3
938.345718E-3
938.064766E-3
937.873650E-3
937.757492E-3
937.072563E-3
937.182999E-3
937.188721E-3
937.111473E-3
937.283707E-3
937.519455E-3
938.432693E-3
940.240860E-3
942.458153E-3
944.880867E-3
947.212029E-3
949.253654E-3
950.830650E-3
951.769066E-3
952.283478E-3
952.347565E-3
952.369308E-3
951.890373E-3
951.183701E-3
950.551987E-3
949.839020E-3
949.309731E-3
948.608208E-3
948.144150E-3
947.866631E-3
947.557068E-3
947.498703E-3
947.570801E-3
947.671509E-3
947.742462E-3
947.632027E-3
947.731018E-3
947.506714E-3
947.084999E-3
946.138000E-3
946.036148E-3
945.742035E-3
945.641899E-3
945.569801E-3
945.747757E-3
945.782089E-3
946.066475E-3
946.292496E-3
945.842743E-3
946.236992E-3
946.273041E-3
946.206093E-3
945.985794E-3
945.679665E-3
945.433044E-3
945.005035E-3
944.629669E-3
944.694328E-3
943.956757E-3
943.492699E-3
943.106461E-3
942.784309E-3
942.590904E-3
942.307091E-3
941.957474E-3
941.714859E-3
941.647911E-3
941.399002E-3
941.225052E-3
941.190147E-3
941.025352E-3
940.817642E-3
940.642548E-3
940.536118E-3
940.412521E-3
940.155602E-3
940.081215E-3
940.015411E-3
939.800835E-3
939.644051E-3
939.321327E-3
939.274406E-3
939.007759E-3
938.931084E-3
938.801765E-3
938.641548E-3
938.517952E-3
938.418961E-3
938.311958E-3
938.243294E-3
937.910271E-3
937.449646E-3
937.549210E-3
937.468529E-3
937.439346E-3
937.185287E-3
937.063980E-3
936.902618E-3
936.745834E-3
936.629677E-3
935.906410E-3
936.150742E-3
936.153030E-3
935.846329E-3
935.563087E-3
935.254097E-3
934.993744E-3
934.923935E-3
934.470749E-3
934.860992E-3
934.451866E-3
934.526253E-3
935.339928E-3
936.803627E-3
939.208031E-3
941.894531E-3
944.506645E-3
946.762276E-3
948.528671E-3
949.842453E-3
950.432968E-3
950.752258E-3
950.755119E-3
950.387764E-3
949.921417E-3
949.348640E-3
948.546410E-3
947.823715E-3
947.083855E-3
946.683884E-3
946.251297E-3
946.001816E-3
945.948029E-3
945.844460E-3
946.229553E-3
946.129417E-3
946.046448E-3
946.096802E-3
946.010971E-3
945.872498E-3
945.409012E-3
944.983864E-3
944.526672E-3
944.248581E-3
943.988800E-3
943.803978E-3
943.842888E-3
944.180489E-3
944.191360E-3
944.366455E-3
944.371033E-3
944.404793E-3
944.027138E-3
944.283485E-3
944.226837E-3
944.039726E-3
943.862343E-3
943.486404E-3
943.081284E-3
942.833519E-3
942.375183E-3
942.519379E-3
941.876793E-3
941.413879E-3
941.172981E-3
940.815353E-3
940.545273E-3
940.344429E-3
940.164757E-3
940.058899E-3
939.858055E-3
939.662933E-3
939.468956E-3
939.347649E-3
939.246941E-3
939.135361E-3
938.853264E-3
939.058113E-3
938.638115E-3
938.413239E-3
938.243294E-3
938.186646E-3
938.076782E-3
937.870789E-3
937.865067E-3
937.691689E-3
938.182068E-3
937.736320E-3
937.248802E-3
937.298012E-3
937.060547E-3
936.962700E-3
936.745262E-3
936.436844E-3
936.272621E-3
935.988808E-3
935.866928E-3
935.953903E-3
935.731316E-3
935.749626E-3
935.484695E-3
935.374832E-3
935.349655E-3
935.140228E-3
935.155678E-3
934.836388E-3
934.559441E-3
934.503937E-3
934.130859E-3
933.964348E-3
933.641052E-3
933.470535E-3
933.235359E-3
933.012772E-3
933.063126E-3
933.526611E-3
934.461594E-3
936.411667E-3
938.751411E-3
941.576385E-3
943.746758E-3
946.081352E-3
947.835159E-3
948.850250E-3
949.609566E-3
949.722862E-3
949.412155E-3
949.095726E-3
948.540688E-3
947.782516E-3
946.952248E-3
946.295929E-3
945.585823E-3
945.057106E-3
944.725800E-3
944.559860E-3
944.318390E-3
944.414520E-3
944.437981E-3
944.587898E-3
944.468307E-3
944.645119E-3
944.454002E-3
944.102097E-3
943.679810E-3
943.296432E-3
942.775154E-3
942.547989E-3
942.364883E-3
942.343140E-3
942.427254E-3
942.564011E-3
942.649269E-3
942.733955E-3
942.870140E-3
942.822075E-3
942.706490E-3
942.716789E-3
942.497635E-3
942.350006E-3
941.999817E-3
941.635895E-3
941.349792E-3
940.971565E-3
940.719795E-3
940.299225E-3
940.099525E-3
939.987373E-3
939.547348E-3
939.380264E-3
939.057541E-3
938.810349E-3
939.244080E-3
938.866997E-3
938.535690E-3
938.323975E-3
938.152885E-3
938.027000E-3
938.070488E-3
937.903976E-3
937.847900E-3
937.994385E-3
937.812424E-3
937.519455E-3
937.479401E-3
937.414742E-3
937.193871E-3
937.053108E-3
937.114906E-3
936.970139E-3
937.081146E-3
936.715508E-3
936.665726E-3
936.448288E-3
936.343575E-3
936.205673E-3
935.920143E-3
935.862350E-3
935.828018E-3
935.631752E-3
935.529900E-3
935.373116E-3
935.352516E-3
935.025787E-3
934.924507E-3
934.799194E-3
934.489059E-3
934.339714E-3
934.252167E-3
933.977509E-3
933.764076E-3
933.417892E-3
933.292007E-3
933.000183E-3
932.941818E-3
932.900047E-3
932.889175E-3
933.769798E-3
934.449577E-3
936.104965E-3
938.408661E-3
940.983009E-3
943.571663E-3
945.629883E-3
947.249794E-3
