Notes :


2023-10-25 ¿ÀÈÄ 9:51:32
Volts
Ch : LED 2,
217.689514E-3
217.727852E-3
217.861748E-3
217.770195E-3
217.972755E-3
218.046570E-3
218.166161E-3
218.193626E-3
217.992210E-3
218.066597E-3
217.737007E-3
217.523003E-3
217.405701E-3
217.017746E-3
217.023468E-3
216.755676E-3
216.622925E-3
216.610909E-3
216.305351E-3
216.537666E-3
216.326523E-3
216.185188E-3
216.267014E-3
216.081047E-3
216.298485E-3
216.012955E-3
216.104507E-3
216.181755E-3
215.873337E-3
216.135979E-3
215.995789E-3
215.950012E-3
215.960312E-3
215.676498E-3
216.051292E-3
215.849876E-3
215.873337E-3
215.890503E-3
215.703392E-3
215.931129E-3
215.784073E-3
215.686226E-3
215.706825E-3
215.463638E-3
215.685081E-3
215.592384E-3
215.530014E-3
215.592957E-3
215.381241E-3
215.642738E-3
215.426445E-3
215.281677E-3
215.401268E-3
215.158653E-3
215.354347E-3
215.020180E-3
214.961243E-3
215.057373E-3
214.855957E-3
215.145493E-3
214.797020E-3
214.694023E-3
214.925766E-3
214.880562E-3
215.726280E-3
216.252136E-3
217.143059E-3
218.326378E-3
219.386673E-3
220.608902E-3
221.167374E-3
221.482658E-3
221.680641E-3
221.371651E-3
221.207428E-3
220.351982E-3
219.681358E-3
219.264793E-3
218.572426E-3
218.428802E-3
217.938423E-3
217.930412E-3
217.974472E-3
217.976189E-3
218.395042E-3
218.313789E-3
218.263435E-3
218.479729E-3
218.242836E-3
218.273735E-3
217.706680E-3
217.433739E-3
217.282677E-3
217.082977E-3
217.306709E-3
217.203712E-3
217.387962E-3
217.642021E-3
217.625427E-3
217.982483E-3
217.818832E-3
217.791367E-3
217.803955E-3
217.532730E-3
217.597389E-3
217.317581E-3
216.993141E-3
216.951370E-3
216.746521E-3
216.807175E-3
216.514206E-3
216.388893E-3
216.483307E-3
216.276169E-3
216.437531E-3
216.182899E-3
216.154289E-3
216.345406E-3
216.221809E-3
216.341400E-3
216.178894E-3
216.181183E-3
216.297340E-3
216.217232E-3
216.387177E-3
216.236687E-3
216.132545E-3
216.315079E-3
216.261864E-3
216.452408E-3
216.241264E-3
216.163445E-3
216.348839E-3
216.288757E-3
216.335106E-3
216.201782E-3
216.212654E-3
216.259003E-3
216.130257E-3
216.350555E-3
216.168594E-3
216.067314E-3
216.143417E-3
215.650177E-3
216.025543E-3
215.879059E-3
215.768623E-3
215.858459E-3
215.691948E-3
215.752029E-3
215.608406E-3
215.439606E-3
215.584946E-3
215.570068E-3
215.920258E-3
216.145706E-3
216.786003E-3
217.811394E-3
218.814468E-3
220.076752E-3
221.071815E-3
221.915245E-3
222.665405E-3
222.593307E-3
222.890282E-3
222.452545E-3
221.874619E-3
221.399117E-3
220.657539E-3
220.444107E-3
219.944572E-3
219.550896E-3
219.541740E-3
219.324875E-3
219.626999E-3
219.598961E-3
219.645882E-3
219.756317E-3
219.739723E-3
219.917679E-3
219.625282E-3
219.265938E-3
219.087410E-3
218.663406E-3
218.540955E-3
218.269730E-3
218.036270E-3
218.269730E-3
218.229675E-3
218.590736E-3
218.682861E-3
218.631935E-3
218.839645E-3
218.689728E-3
218.718338E-3
218.533516E-3
218.244553E-3
218.223953E-3
217.927551E-3
217.932701E-3
217.717552E-3
217.523003E-3
217.559624E-3
217.155075E-3
217.368507E-3
217.171097E-3
217.006302E-3
217.088127E-3
216.973686E-3
217.069244E-3
217.049789E-3
216.936493E-3
217.060661E-3
216.886711E-3
217.080688E-3
217.022324E-3
216.875267E-3
216.998291E-3
216.891289E-3
217.022896E-3
216.894150E-3
216.769409E-3
216.951942E-3
216.636658E-3
216.854668E-3
216.798592E-3
216.595459E-3
216.755676E-3
216.551971E-3
216.800880E-3
216.680145E-3
216.579437E-3
216.661835E-3
216.477013E-3
216.609764E-3
216.569710E-3
216.442680E-3
216.479874E-3
216.282463E-3
216.357994E-3
216.358566E-3
216.246986E-3
216.190338E-3
215.931702E-3
216.103363E-3
216.085625E-3
215.839005E-3
215.921402E-3
215.805244E-3
216.083336E-3
216.426659E-3
216.804314E-3
217.930984E-3
218.839645E-3
220.219231E-3
221.269226E-3
222.145844E-3
222.999001E-3
223.119164E-3
223.264503E-3
223.088264E-3
222.430801E-3
221.955872E-3
221.175957E-3
220.845795E-3
220.434380E-3
220.010948E-3
220.010376E-3
219.756889E-3
219.993210E-3
220.038414E-3
220.010376E-3
220.216942E-3
220.076180E-3
220.280457E-3
220.271301E-3
219.901085E-3
219.795227E-3
219.248772E-3
219.133759E-3
218.809891E-3
218.512917E-3
218.585014E-3
218.547249E-3
218.830490E-3
218.869972E-3
218.816757E-3
218.991280E-3
218.755531E-3
218.941498E-3
218.871117E-3
218.508339E-3
218.496895E-3
218.188477E-3
218.213081E-3
218.005371E-3
217.596245E-3
217.613983E-3
217.234039E-3
217.391396E-3
217.248344E-3
217.062950E-3
217.111015E-3
216.909599E-3
217.072678E-3
217.050362E-3
216.773415E-3
216.929054E-3
216.789436E-3
216.910744E-3
216.986275E-3
216.740227E-3
216.764259E-3
216.658401E-3
216.872978E-3
216.902161E-3
216.690445E-3
216.729927E-3
216.603470E-3
216.724205E-3
216.667557E-3
216.553116E-3
216.507339E-3
216.387749E-3
216.544533E-3
216.423798E-3
216.186905E-3
216.154861E-3
216.230392E-3
216.350555E-3
216.332245E-3
216.181755E-3
216.125107E-3
216.105652E-3
216.270447E-3
216.135979E-3
215.994072E-3
215.998650E-3
215.924835E-3
215.994644E-3
215.977478E-3
215.684509E-3
215.750885E-3
215.576363E-3
215.710258E-3
215.685654E-3
215.514565E-3
215.555763E-3
215.646172E-3
216.226959E-3
216.986275E-3
217.792511E-3
219.121170E-3
220.215225E-3
221.385956E-3
222.248840E-3
222.629929E-3
222.879410E-3
222.544670E-3
222.211647E-3
221.685791E-3
220.920753E-3
220.352554E-3
219.736862E-3
219.462776E-3
219.220734E-3
218.936920E-3
218.880844E-3
218.875694E-3
219.060516E-3
219.272804E-3
219.234467E-3
219.442749E-3
219.198990E-3
219.133759E-3
218.900299E-3
218.350983E-3
218.415070E-3
218.118095E-3
218.214226E-3
218.282318E-3
218.217659E-3
218.577003E-3
218.557549E-3
218.746376E-3
218.833923E-3
218.684006E-3
218.736649E-3
218.459129E-3
218.414497E-3
218.254852E-3
217.961311E-3
217.916107E-3
217.676353E-3
217.547607E-3
217.555046E-3
217.276955E-3
217.319870E-3
217.132187E-3
217.154503E-3
217.210007E-3
217.023468E-3
217.155075E-3
216.992569E-3
217.119026E-3
217.137337E-3
216.922188E-3
217.156219E-3
217.019463E-3
217.079544E-3
217.124748E-3
216.963959E-3
216.986275E-3
216.944504E-3
217.025185E-3
217.123032E-3
216.718483E-3
217.104721E-3
216.973686E-3
217.018890E-3
217.097855E-3
216.870689E-3
217.054939E-3
216.935921E-3
216.884422E-3
216.940498E-3
216.503906E-3
216.900444E-3
216.824913E-3
216.896439E-3
216.880989E-3
216.542816E-3
216.827202E-3
216.581726E-3
216.592026E-3
216.586304E-3
216.308784E-3
216.515923E-3
216.292191E-3
216.310501E-3
216.386032E-3
216.164017E-3
216.541100E-3
216.558266E-3
217.139626E-3
217.976761E-3
218.803596E-3
220.236969E-3
221.193123E-3
222.336960E-3
223.214149E-3
223.170090E-3
223.798370E-3
223.588943E-3
223.223877E-3
222.708893E-3
221.978188E-3
221.664619E-3
221.013451E-3
220.567703E-3
220.401192E-3
220.095634E-3
220.279312E-3
220.148277E-3
220.196915E-3
220.535088E-3
220.410919E-3
220.729637E-3
220.491028E-3
220.270157E-3
220.097923E-3
219.604111E-3
219.669914E-3
219.251633E-3
218.994141E-3
219.180107E-3
219.032478E-3
219.376373E-3
219.295692E-3
219.393539E-3
219.661903E-3
219.517708E-3
219.722557E-3
219.415855E-3
219.244766E-3
219.198418E-3
218.911171E-3
218.959808E-3
218.494606E-3
218.306351E-3
218.264008E-3
217.576218E-3
217.977333E-3
217.721558E-3
217.676353E-3
217.799950E-3
217.484093E-3
217.799950E-3
217.504120E-3
217.509270E-3
217.685509E-3
217.466354E-3
217.726135E-3
217.501831E-3
217.445183E-3
217.523575E-3
217.451477E-3
217.611122E-3
217.406273E-3
217.386246E-3
217.505264E-3
217.072105E-3
217.448044E-3
217.286110E-3
217.173958E-3
217.256355E-3
217.148209E-3
217.349625E-3
217.047501E-3
216.964531E-3
216.992569E-3
216.903305E-3
217.050934E-3
216.862106E-3
216.864967E-3
216.971970E-3
216.765404E-3
216.949654E-3
216.655540E-3
216.574860E-3
216.620064E-3
216.602325E-3
216.735077E-3
216.468430E-3
216.346550E-3
216.386604E-3
216.312218E-3
216.425514E-3
216.260719E-3
216.169739E-3
216.294479E-3
216.448402E-3
217.159081E-3
217.761612E-3
218.792725E-3
220.105934E-3
221.277809E-3
222.524071E-3
223.225021E-3
223.555183E-3
223.885918E-3
223.483658E-3
223.338318E-3
222.581863E-3
221.931267E-3
221.461487E-3
220.886993E-3
220.733643E-3
220.218086E-3
220.033836E-3
220.144844E-3
220.084190E-3
220.342255E-3
220.265579E-3
220.311356E-3
220.396042E-3
220.298195E-3
220.434952E-3
220.003510E-3
219.617844E-3
219.381523E-3
219.049644E-3
219.177246E-3
218.920898E-3
218.823051E-3
218.966103E-3
218.954086E-3
219.222450E-3
219.162941E-3
219.157219E-3
219.197273E-3
219.041634E-3
219.131470E-3
218.791580E-3
218.581581E-3
218.457413E-3
217.902374E-3
218.140984E-3
217.892647E-3
217.696381E-3
217.726707E-3
217.382812E-3
217.520142E-3
217.367363E-3
217.183685E-3
217.246628E-3
216.880417E-3
217.193985E-3
217.154503E-3
217.073250E-3
217.116737E-3
216.861534E-3
217.090988E-3
217.017746E-3
216.835213E-3
217.070389E-3
216.546822E-3
216.855240E-3
216.897011E-3
216.866112E-3
216.937637E-3
216.797447E-3
216.993141E-3
216.935921E-3
216.846085E-3
216.897011E-3
216.493607E-3
216.806602E-3
216.811752E-3
216.758537E-3
216.930199E-3
216.781425E-3
216.919327E-3
216.823769E-3
216.640663E-3
216.797447E-3
216.482162E-3
216.628647E-3
216.500473E-3
216.416931E-3
216.522789E-3
216.220093E-3
216.367149E-3
216.167450E-3
216.017532E-3
216.143417E-3
215.543747E-3
215.948296E-3
216.043282E-3
216.291046E-3
217.068672E-3
217.703819E-3
218.876839E-3
220.025253E-3
220.951653E-3
222.062302E-3
222.472572E-3
222.896004E-3
222.843361E-3
222.422218E-3
222.055435E-3
221.201706E-3
220.723915E-3
220.123100E-3
219.491386E-3
219.298553E-3
219.014740E-3
219.019318E-3
219.013023E-3
218.932915E-3
219.077110E-3
219.062805E-3
219.255066E-3
219.217873E-3
218.942642E-3
218.865395E-3
218.484879E-3
218.449402E-3
218.377876E-3
218.079185E-3
218.163872E-3
218.132401E-3
218.475151E-3
218.643379E-3
218.662834E-3
218.837929E-3
218.639374E-3
218.745232E-3
218.751526E-3
218.399620E-3
218.405914E-3
218.010521E-3
217.954445E-3
217.740440E-3
217.455482E-3
217.474365E-3
217.134476E-3
217.237473E-3
217.213440E-3
216.935349E-3
217.033768E-3
216.825485E-3
216.929054E-3
216.949081E-3
216.785431E-3
216.899872E-3
216.686440E-3
216.877556E-3
216.873550E-3
216.705894E-3
216.795731E-3
216.646385E-3
216.869545E-3
216.739082E-3
216.612625E-3
216.736794E-3
216.514778E-3
216.773415E-3
216.765404E-3
216.551399E-3
216.691017E-3
216.525650E-3
216.780853E-3
216.647530E-3
216.497612E-3
216.563416E-3
216.427231E-3
216.545105E-3
216.477585E-3
216.232681E-3
216.257858E-3
216.146278E-3
216.220093E-3
216.166306E-3
215.968895E-3
216.016388E-3
215.872192E-3
215.925980E-3
215.892792E-3
215.655899E-3
215.920258E-3
216.035271E-3
216.674423E-3
217.482376E-3
218.365860E-3
219.574928E-3
220.638084E-3
221.737862E-3
222.457123E-3
222.690582E-3
222.874832E-3
222.613335E-3
222.312355E-3
221.726990E-3
220.935059E-3
220.519066E-3
219.910240E-3
219.606972E-3
219.446182E-3
219.094849E-3
219.205284E-3
218.976974E-3
219.188118E-3
219.235039E-3
219.099998E-3
219.405556E-3
219.301987E-3
219.292259E-3
219.112015E-3
218.621635E-3
218.457413E-3
218.191910E-3
218.182755E-3
218.100929E-3
218.098640E-3
218.328667E-3
218.314362E-3
218.475723E-3
218.636513E-3
218.351555E-3
218.562698E-3
218.420792E-3
218.316650E-3
218.212509E-3
217.924118E-3
217.860603E-3
217.547035E-3
217.506409E-3
217.375374E-3
217.089844E-3
217.106438E-3
216.972542E-3
216.841507E-3
216.881561E-3
216.656113E-3
216.804314E-3
216.583443E-3
216.740799E-3
216.730499E-3
216.502190E-3
216.633224E-3
216.481018E-3
216.609764E-3
216.653824E-3
216.305923E-3
216.345406E-3
216.363144E-3
216.531372E-3
216.448975E-3
216.318512E-3
216.527367E-3
216.250420E-3
216.280174E-3
216.445541E-3
215.999222E-3
216.246986E-3
216.132545E-3
216.249847E-3
216.249275E-3
216.116524E-3
216.280174E-3
216.077042E-3
216.099930E-3
216.105652E-3
215.886497E-3
215.964890E-3
215.848160E-3
215.928841E-3
215.898514E-3
215.587807E-3
215.753746E-3
215.476799E-3
215.544891E-3
215.524292E-3
215.263939E-3
215.558624E-3
215.835571E-3
216.408920E-3
217.330170E-3
218.234825E-3
219.548035E-3
220.640945E-3
221.552467E-3
222.266006E-3
222.459984E-3
222.794151E-3
222.346115E-3
221.879768E-3
221.442604E-3
220.639801E-3
220.267296E-3
219.655037E-3
219.311142E-3
219.120026E-3
218.895149E-3
219.051933E-3
218.967819E-3
219.116592E-3
219.381523E-3
219.108009E-3
219.449615E-3
219.130325E-3
219.039917E-3
218.899155E-3
218.413925E-3
218.476868E-3
218.064308E-3
217.881775E-3
218.000221E-3
217.791367E-3
218.191910E-3
218.089485E-3
218.280029E-3
218.292618E-3
218.115807E-3
218.319511E-3
218.177605E-3
217.994499E-3
217.897224E-3
217.539597E-3
217.556763E-3
217.171097E-3
217.035484E-3
216.906166E-3
216.647530E-3
216.799164E-3
216.578865E-3
216.515923E-3
216.511917E-3
216.299629E-3
216.523933E-3
216.310501E-3
216.246986E-3
216.240692E-3
216.035843E-3
216.348267E-3
216.166306E-3
216.042137E-3
216.183472E-3
215.974045E-3
216.224670E-3
216.004944E-3
216.030693E-3
216.129684E-3
215.969467E-3
216.253281E-3
215.917397E-3
215.806389E-3
215.887070E-3
215.761757E-3
216.007233E-3
215.742302E-3
215.710258E-3
215.817261E-3
215.647316E-3
215.948868E-3
215.573502E-3
215.539742E-3
215.623283E-3
215.060234E-3
215.544319E-3
215.320587E-3
215.257072E-3
215.348625E-3
215.119171E-3
215.357780E-3
215.105438E-3
214.954376E-3
215.031624E-3
214.608765E-3
215.043068E-3
215.059662E-3
215.465355E-3
216.334534E-3
217.222023E-3
218.512344E-3
219.454765E-3
220.518494E-3
221.361923E-3
221.399689E-3
221.918106E-3
221.526718E-3
221.106148E-3
220.579147E-3
219.841576E-3
219.458771E-3
218.690872E-3
218.219948E-3
218.140984E-3
217.853165E-3
218.068886E-3
217.773628E-3
217.870331E-3
218.037415E-3
218.008804E-3
218.317795E-3
217.909813E-3
217.831421E-3
217.698669E-3
217.307854E-3
217.417145E-3
217.255783E-3
217.156792E-3
217.413139E-3
217.423439E-3
217.763329E-3
217.762184E-3
217.772484E-3
217.919540E-3
217.655182E-3
217.874336E-3
217.620277E-3
217.397690E-3
217.304420E-3
217.024612E-3
217.041206E-3
216.784286E-3
216.573143E-3
216.478157E-3
216.253281E-3
216.273880E-3
216.022110E-3
215.976334E-3
216.061592E-3
215.968895E-3
216.081619E-3
215.956306E-3
215.935707E-3
215.947151E-3
215.957451E-3
216.036415E-3
215.928268E-3
215.857887E-3
215.996933E-3
215.863037E-3
216.094208E-3
215.939140E-3
215.897369E-3
215.966034E-3
215.829277E-3
216.007805E-3
215.937424E-3
215.905952E-3
215.935135E-3
215.910530E-3
216.171455E-3
215.946007E-3
215.778923E-3
215.863609E-3
215.728569E-3
215.774345E-3
215.651321E-3
215.511131E-3
215.663910E-3
215.341759E-3
215.503693E-3
215.250206E-3
215.180397E-3
215.241051E-3
215.063095E-3
215.274239E-3
215.338326E-3
215.614700E-3
216.402626E-3
217.123032E-3
218.331528E-3
219.297981E-3
220.286179E-3
221.319580E-3
221.729851E-3
222.245407E-3
221.994209E-3
221.604538E-3
221.161652E-3
