Notes :


2023-11-10 ¿ÀÈÄ 11:24:08
Volts
Ch : LED 2,
80.563545E-3
80.541229E-3
80.327225E-3
80.276871E-3
80.270004E-3
80.132103E-3
80.088043E-3
80.016518E-3
80.035973E-3
79.961586E-3
79.888916E-3
79.928970E-3
79.765320E-3
79.720116E-3
79.720688E-3
80.027390E-3
79.784775E-3
79.629135E-3
79.556465E-3
79.575348E-3
79.504395E-3
79.502106E-3
79.408836E-3
79.353905E-3
78.968239E-3
79.107285E-3
79.221725E-3
79.090691E-3
79.171944E-3
79.202843E-3
79.066086E-3
79.151344E-3
79.040337E-3
79.027176E-3
78.995132E-3
78.903008E-3
78.893852E-3
78.880119E-3
78.854942E-3
78.768539E-3
78.554535E-3
78.604317E-3
79.086113E-3
78.604317E-3
78.376007E-3
78.170586E-3
78.127670E-3
78.040123E-3
78.174019E-3
78.611755E-3
79.107285E-3
80.774117E-3
81.281662E-3
82.208061E-3
83.263206E-3
83.994484E-3
84.631348E-3
84.955788E-3
84.683990E-3
84.914589E-3
84.771538E-3
84.534073E-3
84.162712E-3
83.860588E-3
83.535576E-3
83.218575E-3
83.092117E-3
82.461548E-3
82.682991E-3
82.802010E-3
82.835770E-3
82.963943E-3
83.005714E-3
83.079529E-3
83.073235E-3
82.926750E-3
83.157349E-3
82.633781E-3
82.307053E-3
82.099342E-3
82.009506E-3
82.019806E-3
81.976891E-3
81.994057E-3
82.135391E-3
82.543373E-3
82.412910E-3
82.397461E-3
82.344818E-3
82.351685E-3
82.202911E-3
82.246399E-3
82.159996E-3
82.093620E-3
82.262421E-3
81.872749E-3
81.590080E-3
81.440735E-3
81.267929E-3
81.293678E-3
81.126022E-3
81.129456E-3
80.928040E-3
80.217934E-3
80.569267E-3
80.505180E-3
80.628777E-3
80.557823E-3
80.489731E-3
80.505180E-3
80.526924E-3
80.422211E-3
80.172729E-3
80.200768E-3
80.183029E-3
80.060577E-3
80.162430E-3
80.078316E-3
80.051422E-3
80.195045E-3
79.982185E-3
80.580711E-3
80.098343E-3
79.956436E-3
79.926109E-3
79.782486E-3
79.863739E-3
79.779053E-3
79.629707E-3
79.702377E-3
80.170441E-3
79.800797E-3
79.564476E-3
79.524994E-3
79.480934E-3
79.345322E-3
79.345894E-3
79.049492E-3
79.189682E-3
79.290390E-3
79.155350E-3
79.187393E-3
79.085541E-3
79.004288E-3
79.027176E-3
78.841782E-3
79.097557E-3
78.764534E-3
78.629494E-3
78.607750E-3
78.561401E-3
78.725624E-3
79.066086E-3
79.743004E-3
80.644226E-3
80.921173E-3
82.474709E-3
83.558464E-3
84.380722E-3
84.832764E-3
85.023880E-3
85.122299E-3
85.122299E-3
84.746361E-3
84.522057E-3
83.990479E-3
83.743858E-3
83.345604E-3
83.034897E-3
82.958221E-3
82.738495E-3
82.627487E-3
82.669830E-3
82.566261E-3
82.731056E-3
82.544518E-3
82.713890E-3
82.629776E-3
82.447243E-3
82.236099E-3
81.963730E-3
81.818390E-3
81.334877E-3
81.653023E-3
81.833839E-3
81.879616E-3
82.099342E-3
82.138824E-3
82.237244E-3
82.130814E-3
82.230377E-3
82.545090E-3
82.391739E-3
82.187462E-3
82.106209E-3
81.919670E-3
81.752014E-3
81.675911E-3
81.439018E-3
81.417847E-3
81.175804E-3
81.106567E-3
80.971527E-3
80.868530E-3
80.812454E-3
80.641365E-3
80.634499E-3
80.575562E-3
80.454826E-3
80.430794E-3
80.350113E-3
80.368996E-3
80.288887E-3
80.173302E-3
80.172157E-3
80.107498E-3
80.003929E-3
79.988480E-3
79.928398E-3
79.971886E-3
79.817390E-3
79.848289E-3
79.856873E-3
79.762459E-3
79.705811E-3
79.624557E-3
79.686356E-3
79.571342E-3
79.490662E-3
79.506683E-3
79.435730E-3
79.460335E-3
79.358482E-3
79.278946E-3
79.939842E-3
79.422569E-3
79.115868E-3
79.155350E-3
79.038048E-3
79.066086E-3
78.913307E-3
78.921318E-3
78.793144E-3
78.755951E-3
78.718758E-3
78.529930E-3
78.446388E-3
78.439522E-3
78.298187E-3
78.360558E-3
78.561974E-3
78.721046E-3
78.707886E-3
79.843712E-3
81.081390E-3
82.109642E-3
83.160210E-3
84.033966E-3
84.646797E-3
84.836769E-3
85.047913E-3
85.636139E-3
85.129166E-3
84.717178E-3
84.366989E-3
83.944130E-3
83.662605E-3
83.424568E-3
83.109856E-3
83.134460E-3
82.998848E-3
82.966232E-3
83.113289E-3
83.140182E-3
83.245468E-3
83.242035E-3
83.215714E-3
83.616257E-3
82.991409E-3
82.757378E-3
82.320213E-3
82.143402E-3
82.014084E-3
81.902504E-3
82.113647E-3
82.103348E-3
82.221794E-3
82.253265E-3
82.293892E-3
82.435226E-3
82.369423E-3
82.399178E-3
82.348824E-3
82.258987E-3
82.286453E-3
82.185173E-3
82.002640E-3
81.637573E-3
81.504822E-3
81.529999E-3
81.290245E-3
81.241608E-3
81.108856E-3
80.933189E-3
81.170082E-3
80.894852E-3
80.786133E-3
80.722046E-3
80.540657E-3
80.507469E-3
80.455399E-3
80.280304E-3
80.318069E-3
80.497742E-3
80.354118E-3
80.177307E-3
80.164146E-3
80.148697E-3
80.014229E-3
80.051994E-3
80.086327E-3
80.002785E-3
79.516983E-3
79.677773E-3
79.894066E-3
79.750443E-3
79.665184E-3
79.610252E-3
79.552460E-3
79.483223E-3
79.476357E-3
79.496956E-3
79.493523E-3
79.363060E-3
79.353333E-3
79.302406E-3
79.395103E-3
79.279518E-3
79.393387E-3
79.321289E-3
79.148483E-3
79.123878E-3
79.113007E-3
79.005432E-3
78.973389E-3
78.980255E-3
78.919029E-3
78.266716E-3
78.523636E-3
78.590012E-3
78.463554E-3
78.365707E-3
78.447533E-3
78.402328E-3
78.431511E-3
78.527069E-3
78.822327E-3
79.684639E-3
80.485153E-3
81.812668E-3
82.841492E-3
83.812523E-3
84.595871E-3
85.051918E-3
85.342598E-3
85.184097E-3
85.140038E-3
84.980392E-3
84.574699E-3
84.354973E-3
84.027100E-3
83.704948E-3
83.749008E-3
83.381081E-3
82.486153E-3
82.960510E-3
83.214569E-3
83.401108E-3
83.407402E-3
83.564186E-3
83.597946E-3
83.710670E-3
83.452034E-3
83.828545E-3
83.128738E-3
82.676697E-3
82.505035E-3
82.434082E-3
82.335091E-3
82.485580E-3
83.122444E-3
82.757950E-3
82.843781E-3
82.697868E-3
82.793427E-3
82.666397E-3
82.738495E-3
82.668114E-3
82.592583E-3
82.417488E-3
82.333946E-3
82.226944E-3
82.138252E-3
81.986046E-3
81.869888E-3
81.686783E-3
81.596375E-3
81.569481E-3
81.556320E-3
81.504822E-3
81.290817E-3
81.172371E-3
81.176376E-3
80.988693E-3
81.009865E-3
80.897713E-3
80.837059E-3
80.552673E-3
80.625916E-3
80.736351E-3
80.628204E-3
80.606461E-3
80.583572E-3
80.513763E-3
80.554390E-3
80.473709E-3
80.087471E-3
80.411339E-3
80.347252E-3
80.381012E-3
80.281448E-3
80.249405E-3
80.327225E-3
80.085754E-3
80.181885E-3
80.673981E-3
80.285454E-3
80.163574E-3
79.942131E-3
80.013084E-3
79.936409E-3
79.816246E-3
80.136681E-3
79.787064E-3
79.770470E-3
79.672050E-3
79.748154E-3
79.674911E-3
79.577065E-3
79.614830E-3
79.411697E-3
80.088043E-3
79.643440E-3
79.242897E-3
79.222298E-3
79.143906E-3
79.056931E-3
79.023743E-3
78.877258E-3
78.930473E-3
78.957939E-3
79.066658E-3
79.555321E-3
80.118942E-3
81.143188E-3
82.190895E-3
83.093262E-3
84.028244E-3
84.637070E-3
85.413551E-3
85.353470E-3
85.329437E-3
85.249329E-3
84.893417E-3
84.619904E-3
84.276581E-3
83.946991E-3
83.770180E-3
82.721329E-3
82.994270E-3
82.783699E-3
82.935905E-3
83.105278E-3
83.070946E-3
83.131027E-3
83.128166E-3
83.180237E-3
83.252335E-3
82.887840E-3
82.747078E-3
82.387161E-3
82.242393E-3
82.319069E-3
82.198906E-3
82.252121E-3
82.249260E-3
81.690216E-3
82.361412E-3
82.490158E-3
82.547951E-3
82.613182E-3
82.628059E-3
82.555962E-3
82.345963E-3
82.296181E-3
82.178879E-3
82.017517E-3
81.928253E-3
81.717110E-3
81.654739E-3
81.415558E-3
81.332016E-3
81.376648E-3
81.114006E-3
81.143188E-3
81.015587E-3
80.874252E-3
80.882835E-3
80.708313E-3
80.742073E-3
80.615044E-3
80.040550E-3
80.422211E-3
80.394173E-3
80.500031E-3
80.393028E-3
80.455399E-3
80.455971E-3
80.239677E-3
80.271149E-3
80.534935E-3
80.287743E-3
80.230522E-3
80.063438E-3
80.053711E-3
80.026245E-3
79.888344E-3
79.902077E-3
79.765892E-3
79.468918E-3
79.580498E-3
79.646873E-3
79.675484E-3
79.633141E-3
79.574203E-3
79.487801E-3
79.479790E-3
79.420853E-3
79.376221E-3
79.340172E-3
79.099274E-3
79.197121E-3
79.223442E-3
79.233170E-3
79.123306E-3
79.075241E-3
78.917885E-3
79.039192E-3
78.738785E-3
78.709030E-3
78.715324E-3
78.634644E-3
78.707314E-3
78.652382E-3
79.087257E-3
79.562187E-3
79.933548E-3
81.220436E-3
82.317352E-3
83.312416E-3
84.132957E-3
84.710312E-3
85.137749E-3
85.496521E-3
85.321999E-3
85.192108E-3
84.843063E-3
84.598160E-3
84.218788E-3
84.008217E-3
83.660889E-3
83.348465E-3
84.096336E-3
83.482361E-3
83.357048E-3
83.327293E-3
83.378220E-3
83.568764E-3
83.481789E-3
83.454323E-3
83.373070E-3
83.358192E-3
83.013153E-3
82.681274E-3
82.471848E-3
82.260132E-3
82.202339E-3
82.297897E-3
82.317924E-3
82.435799E-3
82.320786E-3
82.416916E-3
82.666969E-3
82.609177E-3
82.610893E-3
82.618904E-3
82.516479E-3
82.486725E-3
82.320213E-3
82.277298E-3
82.094765E-3
81.881332E-3
81.802368E-3
81.578064E-3
81.591797E-3
81.445312E-3
81.412125E-3
81.337166E-3
80.467415E-3
80.903435E-3
80.879974E-3
80.785561E-3
80.891991E-3
80.769539E-3
80.723763E-3
80.608749E-3
80.539513E-3
80.112076E-3
80.324364E-3
80.434799E-3
80.435371E-3
80.355263E-3
80.360985E-3
80.245399E-3
80.255699E-3
80.231094E-3
80.193329E-3
80.256844E-3
80.124664E-3
80.102921E-3
80.020523E-3
79.969025E-3
80.022240E-3
80.089188E-3
79.960442E-3
79.902077E-3
79.741287E-3
79.782486E-3
79.642296E-3
79.623413E-3
79.513550E-3
79.412842E-3
79.742432E-3
79.426003E-3
79.348183E-3
79.323578E-3
79.291534E-3
79.306984E-3
79.242897E-3
79.244614E-3
79.266357E-3
79.375648E-3
79.162788E-3
78.819466E-3
78.894997E-3
78.842926E-3
78.778267E-3
78.707314E-3
78.604889E-3
78.588867E-3
78.611755E-3
78.507614E-3
78.616333E-3
78.812027E-3
79.327583E-3
80.227661E-3
81.163216E-3
82.145691E-3
83.236313E-3
84.104919E-3
84.803009E-3
85.125160E-3
85.356331E-3
85.292244E-3
85.050201E-3
84.950638E-3
84.323502E-3
84.222794E-3
83.602524E-3
83.638000E-3
83.527565E-3
83.343887E-3
83.427429E-3
83.430290E-3
83.458328E-3
84.191895E-3
83.818817E-3
83.720970E-3
83.641434E-3
83.501816E-3
83.389091E-3
83.109856E-3
82.931328E-3
82.668114E-3
81.741714E-3
82.221794E-3
82.240105E-3
82.406616E-3
82.509613E-3
82.507896E-3
82.628059E-3
82.679558E-3
82.778549E-3
82.973671E-3
82.852364E-3
82.781982E-3
82.668686E-3
82.634354E-3
82.422066E-3
82.274437E-3
82.187462E-3
81.983757E-3
82.444954E-3
81.909370E-3
81.428719E-3
81.500816E-3
81.317711E-3
81.309128E-3
81.255913E-3
81.105995E-3
81.115723E-3
81.030464E-3
81.017876E-3
80.992699E-3
80.851936E-3
80.829620E-3
80.754089E-3
80.773544E-3
80.766106E-3
80.658531E-3
80.354118E-3
80.425072E-3
80.525780E-3
80.441666E-3
80.462837E-3
80.534935E-3
80.348396E-3
80.306053E-3
80.270576E-3
80.595016E-3
80.372429E-3
80.205345E-3
80.186462E-3
80.100632E-3
79.962158E-3
79.987907E-3
80.260277E-3
80.052567E-3
79.875755E-3
79.892921E-3
79.810524E-3
79.675484E-3
79.708672E-3
79.609108E-3
79.617691E-3
80.312347E-3
79.745865E-3
79.566193E-3
79.455185E-3
79.446602E-3
79.415131E-3
79.312134E-3
79.285812E-3
79.210854E-3
78.469849E-3
78.890419E-3
78.899574E-3
78.953362E-3
78.900146E-3
78.789139E-3
78.809738E-3
78.722763E-3
78.786278E-3
79.611969E-3
79.375076E-3
79.729843E-3
80.466843E-3
81.520844E-3
82.545662E-3
83.559608E-3
84.354973E-3
84.878540E-3
85.536575E-3
85.462761E-3
85.445595E-3
85.228729E-3
84.938622E-3
84.578705E-3
84.305763E-3
83.763885E-3
83.627129E-3
83.700943E-3
83.410835E-3
83.241463E-3
83.231163E-3
83.331299E-3
83.291817E-3
83.346748E-3
83.112717E-3
83.283806E-3
82.842064E-3
82.844353E-3
82.738495E-3
82.559395E-3
82.392311E-3
82.236671E-3
82.252693E-3
82.384300E-3
82.422638E-3
82.497025E-3
82.628632E-3
82.657242E-3
82.813454E-3
82.784271E-3
82.780266E-3
82.784271E-3
82.485580E-3
82.556534E-3
82.432365E-3
82.315636E-3
82.189751E-3
82.023811E-3
81.936836E-3
81.849861E-3
81.650162E-3
81.929398E-3
81.583786E-3
81.461906E-3
81.354332E-3
81.278801E-3
81.217575E-3
81.101418E-3
81.083679E-3
80.971527E-3
80.485725E-3
80.772400E-3
80.635071E-3
80.743790E-3
80.694580E-3
80.596733E-3
80.592155E-3
80.613899E-3
80.712318E-3
80.940628E-3
80.692863E-3
80.552673E-3
80.389023E-3
80.382729E-3
80.401611E-3
80.281448E-3
80.208778E-3
80.119514E-3
80.584145E-3
80.275726E-3
80.132675E-3
80.076027E-3
79.896927E-3
79.886055E-3
79.880333E-3
79.690933E-3
79.718971E-3
79.358482E-3
79.500389E-3
79.551888E-3
79.527855E-3
79.594231E-3
79.581070E-3
79.535294E-3
79.146194E-3
79.189110E-3
79.294968E-3
79.083824E-3
79.085541E-3
79.000854E-3
78.936195E-3
78.845787E-3
78.723907E-3
78.988838E-3
78.816605E-3
78.824043E-3
79.142189E-3
79.514694E-3
80.305481E-3
81.192970E-3
82.233810E-3
83.177948E-3
83.541870E-3
84.397888E-3
84.827614E-3
84.907150E-3
84.961510E-3
84.678268E-3
84.571838E-3
84.302902E-3
83.858871E-3
83.247185E-3
83.135033E-3
83.045769E-3
82.895279E-3
82.753372E-3
82.773399E-3
82.653809E-3
82.718468E-3
82.714462E-3
82.614326E-3
82.640076E-3
82.418060E-3
82.218361E-3
81.998062E-3
81.810379E-3
81.743431E-3
81.750298E-3
81.777191E-3
81.325722E-3
81.689644E-3
82.011223E-3
82.146263E-3
82.241249E-3
82.257271E-3
82.194901E-3
82.337952E-3
82.173729E-3
82.161140E-3
82.023811E-3
81.934547E-3
81.798363E-3
81.554604E-3
81.426430E-3
81.320000E-3
81.394958E-3
81.167793E-3
80.922318E-3
80.839920E-3
80.799294E-3
80.696869E-3
80.625916E-3
80.557823E-3
80.523491E-3
80.949783E-3
80.500031E-3
80.447388E-3
80.322075E-3
80.327225E-3
80.312347E-3
80.198479E-3
80.217934E-3
80.092049E-3
79.573631E-3
79.819107E-3
79.870605E-3
79.984474E-3
79.934120E-3
79.902077E-3
79.883766E-3
79.839706E-3
79.847145E-3
80.115509E-3
79.906654E-3
79.732704E-3
79.650879E-3
79.597092E-3
79.428864E-3
79.380798E-3
79.273224E-3
79.341888E-3
79.613686E-3
79.274368E-3
79.240608E-3
79.226875E-3
79.158211E-3
79.173088E-3
79.090118E-3
79.117584E-3
79.026031E-3
78.946495E-3
78.947639E-3
78.823471E-3
78.804016E-3
78.800011E-3
78.628349E-3
78.592873E-3
78.581429E-3
78.402901E-3
78.010368E-3
78.100777E-3
78.299904E-3
78.346252E-3
78.693008E-3
79.217720E-3
80.115509E-3
80.677986E-3
82.046127E-3
83.264923E-3
84.195900E-3
84.720612E-3
85.133743E-3
85.282516E-3
85.245323E-3
85.195541E-3
84.933472E-3
84.647942E-3
84.263992E-3
83.975029E-3
83.702660E-3
83.535004E-3
83.432579E-3
83.378220E-3
83.319283E-3
82.658958E-3
83.050346E-3
83.467484E-3
83.506966E-3
83.512688E-3
83.428574E-3
