Notes :


2023-10-25 ¿ÀÈÄ 10:12:24
Volts
Ch : LED 2,
517.316437E-3
516.514206E-3
517.000008E-3
516.289902E-3
516.494751E-3
516.527367E-3
515.836716E-3
516.192055E-3
515.923691E-3
516.447830E-3
516.325378E-3
515.728569E-3
516.583443E-3
516.823769E-3
518.125534E-3
519.537735E-3
520.165443E-3
522.224236E-3
523.340607E-3
524.891853E-3
525.452614E-3
525.143051E-3
525.751877E-3
524.474716E-3
524.338531E-3
523.830414E-3
522.642517E-3
522.475433E-3
521.732140E-3
521.439743E-3
521.125031E-3
521.440315E-3
521.411705E-3
520.844650E-3
521.222878E-3
521.759033E-3
521.253777E-3
521.722984E-3
521.086693E-3
521.136475E-3
521.129036E-3
520.238113E-3
520.615196E-3
519.855309E-3
520.215797E-3
520.386314E-3
519.996643E-3
520.470428E-3
519.992638E-3
520.422363E-3
520.839500E-3
520.368004E-3
520.900154E-3
520.367432E-3
520.915031E-3
520.670128E-3
519.716835E-3
519.956589E-3
519.097137E-3
518.911743E-3
518.887711E-3
518.429947E-3
518.744087E-3
518.219376E-3
518.391037E-3
518.554687E-3
517.764473E-3
518.295479E-3
517.313576E-3
518.016815E-3
517.873764E-3
517.223167E-3
517.465782E-3
517.268944E-3
517.806816E-3
517.746735E-3
517.318153E-3
517.430878E-3
517.113304E-3
517.407417E-3
517.305565E-3
516.664124E-3
517.248917E-3
516.337395E-3
516.840363E-3
516.736221E-3
516.337395E-3
516.806030E-3
516.161728E-3
516.450691E-3
516.892433E-3
516.245842E-3
516.213799E-3
515.348625E-3
515.491676E-3
515.798950E-3
514.903450E-3
515.088844E-3
514.656258E-3
514.760971E-3
514.753532E-3
514.137268E-3
514.342117E-3
513.908386E-3
514.162445E-3
514.391327E-3
514.592171E-3
516.152000E-3
517.023468E-3
519.029617E-3
520.721054E-3
521.868896E-3
523.009872E-3
523.024178E-3
523.192406E-3
523.130608E-3
523.220444E-3
522.292328E-3
520.815468E-3
520.264435E-3
519.727707E-3
518.546677E-3
518.865967E-3
518.220520E-3
518.031693E-3
518.504333E-3
518.162727E-3
518.624496E-3
518.059731E-3
518.342972E-3
517.934990E-3
517.742729E-3
517.583084E-3
516.520500E-3
516.902161E-3
517.190552E-3
517.298698E-3
517.896652E-3
517.641449E-3
518.248558E-3
518.058586E-3
517.680359E-3
517.922974E-3
517.417145E-3
517.639160E-3
517.837715E-3
517.153931E-3
517.311859E-3
516.664696E-3
516.646385E-3
516.618919E-3
516.340256E-3
516.358566E-3
515.012169E-3
515.499687E-3
515.611267E-3
515.223885E-3
515.370941E-3
514.445686E-3
514.876556E-3
514.948082E-3
514.272308E-3
514.544106E-3
514.256287E-3
514.559555E-3
515.449905E-3
514.878273E-3
515.067101E-3
514.278603E-3
514.445114E-3
514.599037E-3
513.996506E-3
514.425087E-3
513.665771E-3
513.914108E-3
514.155006E-3
513.466072E-3
513.874626E-3
513.193703E-3
513.405991E-3
513.578224E-3
513.237190E-3
513.543892E-3
513.280106E-3
513.346481E-3
513.412285E-3
512.919044E-3
513.113594E-3
512.553406E-3
512.379456E-3
512.287903E-3
511.902809E-3
512.265015E-3
511.869049E-3
512.283325E-3
512.487602E-3
512.242699E-3
513.066101E-3
513.665771E-3
514.583015E-3
516.061020E-3
517.226028E-3
519.157219E-3
520.033836E-3
520.447540E-3
521.253777E-3
520.924759E-3
521.064377E-3
520.703888E-3
520.062447E-3
519.664764E-3
518.609047E-3
518.478584E-3
517.999649E-3
517.280388E-3
517.189407E-3
516.575432E-3
517.156792E-3
517.327309E-3
517.016602E-3
517.535019E-3
517.302132E-3
517.491531E-3
517.359924E-3
516.446686E-3
516.308212E-3
515.867043E-3
516.043282E-3
516.146851E-3
515.774918E-3
516.536522E-3
515.951157E-3
516.198349E-3
516.145706E-3
516.569138E-3
516.407204E-3
515.917397E-3
516.334534E-3
516.466141E-3
515.677643E-3
515.596390E-3
515.132904E-3
515.207863E-3
514.852524E-3
514.254570E-3
514.257431E-3
513.752747E-3
513.939857E-3
514.212227E-3
514.017105E-3
514.418221E-3
513.867187E-3
514.060593E-3
513.983917E-3
513.590240E-3
513.810539E-3
513.240623E-3
513.486671E-3
513.647461E-3
513.121605E-3
513.227463E-3
512.864685E-3
513.022614E-3
513.070679E-3
512.262154E-3
512.481880E-3
512.176895E-3
512.469292E-3
512.820053E-3
512.143707E-3
512.336540E-3
511.893082E-3
512.183762E-3
512.221527E-3
511.443329E-3
511.678505E-3
510.869408E-3
511.211586E-3
511.300850E-3
510.572433E-3
511.035919E-3
510.342407E-3
510.451698E-3
510.627365E-3
510.349274E-3
511.147499E-3
511.904526E-3
513.589096E-3
514.872551E-3
515.928268E-3
517.928696E-3
518.528366E-3
519.750595E-3
520.181465E-3
519.457626E-3
519.339752E-3
518.308640E-3
517.869186E-3
517.129326E-3
516.002083E-3
515.693092E-3
514.683151E-3
514.858246E-3
514.848518E-3
514.752960E-3
515.348625E-3
514.905739E-3
515.704536E-3
515.736580E-3
515.045929E-3
514.995003E-3
513.999367E-3
513.993645E-3
513.821411E-3
513.049507E-3
513.742447E-3
513.342476E-3
513.735580E-3
514.167595E-3
514.397049E-3
514.810753E-3
513.995934E-3
514.182472E-3
514.247131E-3
513.836861E-3
514.425087E-3
513.717270E-3
513.814545E-3
513.705254E-3
512.693596E-3
513.260651E-3
512.323952E-3
512.309647E-3
512.356567E-3
511.668205E-3
512.148285E-3
511.527443E-3
511.883354E-3
511.746597E-3
511.645889E-3
511.708260E-3
511.039925E-3
510.997009E-3
510.986710E-3
510.202217E-3
510.855675E-3
510.424232E-3
510.745239E-3
510.997009E-3
510.278320E-3
510.796165E-3
510.424805E-3
510.717773E-3
510.975838E-3
510.390472E-3
510.547256E-3
509.713554E-3
509.920120E-3
510.029984E-3
509.055519E-3
509.266090E-3
508.613777E-3
509.329033E-3
509.679794E-3
509.082985E-3
509.901810E-3
509.983063E-3
510.883713E-3
512.324524E-3
512.907600E-3
514.842796E-3
515.596962E-3
516.888428E-3
517.745018E-3
517.981911E-3
518.245125E-3
517.592812E-3
517.426300E-3
516.803169E-3
515.163803E-3
515.107155E-3
513.773346E-3
513.657188E-3
513.274956E-3
512.492752E-3
512.748528E-3
512.144279E-3
512.543106E-3
513.131332E-3
512.714767E-3
513.284683E-3
512.490463E-3
512.679291E-3
512.793159E-3
511.865616E-3
512.624931E-3
512.581444E-3
512.880135E-3
513.380814E-3
512.381744E-3
513.141060E-3
512.829208E-3
513.212013E-3
513.985634E-3
513.450050E-3
513.868332E-3
513.195419E-3
513.491249E-3
513.162231E-3
513.805962E-3
512.948799E-3
511.439323E-3
511.549759E-3
511.542892E-3
510.832787E-3
511.395836E-3
511.189842E-3
511.439896E-3
511.602402E-3
510.899162E-3
511.316872E-3
510.482025E-3
510.678864E-3
510.895729E-3
510.120392E-3
510.677719E-3
509.916687E-3
510.638809E-3
510.750389E-3
510.492325E-3
510.741234E-3
510.361290E-3
510.791588E-3
510.800743E-3
510.012245E-3
510.280037E-3
509.628296E-3
509.804535E-3
509.779358E-3
508.983994E-3
509.527016E-3
508.860397E-3
509.367943E-3
509.747314E-3
508.700180E-3
509.217453E-3
509.086990E-3
510.423088E-3
512.069893E-3
513.389969E-3
515.372086E-3
516.179466E-3
517.646599E-3
518.492317E-3
519.220734E-3
518.666840E-3
517.020035E-3
516.588020E-3
515.794373E-3
514.671135E-3
514.196205E-3
512.840080E-3
512.692451E-3
512.424660E-3
511.726570E-3
512.225533E-3
511.635017E-3
512.404060E-3
512.616348E-3
512.531662E-3
512.115097E-3
511.141777E-3
511.006737E-3
511.439323E-3
511.890221E-3
511.870193E-3
511.494255E-3
512.183762E-3
512.702751E-3
512.329674E-3
512.889862E-3
512.568283E-3
512.586594E-3
513.088989E-3
512.249565E-3
512.537384E-3
511.652756E-3
511.446190E-3
511.308289E-3
510.761261E-3
510.881996E-3
510.124397E-3
510.321236E-3
510.557556E-3
510.308075E-3
510.680580E-3
509.799957E-3
509.801674E-3
509.838867E-3
509.420013E-3
509.604836E-3
509.063530E-3
509.349060E-3
509.508133E-3
509.208870E-3
509.670067E-3
509.496117E-3
509.450912E-3
509.710121E-3
509.051514E-3
509.369659E-3
509.365082E-3
509.204292E-3
509.373093E-3
508.931923E-3
509.248924E-3
508.823776E-3
508.438110E-3
508.373451E-3
507.934570E-3
508.379745E-3
507.959747E-3
507.920265E-3
508.267021E-3
508.287621E-3
509.302711E-3
510.506630E-3
511.693382E-3
513.356209E-3
514.778709E-3
516.875267E-3
517.631149E-3
518.304634E-3
518.269157E-3
517.571068E-3
517.408562E-3
516.729927E-3
515.594673E-3
514.968109E-3
513.707542E-3
513.543892E-3
512.823486E-3
512.089348E-3
512.371445E-3
511.731720E-3
512.428093E-3
512.698746E-3
512.352562E-3
512.755966E-3
511.885071E-3
512.128830E-3
512.147713E-3
511.366081E-3
511.675072E-3
511.308861E-3
512.347984E-3
512.520790E-3
512.008095E-3
512.507629E-3
511.890793E-3
512.331963E-3
512.455559E-3
511.847305E-3
512.171173E-3
511.577797E-3
512.038994E-3
512.020683E-3
511.376381E-3
511.232185E-3
510.116959E-3
510.492325E-3
510.502625E-3
509.852600E-3
510.266304E-3
509.627151E-3
509.934998E-3
509.921837E-3
509.341621E-3
509.455490E-3
508.960533E-3
509.369659E-3
509.384537E-3
509.692955E-3
509.660912E-3
508.942795E-3
509.209442E-3
508.965683E-3
508.343124E-3
508.769417E-3
508.374023E-3
508.926773E-3
509.092140E-3
508.550262E-3
508.945656E-3
508.419228E-3
508.657837E-3
508.399200E-3
507.674217E-3
507.901382E-3
507.105446E-3
507.446480E-3
507.406998E-3
506.820488E-3
506.870270E-3
506.865120E-3
507.826996E-3
508.883858E-3
509.457207E-3
511.546326E-3
512.691307E-3
514.682007E-3
516.450691E-3
516.921043E-3
517.628860E-3
517.415428E-3
517.623711E-3
517.026901E-3
515.710831E-3
515.456200E-3
514.173317E-3
513.590240E-3
513.065529E-3
512.162018E-3
512.253571E-3
511.687660E-3
512.180901E-3
512.295341E-3
513.026619E-3
512.765121E-3
511.889076E-3
512.084770E-3
511.786652E-3
512.208939E-3
511.561203E-3
510.705185E-3
510.954666E-3
511.240768E-3
512.244987E-3
511.754036E-3
511.003304E-3
511.490250E-3
511.961746E-3
512.757111E-3
512.289619E-3
511.465645E-3
511.787224E-3
511.847878E-3
511.060524E-3
511.345482E-3
510.269737E-3
510.223389E-3
510.104370E-3
508.986855E-3
509.329605E-3
508.788872E-3
509.228325E-3
509.332466E-3
508.549118E-3
509.211159E-3
508.744812E-3
509.007454E-3
508.991432E-3
508.253288E-3
508.726501E-3
508.230400E-3
508.329391E-3
508.620644E-3
507.884216E-3
508.307648E-3
508.077621E-3
508.285332E-3
508.316231E-3
507.663918E-3
508.020401E-3
507.709694E-3
507.845306E-3
508.034706E-3
507.773781E-3
507.988930E-3
507.233047E-3
507.522011E-3
507.508278E-3
506.579590E-3
507.254791E-3
506.369019E-3
506.512642E-3
506.783867E-3
506.104088E-3
506.128693E-3
505.557060E-3
506.046295E-3
506.769562E-3
506.875992E-3
509.086418E-3
510.328674E-3
512.535667E-3
514.334679E-3
515.718269E-3
517.081833E-3
517.025757E-3
517.300415E-3
517.104149E-3
515.213585E-3
514.696884E-3
513.111305E-3
512.520790E-3
511.785507E-3
510.629082E-3
510.824203E-3
509.922409E-3
510.369301E-3
510.857964E-3
510.688019E-3
511.337471E-3
510.540390E-3
510.944939E-3
510.866547E-3
509.771347E-3
509.928131E-3
509.223747E-3
509.906387E-3
509.972763E-3
509.790802E-3
510.428810E-3
509.694099E-3
510.375595E-3
510.725784E-3
510.478020E-3
510.896873E-3
510.201073E-3
510.710335E-3
510.628510E-3
509.615707E-3
509.789658E-3
508.826637E-3
508.669853E-3
508.360291E-3
507.852745E-3
508.013535E-3
507.269096E-3
507.457352E-3
507.749176E-3
507.007599E-3
507.126617E-3
506.476021E-3
506.909180E-3
506.905746E-3
506.430244E-3
507.126045E-3
506.572723E-3
506.469154E-3
506.655121E-3
507.626152E-3
507.064247E-3
505.964470E-3
506.255150E-3
506.480026E-3
507.381248E-3
506.817055E-3
505.840302E-3
505.868912E-3
506.065750E-3
505.494690E-3
506.030273E-3
505.272102E-3
505.361366E-3
505.356216E-3
504.624939E-3
504.961395E-3
504.101944E-3
504.346275E-3
504.429817E-3
503.800964E-3
504.374886E-3
504.219818E-3
505.150223E-3
506.166458E-3
508.058167E-3
509.567070E-3
510.425949E-3
512.778282E-3
514.381027E-3
514.731789E-3
515.642166E-3
514.988136E-3
514.656830E-3
514.595032E-3
512.883568E-3
512.310219E-3
510.634232E-3
510.229111E-3
509.658051E-3
508.720207E-3
508.964539E-3
508.323669E-3
508.982849E-3
509.404564E-3
509.311867E-3
509.528160E-3
509.097290E-3
508.912468E-3
508.847809E-3
508.071899E-3
508.301926E-3
507.678223E-3
508.178329E-3
508.639526E-3
508.463860E-3
508.782578E-3
508.769417E-3
509.005165E-3
509.029770E-3
508.694458E-3
509.057808E-3
508.906174E-3
508.691025E-3
508.466721E-3
507.903099E-3
507.772064E-3
507.046509E-3
506.564140E-3
506.658554E-3
506.094933E-3
506.276321E-3
506.425667E-3
506.338120E-3
506.332970E-3
506.031418E-3
506.138992E-3
505.859184E-3
505.625153E-3
505.723572E-3
505.083847E-3
505.242920E-3
505.262375E-3
505.134201E-3
505.262947E-3
504.730797E-3
505.273247E-3
505.327606E-3
505.213165E-3
505.283546E-3
504.497337E-3
504.745674E-3
504.765701E-3
504.222679E-3
504.223824E-3
503.656197E-3
504.158592E-3
504.461288E-3
504.679871E-3
504.428673E-3
503.763199E-3
504.073906E-3
504.086494E-3
503.550339E-3
503.637886E-3
503.148079E-3
503.398132E-3
503.494263E-3
502.887154E-3
502.822495E-3
502.136993E-3
502.419090E-3
502.622795E-3
502.713776E-3
503.474236E-3
504.154015E-3
506.397629E-3
508.510780E-3
510.126686E-3
512.220955E-3
513.222885E-3
514.319801E-3
514.804459E-3
514.132118E-3
514.070320E-3
513.001442E-3
512.398338E-3
511.755180E-3
510.644531E-3
510.059738E-3
508.851814E-3
508.885574E-3
508.941650E-3
508.723068E-3
509.131622E-3
508.946800E-3
509.585381E-3
509.903526E-3
509.375954E-3
509.275818E-3
508.378601E-3
508.320236E-3
507.935143E-3
507.125473E-3
507.612991E-3
507.207870E-3
507.928848E-3
508.278465E-3
508.060455E-3
508.467293E-3
508.006096E-3
508.731651E-3
508.771706E-3
508.463287E-3
509.013176E-3
507.996368E-3
508.035851E-3
508.070755E-3
507.060814E-3
506.803894E-3
505.990791E-3
506.182480E-3
506.223679E-3
505.682373E-3
505.935287E-3
505.364799E-3
505.850601E-3
506.200790E-3
505.440331E-3
505.525589E-3
504.952240E-3
505.232620E-3
505.221748E-3
504.850388E-3
505.496407E-3
504.770279E-3
505.189705E-3
505.518723E-3
504.848099E-3
505.167389E-3
504.886436E-3
505.056381E-3
505.241776E-3
504.570580E-3
505.179977E-3
504.378891E-3
504.643250E-3
504.781151E-3
504.150009E-3
504.808044E-3
504.276466E-3
504.487610E-3
504.593468E-3
504.001808E-3
504.625511E-3
503.768921E-3
504.048729E-3
504.150581E-3
503.937721E-3
503.917122E-3
502.972984E-3
503.482819E-3
503.531456E-3
502.907181E-3
503.116035E-3
502.626228E-3
503.078842E-3
503.573227E-3
503.174400E-3
504.376602E-3
505.454636E-3
507.417297E-3
509.525871E-3
510.966682E-3
513.382530E-3
514.144707E-3
514.995575E-3
515.088844E-3
513.982201E-3
513.985634E-3
512.364578E-3
511.594963E-3
511.045074E-3
509.321594E-3
509.196281E-3
508.412933E-3
508.597755E-3
508.657837E-3
508.048439E-3
508.908463E-3
508.584023E-3
508.879280E-3
509.325027E-3
508.506203E-3
508.767700E-3
507.633591E-3
507.598686E-3
508.193207E-3
507.135773E-3
507.750320E-3
507.538605E-3
508.362007E-3
508.328247E-3
507.732582E-3
508.552551E-3
508.059883E-3
508.533669E-3
508.620644E-3
508.748245E-3
508.689880E-3
507.872772E-3
507.880783E-3
507.630730E-3
506.634521E-3
506.660843E-3
505.724144E-3
505.704689E-3
505.705261E-3
504.909325E-3
505.769920E-3
505.044937E-3
505.440331E-3
505.652046E-3
504.715919E-3
505.142212E-3
504.347992E-3
504.820061E-3
504.972267E-3
504.169464E-3
504.472160E-3
503.814125E-3
504.254723E-3
