Notes :


2023-11-06 ¿ÀÈÄ 10:31:07
Volts
Ch : LED 2,
398.308754E-3
398.349953E-3
398.166275E-3
398.150253E-3
397.974586E-3
397.919083E-3
397.907066E-3
397.663307E-3
397.780609E-3
397.653008E-3
397.615242E-3
397.550011E-3
397.445869E-3
397.428703E-3
397.341728E-3
397.325706E-3
397.425270E-3
397.303963E-3
397.273064E-3
397.191811E-3
397.105408E-3
397.028732E-3
396.990967E-3
397.001266E-3
396.979523E-3
396.973228E-3
396.934891E-3
396.861649E-3
396.940613E-3
396.761513E-3
396.689987E-3
396.664238E-3
396.581268E-3
396.589279E-3
396.567535E-3
396.474266E-3
396.451378E-3
396.378708E-3
396.272850E-3
396.322632E-3
396.375847E-3
396.747208E-3
397.061348E-3
397.664452E-3
398.161125E-3
398.781967E-3
399.245453E-3
399.660301E-3
399.957275E-3
400.132370E-3
400.179291E-3
400.210190E-3
400.084877E-3
400.066566E-3
399.897766E-3
399.785614E-3
399.651718E-3
399.512100E-3
399.489784E-3
399.562454E-3
399.629402E-3
399.630547E-3
399.747849E-3
399.750710E-3
399.786758E-3
399.674606E-3
399.682045E-3
399.580193E-3
399.494934E-3
399.419975E-3
399.320984E-3
399.326706E-3
399.196243E-3
399.254608E-3
399.292946E-3
399.336433E-3
399.284363E-3
399.246597E-3
399.338722E-3
399.366188E-3
399.341583E-3
399.397659E-3
399.382782E-3
399.468040E-3
399.334145E-3
399.228859E-3
399.298096E-3
399.133301E-3
399.077225E-3
398.904991E-3
398.894691E-3
398.913574E-3
398.820305E-3
398.715019E-3
398.724174E-3
398.616028E-3
398.577118E-3
398.418617E-3
398.429489E-3
398.319054E-3
398.247528E-3
398.190880E-3
398.060989E-3
398.077583E-3
397.954559E-3
397.925377E-3
397.925949E-3
397.927094E-3
397.837830E-3
397.823524E-3
397.808075E-3
397.655296E-3
397.678185E-3
397.614098E-3
397.608948E-3
397.529411E-3
397.507095E-3
397.499084E-3
397.463036E-3
397.386360E-3
397.413826E-3
397.340012E-3
397.168922E-3
397.162056E-3
397.115135E-3
397.026443E-3
396.998978E-3
397.002983E-3
396.946335E-3
396.901131E-3
396.938896E-3
396.957779E-3
397.195816E-3
397.644424E-3
398.231506E-3
398.790550E-3
399.338150E-3
399.839401E-3
400.349808E-3
400.558662E-3
400.744057E-3
400.657654E-3
400.587273E-3
400.517464E-3
400.494576E-3
400.314331E-3
400.187874E-3
399.995041E-3
399.931526E-3
399.920082E-3
399.892616E-3
399.972725E-3
400.028801E-3
400.116920E-3
400.095749E-3
400.098610E-3
400.076866E-3
399.906349E-3
399.794769E-3
399.662018E-3
399.535561E-3
399.563026E-3
399.506950E-3
399.564171E-3
399.484634E-3
399.448586E-3
399.492073E-3
399.573326E-3
399.608231E-3
399.653435E-3
399.626541E-3
399.544716E-3
399.486351E-3
399.421120E-3
399.414253E-3
399.280930E-3
399.224854E-3
399.187088E-3
399.144745E-3
399.013710E-3
398.989677E-3
399.069786E-3
398.913002E-3
398.839188E-3
398.815727E-3
398.685837E-3
398.641205E-3
398.497581E-3
398.562813E-3
398.478699E-3
398.368263E-3
398.241234E-3
398.165131E-3
398.069000E-3
398.040962E-3
397.960854E-3
397.899055E-3
397.808075E-3
397.773743E-3
397.745705E-3
397.739410E-3
397.745132E-3
397.653008E-3
397.588348E-3
397.514534E-3
397.487068E-3
397.425270E-3
397.412682E-3
397.484207E-3
397.388077E-3
397.295952E-3
397.254753E-3
397.150612E-3
397.071648E-3
397.007561E-3
396.925735E-3
396.988106E-3
396.978951E-3
396.928596E-3
396.769524E-3
396.927452E-3
397.289085E-3
397.752571E-3
398.360825E-3
398.864937E-3
399.399948E-3
399.937820E-3
400.210190E-3
400.303459E-3
400.387573E-3
400.281715E-3
400.198174E-3
400.151825E-3
400.070572E-3
399.917793E-3
399.727821E-3
399.698639E-3
399.663162E-3
399.569893E-3
399.612808E-3
399.581337E-3
399.705505E-3
399.685478E-3
399.740982E-3
399.644852E-3
399.581909E-3
399.449158E-3
399.310112E-3
399.200249E-3
399.169922E-3
399.157906E-3
399.294662E-3
399.177933E-3
399.143600E-3
399.258041E-3
399.216270E-3
399.282074E-3
399.311256E-3
399.282646E-3
399.312401E-3
399.348450E-3
399.324989E-3
399.311256E-3
399.278069E-3
399.155617E-3
399.060631E-3
399.001122E-3
398.884964E-3
398.730469E-3
398.688126E-3
398.690414E-3
398.575401E-3
398.411751E-3
398.376846E-3
398.311043E-3
398.310471E-3
398.169708E-3
398.093605E-3
398.067284E-3
397.982597E-3
397.892761E-3
397.839546E-3
397.809219E-3
397.789764E-3
397.668457E-3
397.591209E-3
397.583771E-3
397.532272E-3
397.595787E-3
397.476196E-3
397.373199E-3
397.367477E-3
397.282791E-3
397.264481E-3
397.298813E-3
397.203827E-3
397.211838E-3
397.111130E-3
397.046471E-3
397.038460E-3
396.919441E-3
396.967506E-3
396.870232E-3
396.722031E-3
396.726036E-3
396.647644E-3
396.584702E-3
396.542358E-3
396.549797E-3
396.629333E-3
396.966934E-3
397.403526E-3
398.103905E-3
398.584557E-3
399.078369E-3
399.478340E-3
399.869728E-3
400.200462E-3
400.329781E-3
400.313187E-3
400.289154E-3
400.162125E-3
400.075722E-3
399.977875E-3
399.817085E-3
399.722672E-3
399.678040E-3
399.605370E-3
399.687195E-3
399.801064E-3
399.826813E-3
399.928665E-3
399.932671E-3
399.886322E-3
399.824524E-3
399.730682E-3
399.551010E-3
399.446869E-3
399.283218E-3
399.347878E-3
399.278641E-3
399.217415E-3
399.262619E-3
399.231148E-3
399.207115E-3
399.165344E-3
399.240303E-3
399.191666E-3
399.188232E-3
399.187088E-3
399.145889E-3
399.117851E-3
399.056053E-3
399.009705E-3
398.934174E-3
398.782539E-3
398.709869E-3
398.629761E-3
398.628616E-3
398.561668E-3
398.434067E-3
398.460960E-3
398.311043E-3
398.224068E-3
398.077583E-3
398.080444E-3
398.038101E-3
398.061562E-3
397.951126E-3
397.955132E-3
397.810364E-3
397.743416E-3
397.727966E-3
397.592926E-3
397.616386E-3
397.508812E-3
397.488785E-3
397.448158E-3
397.384644E-3
397.478485E-3
397.353745E-3
397.274208E-3
397.172356E-3
397.174072E-3
397.186661E-3
397.207260E-3
397.146606E-3
397.120857E-3
397.053337E-3
397.032738E-3
396.942902E-3
396.936607E-3
396.891975E-3
396.762657E-3
396.744347E-3
396.695709E-3
396.639061E-3
396.572685E-3
396.569824E-3
396.599007E-3
396.520042E-3
396.680832E-3
397.080231E-3
397.609520E-3
398.170280E-3
398.770523E-3
399.319839E-3
399.758720E-3
400.097466E-3
400.288010E-3
400.323486E-3
400.325775E-3
400.253677E-3
400.134087E-3
399.995613E-3
399.892044E-3
399.842262E-3
399.663734E-3
399.655724E-3
399.621964E-3
399.584198E-3
399.667740E-3
399.801064E-3
399.743271E-3
399.853706E-3
399.826813E-3
399.722672E-3
399.621964E-3
399.409103E-3
399.288940E-3
399.192238E-3
399.175072E-3
399.177933E-3
399.048615E-3
399.036598E-3
399.102402E-3
399.083519E-3
399.160194E-3
399.172211E-3
399.199677E-3
399.163055E-3
399.238586E-3
399.145317E-3
399.168777E-3
399.010849E-3
398.894119E-3
398.903847E-3
398.814583E-3
398.736191E-3
398.579979E-3
398.551369E-3
398.542213E-3
398.482132E-3
398.406029E-3
398.331070E-3
398.156548E-3
398.086166E-3
398.048973E-3
397.979164E-3
397.899055E-3
397.829247E-3
397.758865E-3
397.696495E-3
397.584915E-3
397.539139E-3
397.465897E-3
397.416115E-3
397.384644E-3
397.375488E-3
397.237587E-3
397.197533E-3
397.105980E-3
397.107697E-3
397.009850E-3
396.998405E-3
396.929741E-3
396.948624E-3
396.870804E-3
396.800423E-3
396.842194E-3
396.774101E-3
396.693420E-3
396.656799E-3
396.526337E-3
396.458244E-3
396.409607E-3
396.390724E-3
396.288300E-3
396.194458E-3
396.183014E-3
396.209335E-3
396.347237E-3
396.761513E-3
397.202682E-3
397.838402E-3
398.331642E-3
398.780251E-3
399.246025E-3
399.573898E-3
399.752998E-3
399.762726E-3
399.726677E-3
399.724960E-3
399.545288E-3
399.512672E-3
399.324989E-3
399.106407E-3
398.970222E-3
398.822594E-3
398.895264E-3
398.941040E-3
398.900414E-3
399.014282E-3
399.080658E-3
399.105263E-3
399.078369E-3
398.908424E-3
398.707581E-3
398.580551E-3
398.527336E-3
398.499870E-3
398.491859E-3
398.479271E-3
398.437500E-3
398.420334E-3
398.447800E-3
398.451805E-3
398.502731E-3
398.513603E-3
398.613739E-3
398.551941E-3
398.459816E-3
398.483849E-3
398.347664E-3
398.312187E-3
398.218918E-3
398.150826E-3
398.088455E-3
397.895622E-3
397.853851E-3
397.816658E-3
397.741699E-3
397.747993E-3
397.623825E-3
397.559166E-3
397.516823E-3
397.495651E-3
397.381210E-3
397.321129E-3
397.234154E-3
397.208977E-3
397.117424E-3
397.074509E-3
396.970367E-3
396.868515E-3
396.795273E-3
396.823883E-3
396.782112E-3
396.793556E-3
396.713448E-3
396.752930E-3
396.558380E-3
396.608162E-3
396.556664E-3
396.574974E-3
396.467400E-3
396.454239E-3
396.487999E-3
396.418762E-3
396.368980E-3
396.343231E-3
396.261406E-3
396.242523E-3
396.163559E-3
396.104050E-3
395.993042E-3
395.910645E-3
395.881462E-3
395.903206E-3
395.859146E-3
395.834541E-3
395.887756E-3
396.321487E-3
396.763802E-3
397.265053E-3
397.882462E-3
398.428345E-3
398.962212E-3
399.258041E-3
399.583626E-3
399.747849E-3
399.717522E-3
399.773598E-3
399.668884E-3
399.587631E-3
399.454880E-3
399.291801E-3
399.145889E-3
399.088669E-3
399.160767E-3
399.101257E-3
399.139595E-3
399.241447E-3
399.309540E-3
399.258041E-3
399.267769E-3
399.274635E-3
399.219704E-3
399.002838E-3
398.935318E-3
398.847771E-3
398.722458E-3
398.695564E-3
398.650360E-3
398.630905E-3
398.678398E-3
398.656082E-3
398.644638E-3
398.626328E-3
398.708725E-3
398.743629E-3
398.709869E-3
398.727036E-3
398.701859E-3
398.598289E-3
398.572540E-3
398.454094E-3
398.368263E-3
398.311043E-3
398.208618E-3
398.115349E-3
398.087883E-3
397.979164E-3
397.980309E-3
397.872162E-3
397.744560E-3
397.589493E-3
397.455597E-3
397.472191E-3
397.433281E-3
397.355461E-3
397.234726E-3
397.362328E-3
397.127724E-3
397.083664E-3
397.032166E-3
396.911430E-3
396.838760E-3
396.795845E-3
396.704865E-3
396.694565E-3
396.609879E-3
396.581268E-3
396.576691E-3
396.475983E-3
396.412468E-3
396.358681E-3
396.359825E-3
396.340370E-3
396.272278E-3
396.273422E-3
396.213341E-3
396.246529E-3
396.241951E-3
396.164703E-3
396.109200E-3
396.022224E-3
396.027374E-3
395.942116E-3
395.865440E-3
395.954132E-3
395.843697E-3
395.795059E-3
395.773888E-3
395.792770E-3
395.965576E-3
396.386147E-3
396.945763E-3
397.425270E-3
398.020935E-3
398.605728E-3
399.058914E-3
399.457169E-3
399.675751E-3
399.691200E-3
399.767876E-3
399.670029E-3
399.564743E-3
399.400520E-3
399.221992E-3
399.104118E-3
399.029732E-3
398.991394E-3
398.991394E-3
399.064636E-3
399.167633E-3
399.171638E-3
399.216843E-3
399.241447E-3
399.155617E-3
399.132156E-3
399.017143E-3
398.898697E-3
398.741341E-3
398.642349E-3
398.602295E-3
398.625755E-3
398.563385E-3
398.487282E-3
398.594856E-3
398.614883E-3
398.578262E-3
398.696136E-3
398.746490E-3
398.743057E-3
398.682976E-3
398.522758E-3
398.600578E-3
398.487854E-3
398.441505E-3
398.349953E-3
398.184586E-3
398.133087E-3
398.040390E-3
398.093605E-3
398.047256E-3
397.893333E-3
397.868729E-3
397.773743E-3
397.709656E-3
397.671318E-3
397.490501E-3
397.440720E-3
397.427559E-3
397.332001E-3
397.218132E-3
397.080231E-3
397.097969E-3
396.997833E-3
396.929169E-3
396.902275E-3
396.764946E-3
396.740913E-3
396.693420E-3
396.695137E-3
396.647644E-3
396.516037E-3
396.520615E-3
396.450806E-3
396.453667E-3
396.453094E-3
396.354103E-3
396.270561E-3
396.252823E-3
396.192169E-3
396.196747E-3
396.063995E-3
396.085739E-3
396.041679E-3
395.925522E-3
395.914650E-3
395.813942E-3
395.767593E-3
395.757294E-3
395.650864E-3
395.616531E-3
395.626259E-3
395.706940E-3
396.198463E-3
396.726608E-3
397.346306E-3
397.815514E-3
398.362541E-3
398.834038E-3
399.158478E-3
399.323273E-3
399.258614E-3
399.301529E-3
399.177361E-3
399.020576E-3
398.874664E-3
398.753929E-3
398.652649E-3
398.423195E-3
398.333931E-3
398.287010E-3
398.247528E-3
398.224640E-3
398.268700E-3
398.280144E-3
398.341942E-3
398.141670E-3
398.083305E-3
398.012352E-3
397.918510E-3
397.795486E-3
397.695351E-3
397.705078E-3
397.712517E-3
397.669601E-3
397.667313E-3
397.666740E-3
397.741127E-3
397.774887E-3
397.765732E-3
397.762871E-3
397.750282E-3
397.689056E-3
397.651863E-3
397.575760E-3
397.495651E-3
397.384644E-3
397.299385E-3
397.302246E-3
397.179794E-3
397.096825E-3
397.115707E-3
396.949196E-3
396.847916E-3
396.732330E-3
396.655083E-3
396.645927E-3
396.570396E-3
396.492577E-3
396.421623E-3
396.344948E-3
396.295738E-3
396.214485E-3
396.115494E-3
396.077728E-3
396.045685E-3
395.907211E-3
395.837975E-3
395.783615E-3
395.698929E-3
395.725822E-3
395.676613E-3
395.616531E-3
395.523834E-3
395.484352E-3
395.463181E-3
395.474625E-3
395.381927E-3
395.340729E-3
395.289803E-3
395.278358E-3
395.256615E-3
395.155907E-3
395.092392E-3
395.071793E-3
395.042610E-3
394.929886E-3
394.913864E-3
394.816589E-3
394.741631E-3
394.783401E-3
394.703293E-3
394.817734E-3
395.154762E-3
395.657730E-3
396.219635E-3
396.893120E-3
397.332573E-3
397.833252E-3
398.221207E-3
398.463249E-3
398.610878E-3
398.547935E-3
398.551941E-3
398.499298E-3
398.330498E-3
398.258400E-3
398.037529E-3
397.900772E-3
397.787476E-3
397.829247E-3
397.794342E-3
397.709656E-3
397.835541E-3
397.916222E-3
397.952843E-3
397.960281E-3
397.838402E-3
397.805214E-3
397.662735E-3
397.610664E-3
397.625542E-3
397.525406E-3
397.496223E-3
397.390366E-3
397.411537E-3
397.355461E-3
397.385788E-3
397.456741E-3
397.461319E-3
397.517967E-3
397.472191E-3
397.464180E-3
397.422409E-3
397.342300E-3
397.303391E-3
397.259903E-3
397.196388E-3
397.098541E-3
397.029305E-3
396.928596E-3
396.845055E-3
396.773529E-3
396.668243E-3
396.662521E-3
396.597290E-3
396.520615E-3
396.411896E-3
396.326065E-3
396.295166E-3
396.149826E-3
396.052551E-3
396.037102E-3
396.065140E-3
395.956421E-3
395.828247E-3
395.750427E-3
395.736122E-3
395.717812E-3
395.638275E-3
395.589066E-3
395.538139E-3
395.520401E-3
395.506668E-3
395.450592E-3
395.321274E-3
395.339584E-3
395.237732E-3
395.302391E-3
395.199394E-3
395.181656E-3
395.086098E-3
395.057487E-3
394.937897E-3
394.928741E-3
394.937897E-3
394.893265E-3
394.873810E-3
394.800568E-3
394.741631E-3
394.630623E-3
394.567108E-3
394.450378E-3
394.438362E-3
394.396591E-3
394.490433E-3
394.790268E-3
395.233727E-3
395.858574E-3
396.419334E-3
396.900558E-3
397.339439E-3
397.843552E-3
398.178864E-3
398.392868E-3
398.480415E-3
398.535347E-3
398.472977E-3
398.364830E-3
398.171425E-3
398.002625E-3
397.869301E-3
397.709084E-3
397.719955E-3
397.767448E-3
397.770882E-3
397.905350E-3
397.974014E-3
398.035812E-3
398.034096E-3
398.026085E-3
397.841835E-3
397.742271E-3
397.709084E-3
397.643280E-3
397.550011E-3
397.494507E-3
397.426987E-3
397.456741E-3
397.421265E-3
397.393227E-3
397.398376E-3
397.430420E-3
397.472763E-3
397.505379E-3
397.619820E-3
397.551727E-3
397.476768E-3
397.445869E-3
397.355461E-3
397.273064E-3
397.212982E-3
397.165489E-3
397.124863E-3
396.990395E-3
396.902847E-3
396.897697E-3
396.840477E-3
396.719170E-3
396.691704E-3
396.624184E-3
396.595001E-3
396.529198E-3
396.480560E-3
396.491432E-3
396.410751E-3
396.473694E-3
396.360397E-3
396.312904E-3
396.253395E-3
396.225929E-3
396.232796E-3
396.157265E-3
396.186447E-3
396.065140E-3
396.019936E-3
396.099472E-3
396.012497E-3
395.945549E-3
