Notes :


2023-10-26 ¿ÀÈÄ 10:43:56
Volts
Ch : LED 2,
353.207016E-3
357.017899E-3
358.202362E-3
359.920692E-3
361.220169E-3
361.183548E-3
362.608337E-3
361.564636E-3
361.589241E-3
361.621857E-3
360.734367E-3
361.733437E-3
360.841942E-3
361.764336E-3
362.901306E-3
363.169098E-3
365.334892E-3
365.007019E-3
365.307999E-3
365.677643E-3
364.936066E-3
365.657043E-3
364.445686E-3
364.026833E-3
364.107513E-3
362.636375E-3
364.619064E-3
364.021111E-3
364.684296E-3
365.726280E-3
365.709114E-3
367.815399E-3
367.767906E-3
368.468857E-3
369.677925E-3
369.699097E-3
371.551323E-3
371.243477E-3
371.892357E-3
372.664833E-3
372.335243E-3
373.844147E-3
373.172951E-3
373.747444E-3
374.151993E-3
372.751236E-3
374.732780E-3
374.046707E-3
374.506187E-3
374.794579E-3
374.311638E-3
375.646591E-3
374.841499E-3
375.223160E-3
375.439453E-3
375.045776E-3
376.179886E-3
375.353050E-3
375.803947E-3
376.225090E-3
375.726128E-3
377.275085E-3
376.599884E-3
376.894569E-3
376.891136E-3
376.719475E-3
378.436661E-3
377.653885E-3
377.857018E-3
378.450394E-3
378.130531E-3
379.675484E-3
379.015160E-3
379.256630E-3
379.753876E-3
379.352188E-3
380.593872E-3
379.892921E-3
380.172729E-3
380.537224E-3
379.923820E-3
381.502533E-3
381.028748E-3
381.198692E-3
381.680489E-3
381.330299E-3
382.814026E-3
382.113647E-3
382.653809E-3
383.390808E-3
382.818604E-3
384.061432E-3
383.084106E-3
381.607246E-3
379.360771E-3
374.677277E-3
370.783424E-3
364.538383E-3
358.820343E-3
354.475594E-3
350.339699E-3
349.639320E-3
348.540115E-3
349.424171E-3
351.449203E-3
353.284836E-3
356.944084E-3
358.649826E-3
361.057663E-3
363.496399E-3
364.344406E-3
366.357422E-3
366.064453E-3
366.395760E-3
366.906166E-3
364.433098E-3
366.373444E-3
365.931702E-3
366.023827E-3
366.507912E-3
366.190338E-3
368.173599E-3
368.538666E-3
369.209862E-3
369.863319E-3
369.012451E-3
369.988060E-3
368.860245E-3
368.662834E-3
368.223381E-3
367.439461E-3
368.452835E-3
367.952728E-3
368.314934E-3
368.475723E-3
367.152214E-3
369.994926E-3
370.327950E-3
371.164513E-3
372.525787E-3
372.502327E-3
374.588013E-3
374.542809E-3
375.136185E-3
376.155853E-3
375.913811E-3
377.337456E-3
377.269363E-3
377.490234E-3
378.023529E-3
377.435875E-3
378.908157E-3
378.492737E-3
378.698158E-3
379.190254E-3
378.299904E-3
379.658318E-3
379.191399E-3
379.236031E-3
379.909515E-3
378.994560E-3
380.180740E-3
379.700089E-3
379.792213E-3
380.512619E-3
378.923035E-3
380.971527E-3
380.627632E-3
380.724907E-3
381.388092E-3
380.553246E-3
382.165146E-3
381.914520E-3
381.957436E-3
382.730484E-3
381.899643E-3
383.253479E-3
383.000565E-3
383.268356E-3
384.080887E-3
383.081245E-3
384.574127E-3
384.366989E-3
384.456825E-3
384.910011E-3
383.842850E-3
385.286522E-3
384.986687E-3
385.068512E-3
385.403824E-3
384.537506E-3
386.020088E-3
385.796356E-3
386.204338E-3
386.517906E-3
385.851288E-3
387.470055E-3
387.253189E-3
387.210274E-3
387.778473E-3
386.911011E-3
388.027954E-3
386.572266E-3
384.347534E-3
381.278801E-3
375.449753E-3
371.236038E-3
365.516281E-3
360.463715E-3
357.443047E-3
354.460144E-3
355.159378E-3
355.621719E-3
357.222176E-3
359.647179E-3
361.392975E-3
365.258789E-3
367.332458E-3
369.283104E-3
371.293831E-3
371.722412E-3
373.761177E-3
373.752022E-3
373.916817E-3
374.103928E-3
372.649384E-3
374.039268E-3
373.675346E-3
373.391533E-3
374.394035E-3
374.040413E-3
375.615692E-3
375.508690E-3
375.292397E-3
375.107574E-3
373.421860E-3
374.102783E-3
372.895432E-3
372.097778E-3
372.096634E-3
370.915604E-3
372.223091E-3
372.073746E-3
372.329521E-3
373.198128E-3
372.867393E-3
374.852943E-3
375.157928E-3
375.952721E-3
377.021027E-3
376.572418E-3
378.610611E-3
378.691292E-3
378.853226E-3
379.914093E-3
379.262352E-3
380.926895E-3
380.881691E-3
380.659103E-3
381.208420E-3
380.427361E-3
381.802368E-3
381.643867E-3
381.233025E-3
381.793213E-3
380.883408E-3
381.940842E-3
381.701660E-3
381.345749E-3
381.984901E-3
381.220436E-3
382.696724E-3
382.521629E-3
382.022667E-3
382.561111E-3
381.964874E-3
383.393669E-3
383.160782E-3
382.831192E-3
383.481789E-3
383.086967E-3
384.545517E-3
384.244537E-3
383.842278E-3
384.668541E-3
383.977318E-3
385.459900E-3
385.195541E-3
385.039902E-3
385.701942E-3
384.928894E-3
386.356544E-3
385.886765E-3
385.294533E-3
386.307907E-3
385.857010E-3
387.240601E-3
386.928177E-3
386.662102E-3
387.373352E-3
387.113571E-3
388.433075E-3
388.329506E-3
387.927246E-3
388.504028E-3
388.050842E-3
388.570976E-3
386.531639E-3
383.222008E-3
379.627419E-3
373.978615E-3
369.873047E-3
364.508057E-3
359.569931E-3
357.286263E-3
355.289841E-3
356.390762E-3
357.148933E-3
358.258438E-3
361.228752E-3
363.449478E-3
366.934204E-3
368.892860E-3
370.223808E-3
372.259140E-3
372.793579E-3
374.602890E-3
374.466133E-3
374.138260E-3
374.649239E-3
374.000931E-3
375.164223E-3
374.840355E-3
374.561119E-3
375.613976E-3
375.352478E-3
376.886559E-3
376.451111E-3
375.408554E-3
375.710106E-3
374.742508E-3
375.015450E-3
374.401474E-3
372.821617E-3
373.368073E-3
372.694016E-3
373.646736E-3
373.527718E-3
373.493958E-3
374.436951E-3
374.546814E-3
376.130104E-3
376.750374E-3
376.923180E-3
378.208351E-3
378.394890E-3
379.928398E-3
380.213356E-3
380.152130E-3
381.171799E-3
380.968666E-3
382.286453E-3
382.364273E-3
382.076454E-3
382.722473E-3
382.174873E-3
383.254051E-3
383.011436E-3
382.392311E-3
383.145905E-3
382.644081E-3
383.559036E-3
383.379364E-3
382.003212E-3
382.808304E-3
382.607460E-3
383.634567E-3
383.502960E-3
382.789993E-3
383.557320E-3
383.082962E-3
384.240532E-3
383.921814E-3
383.708382E-3
384.639359E-3
383.978462E-3
385.025597E-3
385.033035E-3
384.736061E-3
385.484505E-3
385.257339E-3
386.286736E-3
386.141396E-3
385.937691E-3
386.617470E-3
386.132240E-3
387.179375E-3
387.130737E-3
386.442375E-3
387.056351E-3
386.766815E-3
387.742996E-3
387.684059E-3
387.293243E-3
388.146973E-3
387.700081E-3
388.764381E-3
388.929176E-3
387.836266E-3
389.134026E-3
389.017868E-3
389.761162E-3
389.547729E-3
387.791634E-3
385.601234E-3
381.249046E-3
377.532578E-3
372.153854E-3
366.380310E-3
362.172890E-3
358.668137E-3
358.063316E-3
357.505989E-3
357.629013E-3
359.824562E-3
361.315727E-3
364.965820E-3
367.291260E-3
369.063377E-3
371.686363E-3
372.756958E-3
374.936485E-3
375.690079E-3
375.725555E-3
376.572418E-3
375.826836E-3
376.763535E-3
376.300621E-3
375.621414E-3
376.551247E-3
376.460266E-3
377.898216E-3
377.870750E-3
377.298546E-3
377.873611E-3
376.802444E-3
377.091408E-3
376.169586E-3
374.894142E-3
374.935913E-3
374.090767E-3
374.991417E-3
374.815178E-3
374.349403E-3
375.256348E-3
375.196838E-3
376.572990E-3
377.253914E-3
377.293968E-3
378.763390E-3
378.840637E-3
380.474854E-3
381.004143E-3
380.711174E-3
382.089615E-3
381.728554E-3
383.046341E-3
383.446884E-3
382.989693E-3
383.892059E-3
383.473206E-3
384.428215E-3
384.601021E-3
383.054924E-3
384.257126E-3
383.927536E-3
384.885979E-3
384.781837E-3
384.029961E-3
384.802437E-3
384.246826E-3
385.048485E-3
385.025024E-3
384.150696E-3
385.082245E-3
384.578705E-3
385.255623E-3
385.280800E-3
384.696579E-3
385.594940E-3
385.186958E-3
386.113358E-3
386.044693E-3
385.466194E-3
386.137962E-3
386.119080E-3
386.973381E-3
387.086678E-3
386.583710E-3
387.538719E-3
387.083817E-3
388.055420E-3
388.105774E-3
387.372208E-3
388.275146E-3
387.781906E-3
388.787842E-3
388.724327E-3
388.276291E-3
389.628410E-3
389.052200E-3
390.110779E-3
390.106773E-3
389.524841E-3
390.617180E-3
390.067291E-3
390.696716E-3
389.861870E-3
386.928749E-3
385.298538E-3
380.700874E-3
376.617050E-3
371.380234E-3
366.185188E-3
363.960457E-3
361.111450E-3
360.800171E-3
361.257362E-3
361.817551E-3
365.159798E-3
366.538811E-3
369.926262E-3
372.240257E-3
373.538017E-3
376.549530E-3
377.091980E-3
378.841209E-3
379.446602E-3
379.019165E-3
380.569267E-3
379.652023E-3
380.251122E-3
380.367279E-3
379.910660E-3
381.613541E-3
380.942917E-3
381.569481E-3
381.085968E-3
378.954506E-3
380.163574E-3
378.483582E-3
378.001785E-3
377.190971E-3
375.850296E-3
376.542664E-3
375.343895E-3
375.821114E-3
375.873756E-3
375.707817E-3
378.008080E-3
377.684212E-3
378.893852E-3
379.290390E-3
379.421997E-3
381.546021E-3
381.329727E-3
382.356262E-3
382.785416E-3
382.787132E-3
384.551811E-3
383.916092E-3
384.630203E-3
384.939766E-3
384.497452E-3
385.901642E-3
384.956932E-3
385.389519E-3
385.431862E-3
384.721756E-3
386.092186E-3
384.919739E-3
385.411263E-3
385.450172E-3
384.782410E-3
386.082458E-3
384.867668E-3
385.445595E-3
385.483360E-3
384.839630E-3
386.259270E-3
385.247612E-3
385.771751E-3
386.010933E-3
385.152054E-3
386.785698E-3
385.856438E-3
386.538506E-3
387.008858E-3
386.347961E-3
387.793922E-3
386.849785E-3
387.402534E-3
387.486649E-3
386.421204E-3
388.420486E-3
387.678337E-3
388.062286E-3
388.447952E-3
388.112068E-3
389.735985E-3
388.803291E-3
389.266205E-3
389.813805E-3
389.477348E-3
391.100693E-3
390.105057E-3
390.105629E-3
389.262199E-3
386.587143E-3
384.568405E-3
378.840065E-3
374.036407E-3
369.060516E-3
363.967896E-3
362.168884E-3
359.124756E-3
358.864975E-3
359.640312E-3
360.570145E-3
363.980484E-3
365.004730E-3
367.553329E-3
370.159721E-3
371.622276E-3
374.807167E-3
374.806595E-3
376.149559E-3
376.833344E-3
376.400185E-3
377.856445E-3
376.561546E-3
376.617050E-3
376.897430E-3
376.702881E-3
378.305626E-3
377.645874E-3
378.044128E-3
378.303337E-3
377.528572E-3
378.218079E-3
376.492882E-3
375.969315E-3
375.668335E-3
373.539162E-3
375.082970E-3
373.874474E-3
374.233246E-3
374.833488E-3
374.548531E-3
376.266289E-3
375.798798E-3
376.750374E-3
377.732849E-3
377.858162E-3
379.823685E-3
379.511833E-3
380.301476E-3
381.034470E-3
381.088257E-3
382.695580E-3
381.788063E-3
382.581139E-3
382.967949E-3
382.609177E-3
383.929825E-3
382.819748E-3
382.921600E-3
383.046341E-3
382.702446E-3
384.168434E-3
382.713318E-3
383.160210E-3
383.433723E-3
382.810020E-3
384.011078E-3
382.961655E-3
383.137321E-3
383.285522E-3
383.088112E-3
384.365273E-3
383.291817E-3
383.700371E-3
383.794212E-3
383.622551E-3
384.920311E-3
384.038544E-3
384.376144E-3
384.831047E-3
384.452820E-3
385.846710E-3
384.874535E-3
385.320282E-3
385.430717E-3
383.950996E-3
386.314774E-3
385.468483E-3
386.243248E-3
386.659813E-3
386.269569E-3
387.634850E-3
386.858940E-3
387.339592E-3
387.992477E-3
387.656021E-3
389.119148E-3
388.199615E-3
388.335800E-3
387.610245E-3
385.150337E-3
382.892418E-3
377.417564E-3
372.702026E-3
368.235397E-3
363.274956E-3
361.141777E-3
357.982063E-3
357.957458E-3
358.942795E-3
359.614563E-3
362.694740E-3
364.018822E-3
366.770554E-3
369.347763E-3
370.733070E-3
373.310852E-3
373.417282E-3
374.527359E-3
375.156784E-3
374.847794E-3
376.015663E-3
374.878693E-3
375.010872E-3
375.339890E-3
375.370216E-3
377.086830E-3
376.428795E-3
376.857948E-3
376.829338E-3
375.984764E-3
376.645088E-3
374.983406E-3
374.598312E-3
374.249840E-3
373.222160E-3
373.860741E-3
372.867966E-3
373.315430E-3
373.867607E-3
373.884773E-3
375.486374E-3
375.115585E-3
376.043701E-3
376.989555E-3
377.438164E-3
379.117584E-3
378.845787E-3
379.591942E-3
380.441093E-3
380.554390E-3
381.929398E-3
381.303978E-3
381.477356E-3
381.830406E-3
381.489372E-3
382.791710E-3
381.873322E-3
381.946564E-3
382.485008E-3
381.946564E-3
382.987404E-3
382.127380E-3
382.439804E-3
382.707596E-3
380.887985E-3
382.938766E-3
382.316780E-3
382.385445E-3
382.667542E-3
382.403755E-3
383.712387E-3
382.919312E-3
383.248329E-3
383.667183E-3
383.263779E-3
384.486008E-3
383.604813E-3
384.238815E-3
384.334946E-3
384.075737E-3
385.240746E-3
384.503746E-3
384.947777E-3
385.342598E-3
385.074234E-3
386.350822E-3
385.426140E-3
385.947418E-3
386.417198E-3
386.151123E-3
387.487793E-3
386.774254E-3
387.046623E-3
387.679482E-3
387.272644E-3
388.754654E-3
387.896919E-3
387.656593E-3
387.090111E-3
384.683990E-3
382.896423E-3
377.688789E-3
372.953796E-3
368.558693E-3
363.895798E-3
362.279892E-3
359.846878E-3
359.583664E-3
360.517502E-3
361.476517E-3
364.815331E-3
366.174316E-3
368.812180E-3
371.103859E-3
372.295761E-3
375.133896E-3
375.368500E-3
376.029968E-3
376.498604E-3
374.999428E-3
377.114868E-3
376.433945E-3
376.808739E-3
377.188683E-3
377.018738E-3
378.646088E-3
377.680779E-3
377.648163E-3
377.469063E-3
376.154709E-3
376.377296E-3
374.764252E-3
373.763466E-3
373.750877E-3
372.360992E-3
373.616409E-3
372.941780E-3
373.379517E-3
373.949432E-3
374.089050E-3
375.916672E-3
375.828552E-3
376.623344E-3
377.791214E-3
377.809525E-3
379.612541E-3
379.449463E-3
379.944992E-3
380.513191E-3
380.263710E-3
381.772614E-3
381.457329E-3
381.580925E-3
382.058144E-3
381.544876E-3
382.426643E-3
381.794930E-3
381.920815E-3
382.139397E-3
381.237602E-3
382.481575E-3
381.804085E-3
381.719971E-3
382.152557E-3
381.416702E-3
382.529640E-3
381.889343E-3
382.088470E-3
382.512474E-3
381.633568E-3
382.995987E-3
382.585716E-3
382.616615E-3
383.126450E-3
382.406616E-3
383.609390E-3
383.285522E-3
383.453178E-3
383.816528E-3
383.094406E-3
384.433937E-3
383.912659E-3
384.314919E-3
384.899139E-3
384.178734E-3
385.613823E-3
385.370636E-3
385.773468E-3
386.521339E-3
385.776901E-3
387.308121E-3
387.100983E-3
387.090683E-3
387.257767E-3
385.626411E-3
385.473633E-3
382.542801E-3
378.693008E-3
374.617767E-3
368.583298E-3
365.402412E-3
361.388397E-3
358.796310E-3
358.022118E-3
357.079124E-3
359.462929E-3
360.778999E-3
362.876129E-3
365.313148E-3
366.513062E-3
369.710541E-3
370.805740E-3
372.079468E-3
373.311996E-3
372.697449E-3
374.135971E-3
373.432159E-3
373.120308E-3
373.221588E-3
372.240829E-3
373.883629E-3
373.947716E-3
374.502182E-3
375.339317E-3
374.348831E-3
375.389671E-3
374.435234E-3
373.825264E-3
373.559761E-3
371.620560E-3
372.780418E-3
372.168732E-3
371.591949E-3
372.151566E-3
371.539879E-3
373.210144E-3
373.510551E-3
373.967743E-3
374.919319E-3
374.783134E-3
376.765251E-3
376.971817E-3
377.556610E-3
378.374290E-3
377.650452E-3
379.510117E-3
379.470062E-3
379.820251E-3
380.184746E-3
379.220009E-3
380.895424E-3
380.457687E-3
380.162430E-3
380.694008E-3
379.619408E-3
380.972672E-3
380.652237E-3
380.384445E-3
380.771828E-3
379.916954E-3
381.232452E-3
381.050491E-3
380.619621E-3
381.290817E-3
380.235672E-3
381.693649E-3
381.365204E-3
381.083107E-3
381.661034E-3
381.044769E-3
382.574844E-3
382.310486E-3
382.003212E-3
382.625198E-3
381.923103E-3
383.413696E-3
383.270073E-3
382.764244E-3
383.330154E-3
382.729912E-3
384.341812E-3
384.264565E-3
383.556747E-3
384.255981E-3
383.746147E-3
385.402107E-3
385.170937E-3
384.925461E-3
385.698509E-3
385.320854E-3
386.832047E-3
386.579132E-3
385.919952E-3
385.700798E-3
383.443451E-3
381.923103E-3
377.881050E-3
372.612762E-3
368.348694E-3
363.322449E-3
360.940933E-3
358.253288E-3
357.106018E-3
357.678795E-3
358.116531E-3
