Notes :


2023-11-13 ¿ÀÀü 12:13:58
Volts
Ch : LED 2,
987.910080E-3
987.656593E-3
987.617111E-3
987.392807E-3
987.366486E-3
987.176514E-3
986.917305E-3
986.752510E-3
987.314415E-3
986.612892E-3
986.293030E-3
986.072731E-3
985.907936E-3
985.446167E-3
985.527420E-3
985.415268E-3
985.308838E-3
984.582138E-3
984.689713E-3
984.756088E-3
984.598160E-3
984.404755E-3
984.223938E-3
984.027672E-3
983.660889E-3
983.462906E-3
982.622910E-3
982.714462E-3
982.333374E-3
982.356262E-3
982.479286E-3
982.760239E-3
983.688354E-3
985.347748E-3
987.446022E-3
990.210342E-3
992.567253E-3
995.023155E-3
996.945763E-3
998.455238E-3
999.434280E-3
999.807358E-3
1.000014E+0
999.767876E-3
999.352455E-3
998.678970E-3
997.935677E-3
997.640991E-3
997.088242E-3
996.815300E-3
996.641350E-3
996.912003E-3
996.811295E-3
996.827888E-3
997.005272E-3
997.115707E-3
997.272491E-3
997.261047E-3
997.242737E-3
996.641922E-3
996.170998E-3
995.266914E-3
994.532776E-3
993.939972E-3
993.625259E-3
993.398094E-3
993.380356E-3
993.596649E-3
993.735695E-3
993.534851E-3
993.770599E-3
993.624115E-3
993.668747E-3
993.651581E-3
993.261337E-3
993.088531E-3
992.733765E-3
992.564392E-3
992.738342E-3
992.193604E-3
991.607666E-3
991.295242E-3
991.034889E-3
990.806007E-3
990.484428E-3
990.340805E-3
989.996910E-3
989.990616E-3
989.782906E-3
989.566612E-3
989.535141E-3
989.231300E-3
989.203262E-3
989.044189E-3
988.721466E-3
988.591003E-3
987.987328E-3
988.010216E-3
987.838554E-3
987.544441E-3
987.448883E-3
987.085533E-3
986.829185E-3
986.524773E-3
986.410332E-3
986.319351E-3
986.072731E-3
986.104774E-3
985.796356E-3
985.700226E-3
985.703087E-3
985.374641E-3
986.371422E-3
985.561752E-3
985.121727E-3
984.894562E-3
984.584999E-3
984.447670E-3
984.237671E-3
983.819962E-3
983.673477E-3
984.150124E-3
983.939552E-3
983.756447E-3
983.925819E-3
984.330368E-3
985.277939E-3
987.012863E-3
989.098549E-3
991.395378E-3
993.200111E-3
995.706367E-3
997.681046E-3
998.888397E-3
999.593925E-3
999.837112E-3
999.609375E-3
999.167633E-3
998.556519E-3
996.599579E-3
996.738625E-3
996.313477E-3
995.856857E-3
995.570755E-3
995.396805E-3
995.454025E-3
995.361900E-3
995.360756E-3
994.860077E-3
995.237160E-3
995.399094E-3
995.161057E-3
994.739342E-3
994.130516E-3
993.337440E-3
992.294884E-3
992.114639E-3
991.991615E-3
992.059708E-3
992.040253E-3
992.335510E-3
992.450523E-3
992.506027E-3
992.760658E-3
993.181229E-3
992.928314E-3
992.733765E-3
992.504883E-3
992.184448E-3
991.737556E-3
991.650581E-3
991.353035E-3
991.152191E-3
990.349388E-3
990.458679E-3
990.325356E-3
990.111923E-3
989.981461E-3
989.909363E-3
989.621544E-3
989.443588E-3
989.215851E-3
989.631844E-3
989.191818E-3
988.864517E-3
988.746643E-3
988.405609E-3
988.194466E-3
988.082886E-3
987.951851E-3
987.923241E-3
987.024879E-3
987.376213E-3
987.464333E-3
987.372208E-3
987.395096E-3
987.368202E-3
987.129021E-3
987.030029E-3
986.844063E-3
986.911011E-3
986.800575E-3
986.583710E-3
986.462975E-3
986.384010E-3
986.290169E-3
986.053276E-3
985.923386E-3
985.817528E-3
985.647583E-3
985.573769E-3
985.176086E-3
984.892845E-3
984.749222E-3
984.584427E-3
984.640503E-3
984.784126E-3
985.668182E-3
987.234879E-3
989.338875E-3
991.976166E-3
994.623756E-3
997.182083E-3
999.275208E-3
1.000840E+0
1.001806E+0
1.002185E+0
1.002204E+0
1.002017E+0
1.001463E+0
1.000893E+0
1.000140E+0
999.646568E-3
999.311829E-3
998.771095E-3
998.867226E-3
998.750496E-3
998.735619E-3
998.852921E-3
999.030304E-3
999.327850E-3
999.322701E-3
999.308395E-3
999.839401E-3
999.005127E-3
998.240662E-3
997.394371E-3
996.636772E-3
996.024513E-3
995.447731E-3
995.480347E-3
995.354462E-3
995.511246E-3
995.745850E-3
995.860291E-3
996.139526E-3
996.187592E-3
996.107483E-3
996.134949E-3
995.686340E-3
995.737839E-3
995.428848E-3
995.241165E-3
994.817162E-3
994.349098E-3
994.212914E-3
993.809509E-3
993.505096E-3
992.578125E-3
992.696571E-3
992.716026E-3
992.611885E-3
992.385292E-3
992.104340E-3
991.887474E-3
991.595078E-3
991.480064E-3
990.596581E-3
990.666962E-3
990.446091E-3
990.268707E-3
990.092468E-3
989.983749E-3
989.875031E-3
989.589500E-3
989.412689E-3
989.457893E-3
989.214134E-3
988.925743E-3
988.821602E-3
988.702011E-3
988.930893E-3
988.832474E-3
988.728333E-3
988.391304E-3
988.547516E-3
988.473701E-3
988.372993E-3
988.570976E-3
988.140106E-3
988.256836E-3
988.226509E-3
988.276863E-3
988.191032E-3
987.887192E-3
987.697792E-3
987.268639E-3
986.924744E-3
986.834908E-3
986.406898E-3
985.618401E-3
985.846138E-3
986.342812E-3
986.947632E-3
988.186455E-3
990.415192E-3
992.856216E-3
995.417976E-3
997.998619E-3
999.972725E-3
1.001125E+0
1.002258E+0
1.002714E+0
1.002784E+0
1.002303E+0
1.001843E+0
1.001315E+0
1.000476E+0
999.952698E-3
999.387932E-3
999.143600E-3
998.866081E-3
998.851204E-3
998.892403E-3
998.838043E-3
999.097824E-3
999.115562E-3
999.141312E-3
998.735046E-3
998.727036E-3
998.373985E-3
997.770309E-3
996.980667E-3
996.521187E-3
995.857430E-3
995.549011E-3
995.454597E-3
995.475197E-3
995.618820E-3
995.718956E-3
996.070290E-3
996.065712E-3
996.092606E-3
996.081734E-3
995.744705E-3
995.569611E-3
995.431137E-3
995.313835E-3
995.121002E-3
994.674683E-3
994.493866E-3
994.259262E-3
993.942833E-3
993.734550E-3
993.486214E-3
993.319130E-3
993.132019E-3
992.869949E-3
992.742348E-3
992.519188E-3
992.294312E-3
992.036819E-3
991.198540E-3
991.731834E-3
991.533852E-3
991.502380E-3
991.417694E-3
991.138458E-3
991.177368E-3
990.925598E-3
990.739632E-3
990.885544E-3
990.442657E-3
990.321922E-3
990.078735E-3
990.044975E-3
989.735985E-3
989.689636E-3
989.580917E-3
989.304543E-3
989.859009E-3
989.405251E-3
988.975525E-3
989.033318E-3
988.893127E-3
988.786125E-3
988.597298E-3
988.588142E-3
988.473701E-3
988.020515E-3
987.757874E-3
987.411690E-3
986.997986E-3
986.703300E-3
986.386871E-3
986.218643E-3
986.089897E-3
985.814667E-3
986.163712E-3
986.219788E-3
987.070084E-3
988.574982E-3
990.563965E-3
993.127441E-3
995.587921E-3
997.223854E-3
999.762154E-3
1.001225E+0
1.002082E+0
1.002367E+0
1.002204E+0
1.001698E+0
1.001008E+0
1.000507E+0
999.987030E-3
999.258041E-3
998.508453E-3
998.004913E-3
997.864151E-3
997.347450E-3
997.637558E-3
997.820663E-3
997.670174E-3
997.849846E-3
997.749710E-3
997.560310E-3
997.070503E-3
996.480560E-3
995.779610E-3
995.320129E-3
994.885826E-3
994.699287E-3
994.223785E-3
994.875526E-3
995.209122E-3
995.671463E-3
996.078300E-3
996.445656E-3
996.520042E-3
996.421051E-3
996.306038E-3
996.380997E-3
995.612526E-3
995.292091E-3
994.755363E-3
994.505882E-3
994.310760E-3
993.851852E-3
993.612671E-3
993.177795E-3
993.075371E-3
992.671394E-3
992.554092E-3
992.389870E-3
992.164421E-3
991.961861E-3
991.784477E-3
992.646790E-3
991.854286E-3
991.358185E-3
991.224861E-3
990.983963E-3
990.773392E-3
990.610313E-3
990.422630E-3
990.325356E-3
990.189171E-3
989.906502E-3
989.721107E-3
989.309692E-3
989.060783E-3
988.942909E-3
988.651085E-3
988.701439E-3
988.486862E-3
987.892342E-3
988.362122E-3
988.401604E-3
988.611031E-3
988.484001E-3
988.510323E-3
988.477135E-3
988.554382E-3
988.575554E-3
988.467979E-3
988.239098E-3
988.151550E-3
987.855721E-3
987.610245E-3
987.405396E-3
987.431717E-3
987.693787E-3
987.889481E-3
989.365768E-3
990.676689E-3
992.758369E-3
995.306396E-3
997.785187E-3
1.000238E+0
1.002230E+0
1.003624E+0
1.004598E+0
1.004985E+0
1.004843E+0
1.004299E+0
1.003734E+0
1.003097E+0
1.002225E+0
1.001672E+0
1.001232E+0
1.000860E+0
1.000958E+0
1.000628E+0
1.000597E+0
1.000512E+0
1.000628E+0
1.000851E+0
1.000690E+0
1.000759E+0
1.000326E+0
999.684334E-3
999.106407E-3
998.138237E-3
997.329712E-3
996.683693E-3
996.513176E-3
996.455383E-3
996.619606E-3
996.827888E-3
996.974945E-3
997.200966E-3
997.508812E-3
997.579765E-3
997.611237E-3
997.579193E-3
997.346306E-3
997.172356E-3
996.863937E-3
996.873093E-3
996.556091E-3
996.315193E-3
996.166992E-3
995.806503E-3
995.607376E-3
995.333862E-3
994.936752E-3
994.887543E-3
994.484711E-3
994.404030E-3
994.204330E-3
993.998337E-3
993.599510E-3
993.283081E-3
992.972946E-3
992.732620E-3
992.611885E-3
992.381859E-3
992.158699E-3
992.044830E-3
991.822815E-3
991.639137E-3
991.533852E-3
991.414833E-3
991.048050E-3
991.123581E-3
990.931892E-3
990.842628E-3
990.679550E-3
990.684128E-3
990.586853E-3
990.567398E-3
990.445518E-3
990.451813E-3
990.458679E-3
990.293884E-3
990.212631E-3
990.051842E-3
989.887047E-3
989.719391E-3
989.422417E-3
989.013290E-3
988.954926E-3
988.580704E-3
988.471985E-3
988.296890E-3
988.057709E-3
987.845993E-3
987.554741E-3
987.785912E-3
988.051414E-3
988.933754E-3
990.842628E-3
993.110275E-3
995.890045E-3
998.582268E-3
1.000945E+0
1.003037E+0
1.004232E+0
1.005014E+0
1.005095E+0
1.004883E+0
1.004475E+0
1.003746E+0
1.003290E+0
1.002545E+0
1.001746E+0
1.001515E+0
1.001058E+0
1.000936E+0
1.000908E+0
1.000736E+0
1.000899E+0
1.000841E+0
1.000999E+0
1.000915E+0
1.000805E+0
1.000578E+0
999.937820E-3
999.298096E-3
998.442650E-3
997.762299E-3
997.571754E-3
997.069359E-3
997.130585E-3
997.536278E-3
997.424126E-3
997.766876E-3
997.877312E-3
998.098183E-3
998.224640E-3
997.964287E-3
997.898483E-3
997.610664E-3
997.489357E-3
997.257614E-3
997.059631E-3
996.868515E-3
996.510887E-3
996.279716E-3
995.986748E-3
995.926094E-3
995.652580E-3
995.391655E-3
995.145035E-3
995.008850E-3
994.710159E-3
994.508743E-3
994.298172E-3
993.991470E-3
993.769455E-3
993.407822E-3
993.218994E-3
992.955780E-3
992.720032E-3
992.492294E-3
992.254257E-3
992.273140E-3
992.001343E-3
991.793633E-3
991.847420E-3
991.469765E-3
991.480064E-3
991.184807E-3
991.088104E-3
991.038322E-3
990.844345E-3
990.713310E-3
990.235519E-3
990.282440E-3
990.219498E-3
990.080452E-3
990.095901E-3
989.916801E-3
989.840698E-3
989.655304E-3
989.398956E-3
989.387512E-3
989.028168E-3
988.861084E-3
988.504028E-3
988.067436E-3
987.947845E-3
987.749863E-3
987.445450E-3
987.412834E-3
987.290382E-3
987.920380E-3
988.830757E-3
990.412903E-3
992.595863E-3
995.074654E-3
997.710800E-3
1.000005E+0
1.001734E+0
1.003048E+0
1.003726E+0
1.004136E+0
1.003820E+0
1.003325E+0
1.002693E+0
1.001849E+0
1.001269E+0
1.000529E+0
1.000092E+0
999.625397E-3
999.319267E-3
999.323845E-3
999.184227E-3
999.240303E-3
999.341011E-3
999.346733E-3
999.348450E-3
998.962212E-3
998.422050E-3
997.799492E-3
996.993256E-3
996.439934E-3
995.998764E-3
995.799065E-3
996.128082E-3
996.123505E-3
996.317482E-3
996.703720E-3
996.960068E-3
997.230721E-3
997.417259E-3
997.445869E-3
997.220993E-3
997.273064E-3
997.193527E-3
996.926308E-3
996.750069E-3
996.398163E-3
996.193886E-3
995.990181E-3
995.432281E-3
995.322990E-3
995.251465E-3
994.832611E-3
994.662666E-3
994.420624E-3
994.214630E-3
994.019508E-3
993.762016E-3
993.544006E-3
993.367195E-3
993.202972E-3
992.935753E-3
992.763519E-3
992.765236E-3
992.437935E-3
992.374420E-3
992.121506E-3
991.848564E-3
991.901779E-3
991.702080E-3
991.587639E-3
991.575623E-3
991.397095E-3
991.315842E-3
991.136169E-3
991.177940E-3
991.065216E-3
990.979385E-3
991.045189E-3
990.847206E-3
990.946770E-3
990.728760E-3
990.664673E-3
990.503883E-3
990.311623E-3
989.955139E-3
989.608955E-3
989.431000E-3
989.144325E-3
988.843918E-3
988.779259E-3
988.676262E-3
988.762665E-3
989.450455E-3
990.502167E-3
992.509460E-3
994.933319E-3
997.518539E-3
1.000152E+0
1.002355E+0
1.004174E+0
1.005343E+0
1.006118E+0
1.006337E+0
1.005905E+0
1.005420E+0
1.004518E+0
1.003848E+0
1.003219E+0
1.002628E+0
1.002272E+0
1.001915E+0
1.001831E+0
1.001814E+0
1.001760E+0
1.001951E+0
1.001876E+0
1.002002E+0
1.001991E+0
1.001697E+0
1.001531E+0
1.000952E+0
1.000116E+0
999.349594E-3
998.687553E-3
998.331070E-3
998.119354E-3
998.155975E-3
998.227501E-3
998.329926E-3
998.715019E-3
998.868942E-3
999.023437E-3
999.100113E-3
999.030304E-3
998.849487E-3
998.647499E-3
998.381424E-3
998.198318E-3
997.817802E-3
997.611237E-3
997.279358E-3
996.948051E-3
996.859360E-3
996.452522E-3
996.297455E-3
996.098328E-3
995.974159E-3
995.709229E-3
995.349312E-3
995.138741E-3
994.859505E-3
994.573402E-3
994.353104E-3
993.999481E-3
993.803215E-3
993.728256E-3
993.471909E-3
993.362617E-3
993.128586E-3
993.063927E-3
992.765236E-3
992.477989E-3
992.494583E-3
992.199898E-3
992.130661E-3
991.984749E-3
991.877174E-3
991.874886E-3
991.659164E-3
991.597366E-3
991.599655E-3
991.474915E-3
991.364479E-3
991.089821E-3
991.042900E-3
990.872955E-3
990.699005E-3
990.710449E-3
990.268135E-3
990.252113E-3
989.766884E-3
989.518547E-3
989.378929E-3
989.072227E-3
989.083099E-3
988.941193E-3
988.941193E-3
989.706230E-3
991.243172E-3
993.015862E-3
995.258331E-3
998.001480E-3
1.000642E+0
1.002848E+0
1.004742E+0
1.005829E+0
1.006380E+0
1.006634E+0
1.006138E+0
1.005751E+0
1.005172E+0
1.004434E+0
1.003798E+0
1.003324E+0
1.002900E+0
1.002770E+0
1.002758E+0
1.002598E+0
1.002474E+0
1.002785E+0
1.002778E+0
1.002978E+0
1.002741E+0
1.002304E+0
1.002211E+0
1.001448E+0
1.000562E+0
999.839401E-3
999.089241E-3
998.701286E-3
998.205757E-3
998.254967E-3
998.693848E-3
998.587418E-3
998.689842E-3
998.884392E-3
998.761368E-3
998.657227E-3
998.482704E-3
998.467255E-3
998.228073E-3
997.502518E-3
997.580338E-3
997.225571E-3
997.085381E-3
997.119713E-3
996.890259E-3
996.701431E-3
996.436501E-3
996.252823E-3
996.793556E-3
996.113777E-3
995.904350E-3
995.530701E-3
995.288086E-3
995.186806E-3
994.831467E-3
994.735909E-3
994.221497E-3
993.556595E-3
993.582916E-3
993.396950E-3
993.308830E-3
992.824173E-3
992.639351E-3
992.455101E-3
992.111778E-3
991.903496E-3
991.912651E-3
991.733551E-3
991.508675E-3
991.359329E-3
991.247177E-3
991.025734E-3
991.097832E-3
990.810013E-3
990.759659E-3
990.906715E-3
990.784836E-3
990.632629E-3
990.383720E-3
990.307045E-3
990.145111E-3
989.809799E-3
989.658165E-3
989.467049E-3
989.007568E-3
988.855934E-3
988.473701E-3
988.387299E-3
988.241959E-3
988.062859E-3
988.137245E-3
987.804222E-3
989.051628E-3
990.712166E-3
992.794418E-3
995.510101E-3
997.962570E-3
1.000402E+0
1.002223E+0
1.003489E+0
1.004400E+0
1.004493E+0
1.004386E+0
1.003921E+0
1.003237E+0
1.002520E+0
1.001701E+0
1.001051E+0
1.000540E+0
999.801064E-3
999.909210E-3
999.609375E-3
999.615097E-3
999.736977E-3
999.729538E-3
999.916649E-3
999.671745E-3
999.430847E-3
999.079514E-3
998.213768E-3
997.415543E-3
996.604729E-3
996.279716E-3
996.136093E-3
996.096039E-3
996.263695E-3
996.538353E-3
996.929741E-3
997.334290E-3
997.507668E-3
997.701645E-3
997.679329E-3
997.739983E-3
997.584343E-3
997.948265E-3
