Notes :


2023-10-30 ¿ÀÈÄ 11:21:05
Volts
Ch : LED 2,
466.418839E-3
465.654373E-3
467.262840E-3
467.158699E-3
466.908073E-3
466.941833E-3
465.165710E-3
465.517044E-3
464.628983E-3
464.253044E-3
464.766884E-3
464.239311E-3
465.482712E-3
465.751076E-3
466.551018E-3
467.800713E-3
467.980957E-3
469.409752E-3
469.833183E-3
470.426559E-3
471.656227E-3
471.647072E-3
472.868156E-3
472.796631E-3
472.886467E-3
473.595428E-3
473.410034E-3
474.438286E-3
474.373627E-3
474.445724E-3
475.155258E-3
474.588203E-3
475.414467E-3
475.259399E-3
475.180435E-3
475.543785E-3
475.237656E-3
476.079941E-3
475.804710E-3
475.926018E-3
476.374054E-3
476.042175E-3
476.984024E-3
477.006340E-3
477.060699E-3
477.476692E-3
477.159691E-3
478.017998E-3
477.951622E-3
477.888680E-3
478.353310E-3
478.106689E-3
478.909492E-3
479.196739E-3
479.692841E-3
480.322266E-3
480.205536E-3
481.303596E-3
481.438637E-3
481.472397E-3
482.343864E-3
482.291222E-3
483.313179E-3
483.130074E-3
482.443428E-3
481.511879E-3
478.157616E-3
474.830246E-3
469.484711E-3
463.888550E-3
459.391594E-3
454.555321E-3
452.794075E-3
451.240540E-3
450.381088E-3
451.044273E-3
451.536942E-3
453.932762E-3
455.172157E-3
456.837273E-3
458.640289E-3
459.494591E-3
460.870743E-3
461.342812E-3
461.145973E-3
461.404610E-3
460.590363E-3
461.200333E-3
460.979462E-3
460.723114E-3
461.553383E-3
461.970520E-3
463.848495E-3
464.564896E-3
465.047264E-3
465.949059E-3
465.707588E-3
466.393661E-3
465.876961E-3
464.951706E-3
464.900780E-3
464.107704E-3
464.646149E-3
464.538002E-3
464.385796E-3
465.167999E-3
465.165710E-3
466.873741E-3
467.387581E-3
467.710876E-3
468.765450E-3
469.166565E-3
470.512962E-3
471.158981E-3
471.415901E-3
472.272491E-3
472.376060E-3
473.185158E-3
473.501587E-3
473.398018E-3
473.843193E-3
473.742485E-3
474.522400E-3
474.516106E-3
474.445724E-3
474.975014E-3
474.644852E-3
475.406456E-3
475.487137E-3
475.372124E-3
475.925446E-3
475.504875E-3
476.009560E-3
476.352310E-3
476.245880E-3
476.749992E-3
476.426125E-3
477.259254E-3
477.396011E-3
477.547073E-3
478.086662E-3
477.599716E-3
478.522682E-3
478.657722E-3
478.472900E-3
479.116631E-3
479.064560E-3
479.920006E-3
480.073357E-3
480.117989E-3
481.213188E-3
481.057549E-3
481.907845E-3
482.284927E-3
482.333565E-3
483.215332E-3
482.833672E-3
483.396149E-3
483.456230E-3
482.094383E-3
480.086517E-3
475.647926E-3
471.068573E-3
466.122437E-3
460.451889E-3
456.558609E-3
452.807236E-3
451.431084E-3
450.813103E-3
450.687790E-3
452.102280E-3
453.047562E-3
455.244255E-3
456.929970E-3
457.470131E-3
459.881973E-3
460.376358E-3
461.461830E-3
461.450386E-3
460.798645E-3
461.123657E-3
460.484505E-3
460.848427E-3
460.978889E-3
460.820389E-3
462.197113E-3
462.766457E-3
464.301109E-3
465.248680E-3
465.411758E-3
466.323280E-3
465.537071E-3
465.674400E-3
464.961433E-3
464.386940E-3
464.977455E-3
464.287949E-3
464.394379E-3
464.487648E-3
464.469910E-3
465.895271E-3
466.353035E-3
467.263412E-3
468.144608E-3
468.551445E-3
469.763947E-3
469.659233E-3
470.444870E-3
471.375275E-3
471.369553E-3
472.307968E-3
472.266197E-3
472.840118E-3
473.363686E-3
473.329353E-3
474.169350E-3
473.642349E-3
474.118423E-3
474.096107E-3
473.869514E-3
474.814224E-3
474.452591E-3
474.743271E-3
475.034523E-3
474.901199E-3
475.857925E-3
475.468254E-3
475.699997E-3
475.931740E-3
475.824165E-3
476.648140E-3
476.436424E-3
476.681900E-3
477.083588E-3
476.851845E-3
477.987099E-3
477.401733E-3
477.775383E-3
478.321838E-3
478.164482E-3
479.074860E-3
478.854561E-3
479.354095E-3
480.032158E-3
479.795837E-3
481.022072E-3
480.772591E-3
481.379700E-3
481.957626E-3
481.862640E-3
483.112335E-3
482.306099E-3
482.378197E-3
482.256889E-3
480.458450E-3
478.468323E-3
473.192596E-3
468.271065E-3
463.809013E-3
457.923889E-3
455.568695E-3
452.793503E-3
451.910591E-3
452.118874E-3
452.556610E-3
454.606247E-3
455.509758E-3
457.525635E-3
459.609604E-3
460.868454E-3
462.705803E-3
462.900352E-3
463.239670E-3
463.940620E-3
463.736916E-3
464.231873E-3
463.190460E-3
463.502312E-3
464.113426E-3
464.389229E-3
466.081238E-3
466.382790E-3
466.912651E-3
467.488289E-3
467.261696E-3
467.598724E-3
466.454887E-3
466.069221E-3
466.096687E-3
464.335442E-3
465.040970E-3
464.879036E-3
465.389442E-3
466.102409E-3
466.413116E-3
467.805290E-3
468.062782E-3
468.939972E-3
469.833755E-3
470.497513E-3
471.982384E-3
472.164917E-3
472.645569E-3
473.324776E-3
473.308754E-3
474.437714E-3
474.023437E-3
474.260902E-3
474.696922E-3
474.496651E-3
475.476837E-3
474.992752E-3
475.052261E-3
475.553513E-3
475.392723E-3
476.081657E-3
475.578690E-3
475.654793E-3
476.231003E-3
476.067924E-3
477.045822E-3
476.609230E-3
476.495934E-3
477.198029E-3
477.194023E-3
478.032303E-3
477.825165E-3
478.031731E-3
478.703499E-3
478.186226E-3
478.948975E-3
478.898048E-3
479.092598E-3
479.668808E-3
479.371262E-3
480.261040E-3
480.389214E-3
480.775452E-3
481.663513E-3
481.376839E-3
482.565880E-3
482.435417E-3
482.818222E-3
483.488274E-3
483.415031E-3
483.749771E-3
482.563591E-3
480.305099E-3
477.343941E-3
471.830750E-3
467.132378E-3
461.387444E-3
456.776619E-3
453.956223E-3
450.312996E-3
450.849152E-3
450.854874E-3
451.847649E-3
453.810310E-3
454.883194E-3
457.354546E-3
458.632851E-3
459.849358E-3
461.255836E-3
461.069298E-3
462.105560E-3
462.018013E-3
461.884117E-3
461.905861E-3
460.827827E-3
461.366844E-3
461.179161E-3
461.971092E-3
463.505173E-3
463.998413E-3
465.726471E-3
466.249466E-3
466.533852E-3
466.776466E-3
466.080093E-3
466.154480E-3
465.801430E-3
465.241241E-3
465.578270E-3
464.703369E-3
466.016006E-3
466.259193E-3
466.583633E-3
468.303108E-3
468.630981E-3
469.722176E-3
470.423698E-3
471.528053E-3
473.353386E-3
473.614883E-3
474.977875E-3
475.134659E-3
475.293732E-3
475.992966E-3
475.443649E-3
476.169205E-3
476.255035E-3
476.196098E-3
476.844978E-3
476.473045E-3
476.898193E-3
476.578331E-3
476.233864E-3
476.535416E-3
475.947762E-3
476.840401E-3
476.452446E-3
476.352882E-3
476.966286E-3
476.794052E-3
477.599716E-3
477.810287E-3
477.557945E-3
478.106689E-3
477.811432E-3
478.785324E-3
479.086876E-3
479.110336E-3
479.771805E-3
479.339218E-3
480.259895E-3
480.274200E-3
480.027008E-3
480.656433E-3
480.239868E-3
481.446075E-3
481.505013E-3
481.685829E-3
482.429695E-3
482.174492E-3
483.404732E-3
483.661652E-3
483.927727E-3
484.794617E-3
484.612656E-3
485.418892E-3
484.913063E-3
483.451653E-3
480.991745E-3
476.198387E-3
471.779823E-3
466.224289E-3
460.839844E-3
457.014656E-3
453.535080E-3
452.422714E-3
451.571846E-3
451.831055E-3
453.434944E-3
454.638290E-3
457.026672E-3
458.512688E-3
459.564972E-3
461.216927E-3
461.586571E-3
462.625694E-3
462.600517E-3
462.283516E-3
462.387085E-3
461.508751E-3
462.179947E-3
462.169075E-3
462.089539E-3
463.355827E-3
463.727188E-3
465.377998E-3
466.510391E-3
466.742706E-3
467.504883E-3
467.064285E-3
467.510605E-3
466.940117E-3
466.154480E-3
466.129303E-3
465.769386E-3
466.385651E-3
466.637421E-3
466.591644E-3
467.423630E-3
467.353821E-3
468.900490E-3
469.477272E-3
469.935036E-3
471.168137E-3
471.179008E-3
472.332573E-3
472.994614E-3
472.939682E-3
474.094391E-3
473.736763E-3
474.544144E-3
474.841690E-3
474.968147E-3
475.615883E-3
475.151253E-3
475.852203E-3
475.899696E-3
475.336647E-3
476.143456E-3
476.079941E-3
476.617813E-3
476.570320E-3
476.618958E-3
477.383995E-3
477.037811E-3
477.505302E-3
477.840614E-3
477.762222E-3
478.518105E-3
478.191376E-3
478.496933E-3
478.838539E-3
478.763580E-3
479.734039E-3
479.525757E-3
480.024147E-3
480.438995E-3
480.143738E-3
480.950546E-3
480.488205E-3
481.376266E-3
481.785393E-3
481.583405E-3
482.584763E-3
482.493782E-3
483.263969E-3
483.322334E-3
483.175850E-3
483.954620E-3
483.951759E-3
484.745979E-3
485.065842E-3
484.405518E-3
484.481621E-3
482.553291E-3
480.283356E-3
475.958061E-3
470.163345E-3
465.507317E-3
460.417557E-3
457.079887E-3
454.835701E-3
453.124809E-3
453.767395E-3
454.103279E-3
455.941772E-3
457.874680E-3
458.765602E-3
461.783981E-3
462.840271E-3
464.404106E-3
465.149689E-3
465.295029E-3
466.473198E-3
465.807724E-3
465.697861E-3
465.216637E-3
464.714241E-3
465.821457E-3
466.148758E-3
467.325783E-3
468.421555E-3
468.771744E-3
469.792557E-3
469.069862E-3
468.964577E-3
468.624115E-3
467.109489E-3
467.575836E-3
466.718102E-3
466.663742E-3
466.860008E-3
466.616249E-3
468.057060E-3
468.045044E-3
469.030380E-3
469.897842E-3
470.232010E-3
471.854210E-3
472.111130E-3
473.051834E-3
473.585129E-3
473.860359E-3
475.056267E-3
474.839401E-3
475.394440E-3
475.835037E-3
475.628471E-3
476.927948E-3
476.258469E-3
476.550865E-3
476.859283E-3
476.527405E-3
477.568817E-3
476.859283E-3
477.271271E-3
477.659225E-3
476.510239E-3
478.101540E-3
477.541351E-3
478.045464E-3
478.705788E-3
478.520966E-3
479.633331E-3
478.989029E-3
479.197884E-3
479.720879E-3
479.616165E-3
480.704498E-3
479.917145E-3
480.269623E-3
480.836678E-3
480.631256E-3
481.895256E-3
481.245232E-3
481.478691E-3
482.295227E-3
482.211113E-3
483.372688E-3
482.949257E-3
483.479691E-3
484.212685E-3
484.326553E-3
485.452080E-3
484.943962E-3
485.235214E-3
485.189438E-3
484.081078E-3
482.739830E-3
478.194237E-3
473.614883E-3
468.453598E-3
462.843132E-3
459.088898E-3
455.117798E-3
453.461838E-3
452.722549E-3
452.604103E-3
454.182816E-3
454.940987E-3
456.698799E-3
458.760452E-3
459.982109E-3
461.981392E-3
462.269783E-3
462.962723E-3
463.576698E-3
463.112068E-3
463.702583E-3
462.554169E-3
462.452888E-3
462.825966E-3
462.727547E-3
464.107704E-3
464.552307E-3
465.923309E-3
467.136383E-3
467.499733E-3
468.692207E-3
468.055916E-3
467.732620E-3
467.742920E-3
467.039680E-3
467.379570E-3
466.437149E-3
466.480637E-3
466.752434E-3
466.738701E-3
467.988396E-3
468.070793E-3
468.813515E-3
470.030022E-3
470.159340E-3
471.707153E-3
471.996117E-3
472.749710E-3
473.422623E-3
473.661232E-3
474.715805E-3
474.583626E-3
475.079727E-3
475.745201E-3
475.760651E-3
476.423836E-3
476.173782E-3
476.173210E-3
476.719093E-3
476.614952E-3
477.121925E-3
476.798630E-3
476.967430E-3
477.539635E-3
477.552223E-3
478.286934E-3
477.932167E-3
478.146744E-3
478.508949E-3
478.265190E-3
479.191017E-3
478.865433E-3
479.136658E-3
479.870796E-3
479.772949E-3
480.535698E-3
480.529404E-3
480.627823E-3
481.249237E-3
480.354881E-3
481.685829E-3
481.596565E-3
481.775093E-3
482.396507E-3
482.295227E-3
483.293724E-3
483.150101E-3
483.553505E-3
484.237289E-3
484.181786E-3
485.395432E-3
485.415459E-3
485.494995E-3
485.947609E-3
485.100174E-3
484.808922E-3
481.721878E-3
477.611160E-3
472.934532E-3
466.797638E-3
462.394524E-3
457.672119E-3
454.486084E-3
452.960014E-3
452.087975E-3
453.048134E-3
453.672409E-3
455.168152E-3
457.280731E-3
458.706093E-3
460.437012E-3
461.272430E-3
461.847496E-3
462.840271E-3
462.355614E-3
462.599945E-3
462.090683E-3
461.816025E-3
461.832619E-3
461.102486E-3
461.929321E-3
462.433434E-3
463.332367E-3
465.278435E-3
465.621758E-3
467.173576E-3
467.184448E-3
467.464828E-3
467.757797E-3
466.841698E-3
467.026520E-3
466.466904E-3
466.101265E-3
466.490364E-3
466.048050E-3
467.071152E-3
467.392731E-3
467.793846E-3
468.991470E-3
469.149971E-3
470.563316E-3
470.990753E-3
471.616173E-3
472.514534E-3
472.023582E-3
473.432922E-3
473.654366E-3
474.002266E-3
474.604797E-3
474.510384E-3
475.531197E-3
475.318909E-3
475.386429E-3
476.035881E-3
475.658226E-3
476.614380E-3
476.454163E-3
476.417542E-3
476.808929E-3
476.390076E-3
477.161980E-3
477.254105E-3
476.954269E-3
477.494431E-3
477.096176E-3
477.858925E-3
477.993965E-3
477.992821E-3
478.658295E-3
478.555298E-3
479.362679E-3
479.398155E-3
479.469109E-3
480.123711E-3
479.547501E-3
480.456734E-3
480.418396E-3
480.354881E-3
480.813217E-3
480.864716E-3
481.921005E-3
482.035446E-3
482.100105E-3
482.900620E-3
482.775307E-3
483.926582E-3
484.069633E-3
484.073067E-3
484.710503E-3
484.110832E-3
484.934807E-3
484.354019E-3
482.550430E-3
479.866791E-3
474.862289E-3
470.513535E-3
465.360832E-3
460.114861E-3
456.847000E-3
453.968811E-3
453.797722E-3
453.648949E-3
454.163361E-3
456.023026E-3
457.353973E-3
459.995842E-3
461.608315E-3
462.676620E-3
464.042473E-3
464.247322E-3
465.342522E-3
465.025520E-3
464.681625E-3
464.852715E-3
464.162636E-3
464.890480E-3
465.056419E-3
465.594292E-3
467.003632E-3
467.312622E-3
468.839264E-3
469.148827E-3
468.707085E-3
468.686485E-3
467.708015E-3
467.659378E-3
467.290878E-3
466.532135E-3
466.666603E-3
466.366768E-3
467.227936E-3
467.609024E-3
468.106842E-3
468.930244E-3
469.409752E-3
470.956421E-3
471.318626E-3
471.891975E-3
472.911644E-3
473.020935E-3
474.123573E-3
474.649429E-3
474.616814E-3
475.277138E-3
475.151825E-3
476.063347E-3
476.430130E-3
475.885963E-3
476.292801E-3
476.042175E-3
476.859283E-3
476.745415E-3
476.387787E-3
477.026367E-3
476.638412E-3
477.595711E-3
477.581406E-3
477.494431E-3
478.041458E-3
477.696991E-3
478.157616E-3
478.606796E-3
478.418541E-3
479.043388E-3
478.813362E-3
479.499435E-3
479.810715E-3
479.477692E-3
480.057335E-3
479.846191E-3
480.671310E-3
480.973434E-3
480.917931E-3
481.793976E-3
481.605148E-3
482.751846E-3
482.984734E-3
483.151245E-3
483.812141E-3
483.768082E-3
484.657288E-3
484.705353E-3
483.750343E-3
483.998108E-3
481.635475E-3
478.801918E-3
474.365044E-3
468.317413E-3
463.918304E-3
459.050560E-3
456.161499E-3
453.820038E-3
452.521133E-3
452.885628E-3
453.093338E-3
454.867744E-3
456.689644E-3
457.847786E-3
459.356117E-3
460.463905E-3
462.142754E-3
462.696648E-3
462.582779E-3
463.053703E-3
462.318993E-3
462.392235E-3
462.234306E-3
461.547089E-3
462.395668E-3
462.768745E-3
464.197540E-3
465.359116E-3
466.171074E-3
467.473412E-3
467.420197E-3
467.859650E-3
467.534065E-3
466.786194E-3
466.898918E-3
466.075516E-3
466.157341E-3
466.264343E-3
465.452957E-3
466.705513E-3
466.739273E-3
467.952919E-3
468.542862E-3
468.885612E-3
470.102119E-3
470.368767E-3
471.726036E-3
472.477341E-3
472.554588E-3
473.629761E-3
473.624039E-3
474.358177E-3
475.022507E-3
474.761581E-3
475.794983E-3
475.377274E-3
475.740051E-3
476.003838E-3
475.701714E-3
476.802635E-3
476.457596E-3
476.729393E-3
476.885605E-3
476.513100E-3
477.456093E-3
477.168274E-3
477.497864E-3
477.995110E-3
477.699280E-3
478.641701E-3
478.282928E-3
478.752136E-3
479.239655E-3
478.458023E-3
479.731178E-3
479.170418E-3
479.756355E-3
480.238152E-3
479.663086E-3
480.778313E-3
480.324554E-3
480.811501E-3
481.093597E-3
480.665588E-3
482.383347E-3
482.076073E-3
482.838821E-3
483.253670E-3
483.337212E-3
484.524536E-3
484.160042E-3
484.316254E-3
484.436989E-3
483.526039E-3
482.671165E-3
478.955841E-3
474.551582E-3
469.673538E-3
463.845634E-3
459.847069E-3
455.542946E-3
453.018379E-3
451.994705E-3
451.474571E-3
452.832985E-3
453.520775E-3
455.354118E-3
