Notes :


2023-11-10 ¿ÀÈÄ 9:57:07
Volts
Ch : LED 2,
399.322128E-3
402.158546E-3
405.680466E-3
409.590912E-3
413.151169E-3
416.350937E-3
418.810844E-3
420.000458E-3
420.451355E-3
420.015335E-3
418.940735E-3
417.468452E-3
415.648270E-3
413.904190E-3
412.156677E-3
411.026001E-3
410.226631E-3
409.547997E-3
409.337425E-3
409.140587E-3
409.155464E-3
409.079361E-3
409.094810E-3
409.229851E-3
409.363174E-3
409.366608E-3
409.141159E-3
408.497429E-3
407.811928E-3
406.848907E-3
406.194305E-3
405.742836E-3
405.277061E-3
405.149460E-3
405.190086E-3
405.384064E-3
405.547142E-3
405.625534E-3
405.747986E-3
405.865288E-3
406.123924E-3
406.006050E-3
405.867577E-3
405.765724E-3
405.602074E-3
405.387497E-3
405.184364E-3
404.821587E-3
404.617882E-3
404.331779E-3
404.188156E-3
403.947830E-3
403.719521E-3
403.524399E-3
403.351593E-3
403.214264E-3
403.126144E-3
402.797127E-3
402.323341E-3
402.225494E-3
401.882172E-3
401.887894E-3
401.705360E-3
401.823235E-3
401.846695E-3
401.859283E-3
401.832962E-3
401.667023E-3
401.615524E-3
401.411247E-3
401.292801E-3
401.352882E-3
401.343155E-3
401.403236E-3
401.423836E-3
401.305962E-3
401.368332E-3
401.045609E-3
400.895119E-3
400.850487E-3
400.816727E-3
400.729752E-3
400.530052E-3
400.578117E-3
400.346375E-3
400.095177E-3
399.807358E-3
399.541283E-3
399.888611E-3
400.951195E-3
403.006554E-3
406.063271E-3
409.441566E-3
413.523102E-3
417.328262E-3
420.538330E-3
422.839165E-3
423.745537E-3
423.919487E-3
423.065186E-3
421.788597E-3
419.981003E-3
418.108177E-3
416.450500E-3
414.944458E-3
413.799477E-3
413.034439E-3
412.557220E-3
412.405014E-3
412.322044E-3
412.490845E-3
412.751198E-3
412.667084E-3
412.846756E-3
412.742043E-3
412.458229E-3
412.042809E-3
411.316109E-3
410.713577E-3
409.785461E-3
409.204102E-3
408.694839E-3
408.218765E-3
408.094597E-3
407.990456E-3
408.068275E-3
408.246803E-3
408.090019E-3
408.084297E-3
407.852554E-3
407.639694E-3
407.320976E-3
407.032585E-3
406.827164E-3
406.505585E-3
406.226921E-3
405.840111E-3
405.389214E-3
405.051613E-3
404.708862E-3
404.406738E-3
404.149246E-3
403.633118E-3
403.320694E-3
402.874947E-3
402.536201E-3
402.375412E-3
401.951408E-3
401.684189E-3
401.432991E-3
401.182938E-3
400.988960E-3
400.650787E-3
400.538063E-3
400.313759E-3
400.017929E-3
399.868011E-3
399.627686E-3
399.501801E-3
399.268913E-3
399.099541E-3
398.969650E-3
398.820305E-3
398.714447E-3
398.621750E-3
398.422623E-3
398.422050E-3
398.235512E-3
398.080444E-3
398.057556E-3
397.810364E-3
397.694206E-3
397.426414E-3
397.352600E-3
397.160912E-3
396.951485E-3
396.809006E-3
396.375275E-3
396.081161E-3
395.954704E-3
396.513176E-3
398.235512E-3
400.857925E-3
404.327202E-3
408.097458E-3
411.808777E-3
415.138435E-3
417.444420E-3
418.788528E-3
419.014549E-3
418.465233E-3
417.156029E-3
415.326118E-3
413.635254E-3
411.821938E-3
410.218048E-3
408.919716E-3
407.953835E-3
407.255173E-3
406.965065E-3
406.796837E-3
406.799126E-3
406.773949E-3
406.969070E-3
407.173347E-3
407.443428E-3
407.224846E-3
406.820297E-3
406.244087E-3
405.532837E-3
404.843903E-3
404.439926E-3
404.076004E-3
403.931236E-3
403.785896E-3
403.816223E-3
404.001045E-3
404.113770E-3
404.230499E-3
404.348373E-3
404.322052E-3
404.175568E-3
403.982162E-3
403.840828E-3
403.638268E-3
403.582764E-3
403.386497E-3
403.179359E-3
402.992249E-3
402.735329E-3
402.513885E-3
402.398872E-3
402.083015E-3
402.119637E-3
402.132797E-3
401.928520E-3
401.838684E-3
401.515961E-3
401.339149E-3
401.113701E-3
400.942612E-3
401.018143E-3
400.960350E-3
400.943756E-3
400.821877E-3
400.698853E-3
400.669670E-3
400.572395E-3
400.631905E-3
400.740051E-3
400.812149E-3
400.882530E-3
400.798988E-3
400.685120E-3
400.561523E-3
400.603294E-3
400.615311E-3
400.562096E-3
400.591850E-3
400.503159E-3
400.316620E-3
400.144386E-3
399.882317E-3
399.719810E-3
399.373627E-3
399.159050E-3
398.931313E-3
399.007416E-3
399.948120E-3
401.762581E-3
404.417038E-3
407.981300E-3
411.754990E-3
415.578461E-3
418.702698E-3
421.003532E-3
422.373962E-3
422.578239E-3
421.971130E-3
420.653915E-3
419.043159E-3
417.348862E-3
415.493774E-3
414.055824E-3
412.811852E-3
412.010193E-3
411.595917E-3
411.278915E-3
411.317825E-3
411.329269E-3
411.495209E-3
411.780167E-3
411.912918E-3
412.130928E-3
412.034225E-3
411.741257E-3
411.141014E-3
410.432625E-3
409.787750E-3
409.230995E-3
408.679962E-3
408.515739E-3
408.227348E-3
408.265114E-3
408.300591E-3
408.478546E-3
408.813858E-3
408.927155E-3
409.046745E-3
408.958626E-3
408.848190E-3
408.801842E-3
408.596992E-3
408.334923E-3
408.079147E-3
407.744408E-3
407.593918E-3
407.136726E-3
406.954193E-3
406.681252E-3
406.456375E-3
406.383133E-3
406.126785E-3
405.988312E-3
405.838966E-3
405.540848E-3
405.255318E-3
404.938316E-3
404.847908E-3
404.709435E-3
404.655075E-3
404.629326E-3
404.450798E-3
404.299164E-3
404.248810E-3
404.179001E-3
404.151535E-3
404.063416E-3
404.121208E-3
404.006767E-3
403.768158E-3
403.688622E-3
403.591347E-3
403.736115E-3
403.811646E-3
403.783035E-3
403.918648E-3
403.764725E-3
403.536415E-3
403.456879E-3
403.189659E-3
403.145027E-3
402.933884E-3
402.910995E-3
402.694702E-3
402.388000E-3
402.349091E-3
402.111626E-3
402.179718E-3
403.177071E-3
404.777527E-3
407.514954E-3
410.857201E-3
414.782524E-3
418.626595E-3
421.866989E-3
424.422455E-3
425.636101E-3
425.931931E-3
425.351715E-3
423.866844E-3
422.202873E-3
420.273972E-3
418.574524E-3
417.069054E-3
415.782166E-3
414.948463E-3
414.101601E-3
413.919640E-3
413.861275E-3
413.944817E-3
414.171982E-3
414.354515E-3
414.599419E-3
414.671516E-3
414.527321E-3
414.366531E-3
413.563728E-3
412.604141E-3
411.719513E-3
410.870361E-3
410.439491E-3
409.954834E-3
409.899902E-3
409.673882E-3
409.669304E-3
409.755707E-3
409.792328E-3
409.887314E-3
409.827805E-3
409.649277E-3
409.566307E-3
409.132004E-3
408.916283E-3
408.558083E-3
408.194733E-3
407.941246E-3
407.613373E-3
407.310677E-3
407.014847E-3
406.773949E-3
406.503868E-3
406.067276E-3
405.737686E-3
405.433846E-3
405.041885E-3
404.893112E-3
404.613304E-3
404.449081E-3
404.278564E-3
403.939819E-3
403.828812E-3
403.515244E-3
403.312683E-3
403.137016E-3
402.954483E-3
402.937317E-3
402.799988E-3
402.701569E-3
402.798271E-3
402.654076E-3
402.545357E-3
402.295303E-3
402.192879E-3
402.117348E-3
401.959419E-3
401.818085E-3
401.763725E-3
401.722527E-3
401.676750E-3
401.440430E-3
401.367760E-3
401.113701E-3
400.944901E-3
400.769234E-3
400.557518E-3
400.523758E-3
400.166702E-3
399.762154E-3
399.346733E-3
399.277496E-3
400.048828E-3
401.755142E-3
404.545212E-3
407.880592E-3
411.556435E-3
415.188789E-3
418.227768E-3
420.517159E-3
421.730232E-3
421.814346E-3
421.105957E-3
419.709778E-3
417.927361E-3
416.207886E-3
414.451790E-3
413.085365E-3
411.856842E-3
411.055183E-3
410.536766E-3
410.235214E-3
410.192299E-3
410.111046E-3
410.244942E-3
410.485268E-3
410.661507E-3
410.747337E-3
410.490990E-3
410.066414E-3
409.516525E-3
408.847618E-3
408.422470E-3
407.989311E-3
407.795906E-3
407.779312E-3
407.823372E-3
407.964706E-3
408.044815E-3
408.251381E-3
408.645630E-3
408.713722E-3
408.794403E-3
408.583832E-3
408.378983E-3
408.146095E-3
407.866859E-3
407.767868E-3
407.410240E-3
407.139587E-3
406.858635E-3
406.507301E-3
406.299019E-3
406.001472E-3
405.909920E-3
405.721664E-3
405.445290E-3
405.390930E-3
405.143166E-3
404.961777E-3
404.862785E-3
404.592133E-3
404.471397E-3
404.188728E-3
404.098320E-3
404.016495E-3
403.956985E-3
403.871155E-3
403.767014E-3
403.700066E-3
403.643417E-3
403.582764E-3
403.523254E-3
403.272629E-3
403.381348E-3
403.385925E-3
403.298378E-3
403.331566E-3
403.177643E-3
403.117561E-3
403.167343E-3
402.953339E-3
402.961922E-3
402.858925E-3
402.638626E-3
402.460098E-3
402.156258E-3
402.017784E-3
401.711655E-3
401.601219E-3
401.804352E-3
402.607727E-3
404.471397E-3
407.036018E-3
410.421753E-3
414.215469E-3
417.788887E-3
421.138573E-3
423.407364E-3
424.722862E-3
424.870491E-3
424.310875E-3
423.170471E-3
421.409225E-3
419.700623E-3
418.125916E-3
416.661072E-3
415.599632E-3
414.871788E-3
414.454079E-3
414.340210E-3
414.180565E-3
414.405441E-3
414.501572E-3
414.664078E-3
414.944458E-3
415.114975E-3
415.139580E-3
414.856911E-3
414.249229E-3
413.471603E-3
412.541771E-3
411.946106E-3
411.265182E-3
410.837173E-3
410.662079E-3
410.594559E-3
410.725594E-3
410.832024E-3
411.158180E-3
411.333275E-3
411.367035E-3
411.428833E-3
411.297226E-3
411.261749E-3
411.004829E-3
410.682106E-3
410.550499E-3
410.253525E-3
409.961128E-3
409.766579E-3
409.348869E-3
409.119987E-3
408.766937E-3
408.509445E-3
408.271980E-3
408.039665E-3
407.919502E-3
407.719803E-3
407.570457E-3
407.355309E-3
407.118988E-3
406.924438E-3
406.719017E-3
406.555367E-3
406.490707E-3
406.458092E-3
406.436348E-3
406.335068E-3
406.221771E-3
406.140518E-3
406.004906E-3
406.010056E-3
405.937958E-3
405.844116E-3
405.909348E-3
405.748558E-3
405.699348E-3
405.542564E-3
405.455017E-3
405.474472E-3
405.441856E-3
405.463028E-3
405.420113E-3
405.301666E-3
405.148315E-3
404.902267E-3
404.897118E-3
404.767799E-3
404.692268E-3
404.508018E-3
404.279137E-3
404.043961E-3
403.774452E-3
403.691483E-3
404.033089E-3
405.216408E-3
407.377625E-3
410.341644E-3
413.883018E-3
417.809486E-3
421.348572E-3
424.408150E-3
426.294708E-3
427.144432E-3
427.001953E-3
426.062393E-3
424.630165E-3
422.878075E-3
421.166611E-3
419.504356E-3
418.044662E-3
417.216682E-3
416.543770E-3
416.233635E-3
416.205025E-3
416.138077E-3
416.356087E-3
416.395569E-3
416.564369E-3
416.800117E-3
416.786957E-3
416.674232E-3
416.159821E-3
415.437698E-3
414.520454E-3
413.615799E-3
413.030434E-3
412.470818E-3
412.137222E-3
412.211609E-3
412.121773E-3
412.273407E-3
412.438202E-3
412.517166E-3
412.647057E-3
412.478256E-3
412.356949E-3
412.110329E-3
411.950111E-3
411.771011E-3
411.387062E-3
411.270332E-3
410.838318E-3
410.473824E-3
410.177994E-3
409.685326E-3
409.429550E-3
409.090805E-3
408.796692E-3
408.544922E-3
408.254814E-3
408.076859E-3
407.765579E-3
407.514381E-3
407.289505E-3
407.021141E-3
406.880379E-3
406.650352E-3
406.405449E-3
406.254959E-3
406.027222E-3
405.917358E-3
405.758286E-3
405.687904E-3
405.646133E-3
405.413818E-3
405.376053E-3
405.157471E-3
405.172348E-3
404.995537E-3
404.736328E-3
404.582405E-3
404.419899E-3
404.320335E-3
404.108047E-3
403.916931E-3
403.961563E-3
403.843689E-3
403.803635E-3
403.681755E-3
403.510094E-3
403.220558E-3
403.099823E-3
402.940750E-3
402.825737E-3
402.647209E-3
402.453232E-3
402.093315E-3
401.784325E-3
401.598930E-3
401.446724E-3
402.298164E-3
404.089165E-3
406.723022E-3
410.169411E-3
413.747978E-3
417.365456E-3
420.297432E-3
422.468376E-3
423.464584E-3
423.379326E-3
422.567368E-3
421.085930E-3
419.365883E-3
417.708778E-3
416.023636E-3
414.608002E-3
413.420105E-3
412.639046E-3
412.133217E-3
411.845398E-3
411.971283E-3
412.181854E-3
412.456512E-3
412.797546E-3
412.975502E-3
413.037872E-3
412.796974E-3
412.361526E-3
411.645126E-3
410.809135E-3
410.362816E-3
409.897614E-3
409.669876E-3
409.494781E-3
409.604073E-3
409.906197E-3
410.153961E-3
410.389709E-3
410.634613E-3
410.712433E-3
410.684395E-3
410.555077E-3
410.317039E-3
410.099030E-3
409.806061E-3
409.591484E-3
409.377480E-3
409.113693E-3
408.913994E-3
408.492279E-3
408.258247E-3
407.869720E-3
407.688332E-3
407.639694E-3
407.439423E-3
407.319832E-3
407.104111E-3
406.743622E-3
406.547928E-3
406.348228E-3
406.163406E-3
406.173706E-3
406.086159E-3
406.106186E-3
405.899620E-3
405.744553E-3
405.641556E-3
405.519676E-3
405.643272E-3
405.686188E-3
405.596924E-3
405.457878E-3
405.448151E-3
405.376625E-3
405.216408E-3
405.235863E-3
405.297661E-3
405.072784E-3
405.025291E-3
405.005264E-3
405.140877E-3
405.265617E-3
405.150032E-3
405.276489E-3
405.121422E-3
405.101967E-3
404.921150E-3
404.759789E-3
404.718590E-3
404.615593E-3
404.591560E-3
404.460526E-3
404.231644E-3
404.154396E-3
404.113197E-3
405.290222E-3
407.376480E-3
410.240364E-3
413.805771E-3
417.594910E-3
421.109390E-3
424.132347E-3
426.204872E-3
427.516365E-3
427.603912E-3
427.045441E-3
425.786018E-3
424.168396E-3
422.525597E-3
420.810699E-3
419.499779E-3
418.573952E-3
418.030357E-3
417.745399E-3
417.675591E-3
417.776871E-3
417.926216E-3
418.187714E-3
418.583679E-3
418.810844E-3
419.120979E-3
418.993950E-3
418.615150E-3
417.996025E-3
417.042732E-3
416.292572E-3
415.456009E-3
414.822578E-3
414.515305E-3
414.356232E-3
414.411736E-3
414.610291E-3
414.712715E-3
414.969635E-3
415.015411E-3
415.028572E-3
415.079498E-3
414.911270E-3
414.949608E-3
414.683533E-3
414.559364E-3
414.273834E-3
413.962555E-3
413.699913E-3
413.448143E-3
413.237000E-3
413.083076E-3
412.676811E-3
412.486839E-3
412.148094E-3
411.948395E-3
411.748695E-3
411.611366E-3
411.624527E-3
411.453438E-3
411.357307E-3
411.139870E-3
410.921288E-3
410.825157E-3
410.659790E-3
410.675240E-3
410.617447E-3
410.511589E-3
410.517311E-3
410.404015E-3
410.428619E-3
410.359383E-3
410.286140E-3
410.292435E-3
410.050964E-3
410.097313E-3
409.924507E-3
409.824371E-3
409.789467E-3
409.577751E-3
409.458733E-3
409.357452E-3
409.370041E-3
409.531975E-3
409.524536E-3
409.374619E-3
409.351158E-3
409.150887E-3
408.988953E-3
408.713722E-3
408.668518E-3
408.603859E-3
408.467674E-3
408.432770E-3
408.258247E-3
407.864571E-3
407.685471E-3
407.756996E-3
408.745766E-3
410.615730E-3
413.425827E-3
416.771507E-3
420.482826E-3
424.144936E-3
427.197647E-3
429.361725E-3
430.477524E-3
430.439758E-3
429.761696E-3
428.176689E-3
426.485825E-3
424.698257E-3
423.019981E-3
421.695900E-3
420.561218E-3
419.904327E-3
419.530106E-3
419.330978E-3
419.419098E-3
419.535828E-3
419.680595E-3
419.849396E-3
420.009041E-3
420.136642E-3
419.918633E-3
419.385910E-3
418.667221E-3
417.664719E-3
416.868210E-3
416.136360E-3
415.548706E-3
415.092087E-3
414.685249E-3
414.612007E-3
414.534760E-3
414.577675E-3
414.701271E-3
414.641762E-3
414.657211E-3
414.345932E-3
414.181709E-3
413.988876E-3
413.662148E-3
413.501358E-3
413.041306E-3
412.699127E-3
412.256241E-3
411.953545E-3
411.748695E-3
411.329842E-3
410.950470E-3
410.544205E-3
410.159683E-3
409.988594E-3
409.717941E-3
409.491920E-3
409.265327E-3
408.839607E-3
408.635902E-3
408.251381E-3
408.057404E-3
407.974434E-3
407.702637E-3
407.625389E-3
407.378769E-3
407.203102E-3
407.012558E-3
406.886101E-3
406.861496E-3
406.624603E-3
406.588554E-3
406.593132E-3
406.378555E-3
406.350517E-3
406.184578E-3
405.944252E-3
405.860138E-3
405.832100E-3
405.856705E-3
405.793190E-3
405.677605E-3
405.531120E-3
405.362892E-3
405.239868E-3
405.020142E-3
404.851913E-3
404.838753E-3
404.641914E-3
404.517174E-3
404.199600E-3
403.829384E-3
403.482628E-3
403.169632E-3
403.330421E-3
404.167557E-3
406.178284E-3
408.983803E-3
412.148666E-3
