Notes :


2023-11-04 ¿ÀÈÄ 9:24:03
Volts
Ch : LED 2,
577.431679E-3
576.446915E-3
575.379181E-3
574.257088E-3
572.901535E-3
571.845818E-3
570.820999E-3
570.069122E-3
569.534111E-3
569.201660E-3
569.102669E-3
568.990517E-3
569.122696E-3
569.332123E-3
569.235992E-3
569.125557E-3
568.647766E-3
568.222046E-3
567.822075E-3
567.530823E-3
567.472458E-3
567.685890E-3
567.864418E-3
568.228912E-3
568.394852E-3
568.666649E-3
568.849754E-3
569.062042E-3
569.008827E-3
568.930435E-3
568.738747E-3
568.440628E-3
568.029785E-3
567.703056E-3
567.110825E-3
566.584396E-3
566.193581E-3
565.706635E-3
565.287781E-3
564.661789E-3
564.413452E-3
564.038658E-3
563.852692E-3
563.646126E-3
563.393211E-3
563.187790E-3
563.065338E-3
562.869072E-3
562.683678E-3
562.494850E-3
562.495422E-3
562.419319E-3
562.272835E-3
562.165260E-3
562.011909E-3
562.126350E-3
562.121201E-3
561.963272E-3
561.866570E-3
561.787605E-3
561.647987E-3
561.448288E-3
561.223412E-3
561.044884E-3
560.811996E-3
560.795403E-3
560.630035E-3
560.341644E-3
560.238647E-3
560.053253E-3
559.865570E-3
559.558296E-3
559.324265E-3
559.221268E-3
559.163475E-3
558.980370E-3
558.790398E-3
558.571815E-3
558.366966E-3
558.086014E-3
557.884598E-3
557.598495E-3
557.369614E-3
557.377052E-3
557.173347E-3
557.132721E-3
557.338715E-3
557.814789E-3
559.427261E-3
561.563301E-3
564.338493E-3
567.284203E-3
570.152092E-3
572.871780E-3
574.895096E-3
576.293564E-3
576.902390E-3
576.738739E-3
576.105881E-3
574.983215E-3
573.731804E-3
572.365952E-3
571.054459E-3
569.975853E-3
568.968201E-3
568.416023E-3
567.912483E-3
567.671585E-3
567.497635E-3
567.495918E-3
567.502213E-3
567.569160E-3
567.391777E-3
567.174339E-3
566.609573E-3
566.056252E-3
565.687752E-3
565.430832E-3
565.468025E-3
565.459442E-3
565.702629E-3
565.914345E-3
566.186714E-3
566.469955E-3
566.476250E-3
566.730309E-3
566.629601E-3
566.485405E-3
566.401863E-3
565.949821E-3
565.624809E-3
565.274620E-3
564.822578E-3
564.388847E-3
563.678169E-3
563.229561E-3
562.709999E-3
562.220192E-3
561.865425E-3
561.538696E-3
561.343575E-3
561.173058E-3
560.965347E-3
560.868645E-3
560.676956E-3
560.540199E-3
560.369682E-3
560.235786E-3
560.159683E-3
560.079002E-3
560.241508E-3
560.262108E-3
560.268974E-3
560.219765E-3
560.045242E-3
560.206604E-3
560.126495E-3
560.102463E-3
560.157394E-3
560.001755E-3
559.977722E-3
559.852982E-3
559.708786E-3
559.696770E-3
559.519958E-3
559.376335E-3
559.249878E-3
559.099960E-3
558.995819E-3
558.732033E-3
558.614731E-3
558.568382E-3
558.195877E-3
558.002472E-3
557.601929E-3
557.411385E-3
557.188797E-3
556.792259E-3
556.483269E-3
556.079292E-3
555.825233E-3
555.551720E-3
555.326271E-3
555.216980E-3
555.228424E-3
555.701637E-3
557.017136E-3
558.997536E-3
561.864853E-3
564.706421E-3
567.986870E-3
570.950317E-3
573.414230E-3
575.337982E-3
576.309586E-3
576.687241E-3
576.239777E-3
575.354576E-3
574.245644E-3
572.894096E-3
571.644402E-3
570.564651E-3
569.520378E-3
568.918991E-3
568.265533E-3
568.026924E-3
567.984009E-3
568.072128E-3
568.255234E-3
568.369102E-3
568.490410E-3
568.449211E-3
568.065834E-3
567.569160E-3
567.037582E-3
566.644478E-3
566.405296E-3
566.194153E-3
566.371536E-3
566.383553E-3
566.595840E-3
566.793823E-3
566.972351E-3
567.201233E-3
567.129135E-3
567.201233E-3
567.122841E-3
566.770363E-3
566.619873E-3
566.209030E-3
565.927505E-3
565.359879E-3
564.812851E-3
564.407730E-3
563.838959E-3
563.459587E-3
563.107681E-3
562.760353E-3
562.631035E-3
562.435341E-3
562.232780E-3
562.098885E-3
561.911774E-3
561.747551E-3
561.502075E-3
561.397934E-3
561.455154E-3
561.192513E-3
561.231995E-3
561.217690E-3
561.273193E-3
561.123848E-3
560.905838E-3
560.914993E-3
560.770798E-3
560.712433E-3
560.622597E-3
560.516167E-3
560.518456E-3
560.387993E-3
560.294151E-3
560.183144E-3
559.967995E-3
559.875298E-3
559.576607E-3
559.496498E-3
559.321404E-3
559.091949E-3
558.908272E-3
558.810425E-3
558.734894E-3
558.581543E-3
558.340073E-3
558.344650E-3
558.179855E-3
557.897758E-3
557.594490E-3
557.441711E-3
557.308388E-3
556.931305E-3
556.859207E-3
556.816864E-3
556.820297E-3
557.151604E-3
557.971573E-3
559.808350E-3
562.180710E-3
565.008545E-3
568.104744E-3
571.104240E-3
573.695183E-3
575.668144E-3
576.823997E-3
577.471733E-3
577.256012E-3
576.512718E-3
575.440407E-3
574.126053E-3
572.900391E-3
571.593475E-3
570.559502E-3
569.727516E-3
569.248009E-3
568.919563E-3
568.786812E-3
568.822289E-3
568.931580E-3
568.973923E-3
569.110107E-3
568.856621E-3
568.599129E-3
568.120193E-3
567.656708E-3
567.367172E-3
567.120552E-3
567.106247E-3
567.272186E-3
567.534828E-3
567.800331E-3
567.938232E-3
568.198013E-3
568.311310E-3
568.313026E-3
568.273544E-3
567.962837E-3
567.727661E-3
567.323112E-3
566.889954E-3
566.489983E-3
565.956688E-3
565.524101E-3
564.945030E-3
564.506721E-3
564.126205E-3
563.711357E-3
563.457298E-3
563.230133E-3
562.948036E-3
562.917709E-3
562.655640E-3
562.552643E-3
562.350655E-3
562.171555E-3
562.153816E-3
562.054253E-3
561.974716E-3
562.036514E-3
561.960983E-3
561.980438E-3
561.827087E-3
561.800766E-3
561.813354E-3
561.574173E-3
561.626816E-3
561.294365E-3
561.357880E-3
561.352158E-3
561.199379E-3
561.149597E-3
560.933876E-3
560.841751E-3
560.837746E-3
560.660934E-3
560.539055E-3
560.281563E-3
560.104752E-3
560.009193E-3
559.814072E-3
559.809494E-3
559.577751E-3
559.302521E-3
559.127998E-3
558.699989E-3
558.592415E-3
558.258247E-3
557.992744E-3
557.855988E-3
557.706070E-3
557.730675E-3
557.917786E-3
558.724594E-3
560.290718E-3
562.652779E-3
565.500641E-3
568.436623E-3
571.372032E-3
574.037361E-3
575.994873E-3
577.372742E-3
577.769279E-3
577.598763E-3
576.815414E-3
575.607491E-3
574.328613E-3
572.875214E-3
571.582603E-3
570.599556E-3
569.555283E-3
569.027710E-3
568.492699E-3
568.247795E-3
568.079567E-3
568.096161E-3
568.093300E-3
567.942810E-3
567.684174E-3
567.273903E-3
566.708565E-3
566.255951E-3
565.881729E-3
565.662575E-3
565.774155E-3
565.916061E-3
566.249657E-3
566.538620E-3
566.789818E-3
567.140579E-3
567.185211E-3
567.414665E-3
567.251587E-3
567.038727E-3
566.837311E-3
566.449928E-3
566.147804E-3
565.589333E-3
565.187073E-3
564.739037E-3
564.066124E-3
563.723373E-3
563.230133E-3
562.896538E-3
562.641907E-3
562.199020E-3
562.054825E-3
561.934662E-3
561.762428E-3
561.721802E-3
561.516380E-3
561.499214E-3
561.296082E-3
561.190796E-3
561.197662E-3
561.090660E-3
561.055183E-3
560.955048E-3
560.967636E-3
560.918427E-3
560.782814E-3
560.763931E-3
560.560799E-3
560.488701E-3
560.470390E-3
560.322762E-3
560.302162E-3
560.137367E-3
559.957123E-3
559.895897E-3
559.688759E-3
559.443855E-3
559.224129E-3
559.114265E-3
559.059906E-3
558.776665E-3
558.685112E-3
558.549500E-3
558.357239E-3
558.348083E-3
558.079720E-3
557.949829E-3
557.695770E-3
557.425117E-3
557.224846E-3
556.908417E-3
556.670380E-3
556.413460E-3
556.264687E-3
556.281853E-3
556.406593E-3
557.441711E-3
558.915710E-3
561.345863E-3
564.349937E-3
567.407799E-3
570.663071E-3
573.513794E-3
575.898170E-3
577.524948E-3
578.088570E-3
578.154945E-3
577.458000E-3
576.409149E-3
575.098228E-3
573.614502E-3
572.471809E-3
571.288490E-3
570.426750E-3
569.850540E-3
569.417381E-3
569.375038E-3
569.219971E-3
569.174194E-3
569.329834E-3
569.310951E-3
569.415092E-3
569.091797E-3
568.609428E-3
568.046951E-3
567.468452E-3
567.083359E-3
566.824150E-3
566.820145E-3
566.910553E-3
566.875076E-3
567.144012E-3
567.223549E-3
567.361450E-3
567.520523E-3
567.383766E-3
567.388916E-3
567.121696E-3
566.927147E-3
566.671371E-3
566.136932E-3
565.736961E-3
565.214539E-3
564.680672E-3
564.208603E-3
563.606071E-3
563.271904E-3
563.014984E-3
562.579536E-3
562.494850E-3
562.187576E-3
562.058258E-3
561.855698E-3
561.715508E-3
561.631393E-3
561.323547E-3
561.308098E-3
561.143875E-3
561.090088E-3
561.109543E-3
560.973358E-3
560.948181E-3
560.966492E-3
560.837173E-3
560.696983E-3
560.478973E-3
560.370827E-3
560.160255E-3
560.109329E-3
559.998322E-3
559.792900E-3
559.665298E-3
559.527397E-3
559.368324E-3
559.171486E-3
558.899117E-3
558.805847E-3
558.682823E-3
558.462524E-3
558.506012E-3
558.165550E-3
558.041382E-3
557.880020E-3
557.747841E-3
557.637978E-3
557.389641E-3
557.298088E-3
557.172203E-3
556.983948E-3
556.893539E-3
556.407738E-3
556.232071E-3
556.016350E-3
555.818939E-3
555.821228E-3
555.773735E-3
556.261826E-3
557.425117E-3
559.362602E-3
561.997032E-3
565.007973E-3
568.140221E-3
571.035576E-3
573.360443E-3
575.137711E-3
576.026344E-3
576.294708E-3
575.683022E-3
574.736023E-3
573.363304E-3
571.864700E-3
570.441055E-3
569.135284E-3
567.945099E-3
567.178345E-3
566.484833E-3
566.087151E-3
565.859985E-3
565.791321E-3
565.845108E-3
565.747261E-3
565.617943E-3
565.014267E-3
564.178276E-3
562.926292E-3
561.021996E-3
559.312248E-3
557.898903E-3
556.809425E-3
556.166267E-3
555.648994E-3
555.560303E-3
555.804634E-3
556.186867E-3
556.785965E-3
556.966209E-3
557.112694E-3
556.922722E-3
556.532478E-3
556.282425E-3
555.819511E-3
555.409813E-3
554.978943E-3
554.567528E-3
554.286575E-3
553.898621E-3
553.601646E-3
553.297806E-3
552.849770E-3
552.614021E-3
552.291870E-3
552.186012E-3
552.020645E-3
551.800346E-3
551.728821E-3
551.529694E-3
551.477051E-3
551.508522E-3
551.371765E-3
551.386070E-3
551.248741E-3
551.316261E-3
551.281929E-3
551.220131E-3
551.277351E-3
551.161766E-3
551.045609E-3
550.955772E-3
550.884819E-3
550.921440E-3
550.708008E-3
550.742912E-3
550.584412E-3
550.473976E-3
550.365257E-3
550.138664E-3
550.128937E-3
549.928093E-3
549.742699E-3
549.722672E-3
549.476624E-3
549.401665E-3
549.240875E-3
549.112701E-3
549.003410E-3
548.834038E-3
548.772240E-3
548.598862E-3
548.411179E-3
548.205757E-3
547.897339E-3
547.695923E-3
547.602081E-3
547.460747E-3
547.547150E-3
547.734833E-3
548.543930E-3
550.073433E-3
552.327919E-3
555.277634E-3
558.190155E-3
561.257744E-3
563.899040E-3
565.880585E-3
567.200089E-3
567.573738E-3
567.407227E-3
566.554642E-3
565.302086E-3
563.927650E-3
562.486267E-3
561.179924E-3
560.098457E-3
559.054184E-3
558.558655E-3
557.993317E-3
557.781601E-3
557.627678E-3
557.644272E-3
557.779312E-3
557.604218E-3
557.359886E-3
556.936455E-3
556.341362E-3
556.068993E-3
555.746269E-3
555.816650E-3
555.972290E-3
556.204033E-3
556.681252E-3
557.041168E-3
557.393074E-3
557.610512E-3
557.740402E-3
557.900620E-3
557.744980E-3
557.530403E-3
557.211113E-3
556.829453E-3
556.446648E-3
555.837822E-3
555.414963E-3
554.933739E-3
554.319763E-3
553.820801E-3
553.356171E-3
553.044891E-3
552.583694E-3
552.276993E-3
552.144814E-3
551.916504E-3
551.748848E-3
551.620102E-3
551.381493E-3
551.400375E-3
551.162338E-3
551.208687E-3
551.095390E-3
550.962639E-3
550.972939E-3
550.993538E-3
550.901413E-3
550.960350E-3
550.815582E-3
550.819016E-3
550.748634E-3
550.644493E-3
550.522614E-3
550.345802E-3
550.416183E-3
550.369263E-3
550.188446E-3
549.942398E-3
549.694633E-3
549.635124E-3
549.393654E-3
549.302673E-3
549.141312E-3
548.892403E-3
548.842049E-3
548.620033E-3
548.464394E-3
548.331642E-3
548.178291E-3
548.095322E-3
547.872734E-3
547.916222E-3
547.681618E-3
547.337723E-3
547.227287E-3
546.932030E-3
546.794701E-3
546.637344E-3
546.386147E-3
546.714592E-3
547.356606E-3
548.780823E-3
550.963211E-3
553.773308E-3
556.999969E-3
560.052109E-3
563.065338E-3
565.480042E-3
567.081070E-3
567.830086E-3
567.879868E-3
567.359161E-3
566.329765E-3
564.908981E-3
563.544846E-3
562.090874E-3
560.852623E-3
559.978867E-3
559.140587E-3
558.833313E-3
558.493996E-3
558.395576E-3
558.372116E-3
558.399582E-3
558.601570E-3
558.608437E-3
558.433342E-3
557.976723E-3
557.450294E-3
557.069206E-3
556.553650E-3
556.547356E-3
556.486702E-3
556.479263E-3
556.834030E-3
556.941605E-3
557.095528E-3
557.364464E-3
557.429695E-3
557.534981E-3
557.397079E-3
557.174492E-3
556.944466E-3
556.547928E-3
556.249237E-3
555.699921E-3
555.336571E-3
554.833031E-3
554.259682E-3
553.911209E-3
553.334999E-3
553.001404E-3
552.738190E-3
552.458954E-3
552.213478E-3
551.906776E-3
551.794052E-3
551.684761E-3
551.441574E-3
551.479912E-3
551.289368E-3
551.295662E-3
551.195526E-3
551.071930E-3
551.194954E-3
550.903130E-3
550.845337E-3
550.813866E-3
550.709152E-3
550.606155E-3
550.513458E-3
550.402451E-3
550.344658E-3
550.179291E-3
550.114059E-3
549.996185E-3
549.760437E-3
549.722672E-3
549.362183E-3
549.268341E-3
549.050903E-3
548.851776E-3
548.796272E-3
548.572540E-3
548.467255E-3
548.270988E-3
548.034096E-3
548.014069E-3
547.806358E-3
547.790337E-3
547.662735E-3
547.515106E-3
547.369766E-3
547.086525E-3
546.932030E-3
546.595001E-3
546.433067E-3
546.221352E-3
545.978737E-3
545.923233E-3
545.940971E-3
546.327782E-3
547.429848E-3
549.187088E-3
551.919937E-3
554.825592E-3
557.945824E-3
560.996246E-3
563.555717E-3
565.472603E-3
566.576385E-3
566.896820E-3
566.572952E-3
565.599060E-3
564.348221E-3
562.938309E-3
561.540985E-3
560.298729E-3
559.173775E-3
558.350945E-3
557.749557E-3
557.354736E-3
557.296371E-3
557.234001E-3
557.398796E-3
557.461739E-3
557.544708E-3
557.484627E-3
557.098389E-3
556.758499E-3
556.187439E-3
555.852127E-3
555.600357E-3
555.477905E-3
555.764008E-3
555.948257E-3
556.079292E-3
556.348801E-3
556.348801E-3
556.676674E-3
556.713295E-3
556.590843E-3
556.487274E-3
556.136513E-3
555.875587E-3
555.394363E-3
555.074501E-3
554.621887E-3
554.129219E-3
553.634262E-3
553.228569E-3
552.818871E-3
552.536201E-3
552.123642E-3
551.868439E-3
551.584053E-3
551.384354E-3
551.287651E-3
551.079369E-3
551.021004E-3
550.919724E-3
550.723457E-3
550.780678E-3
550.557518E-3
550.584412E-3
550.485992E-3
550.416183E-3
550.420189E-3
550.281715E-3
550.285721E-3
550.166130E-3
550.049400E-3
550.036812E-3
549.861145E-3
549.844551E-3
549.657440E-3
549.529839E-3
549.495506E-3
549.172783E-3
549.180222E-3
549.057198E-3
548.756790E-3
548.652649E-3
548.451805E-3
548.393440E-3
548.236656E-3
548.085022E-3
547.931099E-3
547.751427E-3
547.669029E-3
547.566032E-3
547.351456E-3
547.285080E-3
546.964645E-3
546.756935E-3
546.548653E-3
546.191597E-3
546.093178E-3
545.899200E-3
545.982742E-3
546.150398E-3
546.734047E-3
548.214340E-3
550.364685E-3
553.119278E-3
556.067276E-3
558.844185E-3
561.539268E-3
563.292503E-3
564.560509E-3
564.993095E-3
564.751625E-3
563.952255E-3
562.666512E-3
561.304092E-3
559.821510E-3
558.520889E-3
557.430840E-3
556.420898E-3
555.868721E-3
555.435562E-3
555.104256E-3
554.997826E-3
554.969788E-3
554.981804E-3
554.798126E-3
554.645348E-3
554.302025E-3
553.739548E-3
553.443718E-3
553.324699E-3
553.304672E-3
553.475761E-3
553.761292E-3
554.168129E-3
554.523468E-3
554.728317E-3
555.101395E-3
555.229568E-3
555.317116E-3
555.261612E-3
554.952049E-3
554.676819E-3
554.304886E-3
554.021072E-3
553.529549E-3
552.900696E-3
