Notes :


2023-11-04 ¿ÀÈÄ 7:15:44
Volts
Ch : LED 2,
574.869919E-3
574.816704E-3
574.528885E-3
574.120903E-3
573.817062E-3
573.620224E-3
573.473740E-3
573.196793E-3
572.864914E-3
572.546768E-3
572.099876E-3
571.665573E-3
571.191788E-3
570.768356E-3
570.380402E-3
569.934654E-3
569.560432E-3
569.067192E-3
568.557358E-3
568.033218E-3
567.730522E-3
567.584610E-3
567.648125E-3
567.611504E-3
567.802048E-3
568.211174E-3
569.637108E-3
572.238350E-3
575.840378E-3
580.115891E-3
584.728432E-3
589.259148E-3
593.196487E-3
595.952225E-3
597.574997E-3
597.847366E-3
597.239113E-3
595.821762E-3
593.934059E-3
591.996002E-3
590.094566E-3
588.409424E-3
586.893082E-3
585.761833E-3
584.864616E-3
584.337044E-3
584.107018E-3
584.240341E-3
584.432602E-3
584.574509E-3
584.502983E-3
584.121895E-3
583.169174E-3
581.978416E-3
580.859184E-3
580.010033E-3
579.551125E-3
579.305649E-3
579.446411E-3
579.907036E-3
580.524445E-3
581.083488E-3
581.560135E-3
582.032776E-3
582.270241E-3
582.219315E-3
581.993866E-3
581.693459E-3
581.241417E-3
580.615997E-3
580.072975E-3
579.512215E-3
578.893089E-3
578.321457E-3
577.720070E-3
577.190781E-3
576.836586E-3
576.461792E-3
576.214600E-3
575.997734E-3
575.618362E-3
575.351715E-3
575.180054E-3
574.958038E-3
574.662209E-3
574.476814E-3
574.439621E-3
574.277115E-3
574.148369E-3
574.171257E-3
574.081421E-3
573.972130E-3
573.884583E-3
574.008751E-3
574.051666E-3
573.988724E-3
574.018478E-3
574.107742E-3
574.134064E-3
574.251938E-3
574.301147E-3
574.356651E-3
574.366951E-3
574.381828E-3
574.413300E-3
574.399567E-3
574.271393E-3
574.226761E-3
574.087143E-3
573.845673E-3
573.570442E-3
573.344994E-3
572.957039E-3
572.597694E-3
572.408867E-3
572.109032E-3
572.008896E-3
571.895027E-3
571.936226E-3
572.119904E-3
572.518730E-3
573.873138E-3
576.220894E-3
579.668999E-3
583.831787E-3
588.479805E-3
593.154144E-3
597.172737E-3
600.212288E-3
602.187538E-3
602.851295E-3
602.506828E-3
601.159286E-3
599.486160E-3
597.508049E-3
595.579720E-3
593.744659E-3
592.097855E-3
591.058731E-3
590.318298E-3
589.879417E-3
589.792442E-3
589.878845E-3
590.088272E-3
590.313148E-3
590.425873E-3
590.302849E-3
589.639664E-3
588.559341E-3
587.421799E-3
586.304283E-3
585.473442E-3
584.984779E-3
584.844017E-3
585.048866E-3
585.350418E-3
585.903740E-3
586.375809E-3
586.974335E-3
587.352562E-3
587.480736E-3
587.461853E-3
587.305641E-3
586.948013E-3
586.569786E-3
585.948372E-3
585.316086E-3
584.646034E-3
584.026909E-3
583.328247E-3
582.721710E-3
582.233047E-3
581.739807E-3
581.335258E-3
580.951881E-3
580.556488E-3
580.407715E-3
580.179405E-3
579.924202E-3
579.808044E-3
579.490471E-3
579.314804E-3
579.175758E-3
579.011536E-3
578.955460E-3
578.857613E-3
578.739166E-3
578.713417E-3
578.622437E-3
578.506279E-3
578.389549E-3
578.477669E-3
578.400421E-3
578.212166E-3
578.077126E-3
577.880859E-3
577.796745E-3
577.616501E-3
577.610779E-3
577.540970E-3
577.449989E-3
577.432251E-3
577.302933E-3
577.122688E-3
577.085495E-3
576.886368E-3
576.656342E-3
576.445770E-3
576.207161E-3
575.960541E-3
575.681305E-3
575.440407E-3
575.062752E-3
574.757767E-3
574.580383E-3
574.469376E-3
574.491692E-3
574.661636E-3
575.059319E-3
576.378822E-3
578.897095E-3
582.628441E-3
587.084770E-3
591.952515E-3
596.831131E-3
601.237679E-3
604.512405E-3
606.594086E-3
607.264137E-3
606.992340E-3
605.851364E-3
604.211998E-3
602.311707E-3
600.381088E-3
598.571777E-3
597.097206E-3
596.014595E-3
595.345116E-3
594.985199E-3
594.911385E-3
594.956589E-3
595.163727E-3
595.457268E-3
595.656395E-3
595.531082E-3
594.881058E-3
593.849373E-3
592.472076E-3
590.979767E-3
589.860535E-3
588.982201E-3
588.431740E-3
588.284683E-3
588.321304E-3
588.688087E-3
589.071465E-3
589.618492E-3
590.028763E-3
590.200424E-3
590.242195E-3
589.998436E-3
589.770126E-3
589.321518E-3
588.848877E-3
588.100433E-3
587.319374E-3
586.675072E-3
585.922623E-3
585.135841E-3
584.498978E-3
583.990860E-3
583.424377E-3
582.947159E-3
582.364082E-3
581.988716E-3
581.570435E-3
581.286621E-3
580.919838E-3
580.606842E-3
580.407143E-3
580.142212E-3
579.953957E-3
579.790878E-3
579.607201E-3
579.469299E-3
579.109383E-3
578.990936E-3
578.798103E-3
578.609276E-3
578.482819E-3
578.229332E-3
577.962112E-3
577.784729E-3
577.474022E-3
577.241707E-3
576.845741E-3
576.494980E-3
576.217461E-3
575.976562E-3
575.749969E-3
575.401497E-3
575.351715E-3
575.204659E-3
575.093651E-3
575.045586E-3
574.915123E-3
574.720573E-3
574.587250E-3
574.320030E-3
574.045944E-3
573.768997E-3
573.502922E-3
573.178482E-3
572.796249E-3
572.510719E-3
572.161102E-3
572.119904E-3
571.986580E-3
571.797752E-3
571.808624E-3
572.042084E-3
573.014259E-3
575.181770E-3
578.525162E-3
582.795525E-3
587.549973E-3
592.212868E-3
596.452332E-3
599.650383E-3
601.732063E-3
602.236176E-3
601.819038E-3
600.572205E-3
598.800087E-3
596.858025E-3
594.825554E-3
592.856598E-3
591.184044E-3
589.847946E-3
589.049721E-3
588.553047E-3
588.332748E-3
588.320732E-3
588.534737E-3
588.896370E-3
589.090347E-3
588.926125E-3
588.271523E-3
587.156868E-3
586.009026E-3
584.932137E-3
584.298134E-3
583.899879E-3
583.810043E-3
584.200859E-3
584.763908E-3
585.342979E-3
585.898590E-3
586.312294E-3
586.688805E-3
586.743736E-3
586.499977E-3
586.322594E-3
585.967255E-3
585.433388E-3
584.888077E-3
584.415436E-3
583.881569E-3
583.309937E-3
582.884789E-3
582.397270E-3
581.877136E-3
581.406212E-3
580.973625E-3
580.588531E-3
580.227470E-3
579.908180E-3
579.646683E-3
579.384613E-3
579.203796E-3
578.948593E-3
578.802109E-3
578.667068E-3
578.457069E-3
578.284264E-3
578.071976E-3
577.999306E-3
577.901459E-3
577.765846E-3
577.626228E-3
577.589607E-3
577.603912E-3
577.593040E-3
577.482605E-3
577.402496E-3
577.243423E-3
577.037430E-3
576.865768E-3
576.719856E-3
576.513290E-3
576.434326E-3
576.358223E-3
576.294708E-3
576.196861E-3
576.089859E-3
575.902176E-3
575.890160E-3
575.787735E-3
575.547409E-3
575.348854E-3
575.074768E-3
574.724007E-3
574.425888E-3
574.152946E-3
573.981857E-3
573.973274E-3
573.905182E-3
573.936653E-3
573.893166E-3
574.352646E-3
575.382042E-3
577.645683E-3
581.113243E-3
585.286903E-3
589.995575E-3
594.780350E-3
599.019241E-3
602.362633E-3
604.355621E-3
605.310631E-3
605.035400E-3
603.852081E-3
602.295113E-3
600.256920E-3
598.190117E-3
596.245766E-3
594.538879E-3
593.164444E-3
592.228889E-3
591.676140E-3
591.434669E-3
591.455269E-3
591.771126E-3
591.974258E-3
592.223740E-3
592.231750E-3
591.763687E-3
590.990067E-3
589.821625E-3
588.972473E-3
588.091278E-3
587.550545E-3
587.303925E-3
587.386894E-3
587.917328E-3
588.343620E-3
588.840294E-3
589.412498E-3
589.698029E-3
589.976120E-3
590.012741E-3
589.789581E-3
589.540100E-3
589.076042E-3
588.617706E-3
588.125038E-3
587.413216E-3
586.772346E-3
586.052513E-3
585.437393E-3
584.858894E-3
584.307289E-3
583.744240E-3
583.324242E-3
583.085060E-3
582.689667E-3
582.341194E-3
582.172394E-3
581.914330E-3
581.728935E-3
581.492615E-3
581.195641E-3
581.109238E-3
580.914116E-3
580.776215E-3
580.653191E-3
580.405998E-3
580.334473E-3
580.201149E-3
580.169106E-3
580.048943E-3
579.861832E-3
579.634666E-3
579.487038E-3
579.384041E-3
579.199219E-3
578.945732E-3
578.774643E-3
578.511429E-3
578.345490E-3
578.054237E-3
577.825356E-3
577.762985E-3
577.617645E-3
577.456284E-3
577.445412E-3
577.239418E-3
577.240562E-3
577.205658E-3
577.160454E-3
577.068329E-3
576.888084E-3
576.639748E-3
576.405144E-3
576.185417E-3
575.853539E-3
575.604630E-3
575.293922E-3
575.028992E-3
574.885941E-3
574.920273E-3
574.988365E-3
575.574303E-3
577.090073E-3
579.938507E-3
583.927917E-3
588.483810E-3
593.510056E-3
598.423576E-3
602.601242E-3
605.617332E-3
607.421494E-3
608.013153E-3
607.479286E-3
606.133461E-3
604.373360E-3
602.245903E-3
600.150490E-3
598.214722E-3
596.575928E-3
595.235825E-3
594.312286E-3
594.014740E-3
593.805313E-3
593.854523E-3
594.049072E-3
594.349480E-3
594.517708E-3
594.315720E-3
593.787575E-3
592.852020E-3
591.537666E-3
590.249062E-3
589.097214E-3
588.339615E-3
587.848663E-3
587.511063E-3
587.594604E-3
587.904167E-3
588.290977E-3
588.671494E-3
588.967896E-3
589.211655E-3
589.136124E-3
588.955879E-3
588.747597E-3
588.279533E-3
587.946510E-3
587.236977E-3
586.519432E-3
585.894585E-3
585.203934E-3
584.460068E-3
583.752251E-3
583.126259E-3
582.663345E-3
582.147789E-3
581.645966E-3
581.242561E-3
580.941582E-3
580.623436E-3
580.146790E-3
579.942513E-3
579.707336E-3
579.475021E-3
579.218674E-3
578.925133E-3
578.694534E-3
578.360367E-3
578.220177E-3
578.122902E-3
577.971268E-3
577.847672E-3
577.655411E-3
577.609062E-3
577.411079E-3
577.187920E-3
577.019119E-3
576.710701E-3
576.572227E-3
576.221466E-3
575.923920E-3
575.588608E-3
575.389481E-3
575.103951E-3
574.905396E-3
574.715424E-3
574.683952E-3
574.479103E-3
574.449921E-3
574.337769E-3
574.181557E-3
574.070549E-3
573.876572E-3
573.682594E-3
573.474884E-3
573.204803E-3
572.927856E-3
572.528458E-3
572.089005E-3
571.757126E-3
571.713638E-3
571.720505E-3
571.507645E-3
571.491623E-3
571.485901E-3
572.285271E-3
574.167824E-3
577.185631E-3
581.164742E-3
585.558701E-3
590.118027E-3
594.397545E-3
597.905159E-3
600.132179E-3
601.041412E-3
600.871468E-3
599.843216E-3
598.262215E-3
596.234894E-3
594.205284E-3
592.136192E-3
590.271950E-3
588.752174E-3
587.697029E-3
587.075615E-3
586.758041E-3
586.620712E-3
586.698532E-3
586.903381E-3
587.012100E-3
586.952591E-3
586.422157E-3
585.455132E-3
584.537315E-3
583.697319E-3
583.036995E-3
582.824135E-3
582.826424E-3
583.189201E-3
583.759689E-3
584.306145E-3
584.928131E-3
585.300636E-3
585.667419E-3
585.851669E-3
585.843658E-3
585.659981E-3
585.300064E-3
584.972763E-3
584.500122E-3
583.996010E-3
583.519936E-3
582.960892E-3
582.459641E-3
582.106018E-3
581.542969E-3
581.212807E-3
580.820847E-3
580.494118E-3
580.244637E-3
580.024910E-3
579.844093E-3
579.590034E-3
579.329681E-3
579.250145E-3
579.044151E-3
578.923416E-3
578.807831E-3
578.651047E-3
578.485107E-3
578.224754E-3
578.186989E-3
578.102875E-3
578.118324E-3
578.087425E-3
578.097725E-3
578.049660E-3
577.913475E-3
577.730370E-3
577.501488E-3
577.325821E-3
577.193642E-3
577.064323E-3
576.942444E-3
576.931000E-3
576.729584E-3
576.628304E-3
576.607704E-3
576.398849E-3
576.267242E-3
575.897598E-3
575.763130E-3
575.582314E-3
575.268173E-3
574.994659E-3
574.695396E-3
574.408722E-3
574.102592E-3
573.994446E-3
573.977280E-3
573.899460E-3
573.976707E-3
574.233055E-3
575.098228E-3
577.074623E-3
580.171394E-3
584.230614E-3
588.919830E-3
593.563843E-3
598.103714E-3
601.669693E-3
604.181099E-3
605.366135E-3
605.397606E-3
604.575348E-3
603.077888E-3
601.234818E-3
599.336243E-3
597.440529E-3
595.738220E-3
594.305420E-3
593.372726E-3
592.814255E-3
592.517853E-3
592.474365E-3
592.633438E-3
592.926979E-3
593.144417E-3
593.289185E-3
592.913246E-3
592.074966E-3
591.169739E-3
590.139198E-3
589.168167E-3
588.636589E-3
588.230896E-3
588.297844E-3
588.611984E-3
589.031410E-3
589.554977E-3
589.994431E-3
590.330887E-3
590.497971E-3
590.567207E-3
590.677643E-3
590.455055E-3
590.150070E-3
589.668274E-3
589.065742E-3
588.427162E-3
587.683296E-3
586.978340E-3
586.287117E-3
585.717201E-3
585.320663E-3
584.709549E-3
584.346771E-3
584.054947E-3
583.819199E-3
583.568001E-3
583.185768E-3
582.974625E-3
582.800102E-3
582.594109E-3
582.312012E-3
582.022476E-3
581.991577E-3
581.676292E-3
581.452560E-3
581.411934E-3
581.458282E-3
581.377029E-3
581.275749E-3
581.121254E-3
581.102943E-3
580.930710E-3
580.730438E-3
580.649757E-3
580.522728E-3
580.323601E-3
580.084991E-3
579.983139E-3
579.814339E-3
579.529953E-3
579.319954E-3
579.088211E-3
579.152870E-3
579.107666E-3
578.977776E-3
578.804398E-3
578.718567E-3
578.600693E-3
578.366661E-3
578.263664E-3
578.085136E-3
577.900887E-3
577.627945E-3
577.342415E-3
577.012825E-3
576.741600E-3
576.424026E-3
576.477242E-3
576.573944E-3
576.652336E-3
577.425385E-3
579.214096E-3
582.267952E-3
586.207008E-3
590.862465E-3
595.834923E-3
600.340462E-3
604.175949E-3
606.819534E-3
608.154488E-3
608.416557E-3
607.555389E-3
606.151772E-3
604.416847E-3
602.481079E-3
600.637436E-3
599.006653E-3
597.806168E-3
596.816826E-3
596.183968E-3
595.921898E-3
595.926476E-3
596.056366E-3
596.295547E-3
596.676636E-3
596.896362E-3
596.666908E-3
596.112442E-3
595.030403E-3
593.807030E-3
592.654037E-3
591.620064E-3
591.014099E-3
590.733147E-3
590.658760E-3
590.875626E-3
591.241837E-3
591.696167E-3
592.054939E-3
592.449760E-3
592.663193E-3
592.570496E-3
592.371368E-3
591.882133E-3
591.443825E-3
590.924263E-3
590.218163E-3
589.502907E-3
588.836288E-3
588.097000E-3
587.531090E-3
586.834717E-3
586.311722E-3
585.867691E-3
585.460854E-3
584.986496E-3
584.607124E-3
584.263229E-3
583.979988E-3
583.527946E-3
583.332825E-3
582.964325E-3
582.783508E-3
582.621002E-3
582.423019E-3
582.213593E-3
581.936073E-3
581.863403E-3
581.696892E-3
581.550980E-3
581.346130E-3
581.275177E-3
581.056595E-3
580.821991E-3
580.632019E-3
580.399704E-3
580.126762E-3
579.915619E-3
579.661560E-3
579.366302E-3
579.119110E-3
578.835869E-3
578.668785E-3
578.609848E-3
578.368950E-3
578.323746E-3
578.142929E-3
578.239632E-3
578.186417E-3
578.106308E-3
578.022766E-3
577.872849E-3
577.662849E-3
577.439690E-3
577.228546E-3
577.024269E-3
576.807976E-3
576.527596E-3
576.251793E-3
576.199722E-3
576.182556E-3
576.095009E-3
576.155090E-3
576.395416E-3
577.331543E-3
579.497910E-3
582.613564E-3
586.608124E-3
590.965462E-3
595.408058E-3
599.469566E-3
602.500534E-3
604.486084E-3
605.025101E-3
604.476357E-3
603.251839E-3
601.447105E-3
599.463844E-3
597.497749E-3
595.531082E-3
593.897438E-3
592.536736E-3
591.534805E-3
590.992928E-3
590.686798E-3
590.706253E-3
590.832138E-3
591.063309E-3
591.156006E-3
590.861320E-3
590.233040E-3
589.154434E-3
588.054085E-3
587.194061E-3
586.548042E-3
586.361504E-3
586.419868E-3
586.953735E-3
587.525940E-3
587.912750E-3
588.413429E-3
588.886642E-3
589.119530E-3
589.153290E-3
589.038849E-3
588.818550E-3
588.486671E-3
587.984276E-3
587.571144E-3
586.935425E-3
586.537170E-3
585.902596E-3
585.381889E-3
584.943581E-3
584.647179E-3
584.336472E-3
584.007454E-3
583.581161E-3
583.403778E-3
583.086777E-3
582.961464E-3
582.717705E-3
582.592964E-3
582.549477E-3
582.360077E-3
582.338905E-3
582.323456E-3
582.129478E-3
582.004166E-3
581.798744E-3
581.805038E-3
581.792450E-3
581.705475E-3
581.733513E-3
581.656837E-3
581.640816E-3
581.468010E-3
581.362724E-3
581.216812E-3
581.033134E-3
580.851173E-3
580.712128E-3
580.598259E-3
580.563354E-3
580.329895E-3
580.282974E-3
580.062103E-3
579.884720E-3
579.737663E-3
579.526520E-3
579.349136E-3
578.902817E-3
578.574944E-3
578.159523E-3
577.884293E-3
577.409935E-3
577.180481E-3
577.095222E-3
576.980209E-3
