Notes :


2023-10-23 ¿ÀÈÄ 9:06:24
Volts
Ch : LED 2,
643.891525E-3
646.211243E-3
643.163109E-3
646.452141E-3
644.536972E-3
642.042732E-3
645.376396E-3
641.362953E-3
645.265388E-3
644.222260E-3
640.866852E-3
643.860626E-3
639.518166E-3
643.841171E-3
642.856407E-3
639.406586E-3
642.798042E-3
638.652992E-3
641.843605E-3
641.543198E-3
638.266182E-3
640.803337E-3
637.696838E-3
641.032219E-3
639.795113E-3
636.657715E-3
639.412308E-3
637.205887E-3
641.857338E-3
642.529106E-3
642.662430E-3
649.437332E-3
650.858116E-3
657.515144E-3
659.277534E-3
658.522224E-3
664.288330E-3
660.539818E-3
663.174820E-3
660.459137E-3
656.037140E-3
658.608627E-3
653.017616E-3
653.841591E-3
652.086639E-3
648.043442E-3
652.860260E-3
648.466873E-3
650.874138E-3
650.726509E-3
647.637177E-3
653.668785E-3
649.106026E-3
651.416016E-3
649.082565E-3
644.303513E-3
649.689674E-3
645.864487E-3
648.119545E-3
647.752762E-3
644.435692E-3
651.243782E-3
646.437263E-3
650.494194E-3
649.972916E-3
646.449852E-3
651.375389E-3
646.073914E-3
648.292923E-3
647.099876E-3
643.548203E-3
648.884010E-3
643.264389E-3
644.606781E-3
643.294144E-3
639.102173E-3
644.915771E-3
639.443779E-3
641.358948E-3
640.714073E-3
637.205887E-3
642.961121E-3
638.761139E-3
641.753197E-3
640.931511E-3
636.932945E-3
642.501068E-3
637.764931E-3
639.983368E-3
640.137863E-3
636.618233E-3
642.640686E-3
637.774658E-3
639.939308E-3
640.234566E-3
636.439705E-3
643.169403E-3
637.799835E-3
639.488983E-3
639.767075E-3
636.325836E-3
643.103027E-3
636.890602E-3
638.610649E-3
639.230919E-3
635.378838E-3
641.895103E-3
635.969925E-3
638.116264E-3
638.406944E-3
634.206390E-3
640.633392E-3
634.594917E-3
636.894035E-3
637.742043E-3
633.506012E-3
640.373039E-3
634.256172E-3
636.226845E-3
636.627960E-3
633.225060E-3
639.372253E-3
634.244156E-3
637.103462E-3
640.338707E-3
637.541771E-3
648.890877E-3
648.033142E-3
653.550911E-3
658.147430E-3
657.656479E-3
665.102005E-3
660.349846E-3
661.153221E-3
660.938644E-3
653.548050E-3
659.975052E-3
653.253365E-3
653.098297E-3
652.973557E-3
649.192429E-3
654.159737E-3
649.286842E-3
650.739098E-3
651.759911E-3
649.952888E-3
656.325531E-3
651.028061E-3
651.755333E-3
652.034569E-3
646.064758E-3
652.192497E-3
646.582031E-3
648.112679E-3
648.889160E-3
645.856476E-3
651.466942E-3
646.301651E-3
648.959541E-3
650.043869E-3
647.428322E-3
653.160667E-3
647.831726E-3
649.103165E-3
649.413300E-3
646.035576E-3
651.590538E-3
645.112038E-3
645.889664E-3
647.025490E-3
643.215752E-3
647.567368E-3
642.367744E-3
642.966270E-3
643.778229E-3
640.535545E-3
646.364021E-3
641.599846E-3
642.250443E-3
643.379974E-3
640.258026E-3
646.352005E-3
640.566444E-3
640.673447E-3
642.331123E-3
639.507866E-3
645.683098E-3
640.592194E-3
641.946602E-3
642.551994E-3
639.236641E-3
645.138359E-3
639.601135E-3
642.011261E-3
642.418671E-3
639.123344E-3
644.844818E-3
639.174843E-3
640.479469E-3
641.550064E-3
638.777161E-3
644.172478E-3
638.998604E-3
639.637184E-3
640.382195E-3
637.873077E-3
642.447853E-3
637.726021E-3
638.484192E-3
639.256096E-3
635.982513E-3
641.330338E-3
636.455727E-3
637.462234E-3
638.532829E-3
635.044098E-3
640.603638E-3
635.843468E-3
636.292076E-3
637.351799E-3
634.789467E-3
642.211533E-3
638.595200E-3
641.308594E-3
646.192360E-3
647.191429E-3
658.353424E-3
656.154442E-3
659.751892E-3
663.125610E-3
657.905960E-3
666.083908E-3
661.034775E-3
660.736656E-3
659.442329E-3
654.778862E-3
658.703041E-3
652.618217E-3
652.186203E-3
653.283119E-3
649.366951E-3
655.202293E-3
650.881004E-3
652.101517E-3
653.963470E-3
650.622368E-3
656.421661E-3
651.318169E-3
650.527382E-3
651.501846E-3
648.223114E-3
651.702690E-3
648.496056E-3
647.588539E-3
649.126625E-3
646.060753E-3
651.198578E-3
648.316956E-3
649.378395E-3
651.454353E-3
647.694397E-3
652.569008E-3
647.649193E-3
648.109245E-3
649.639320E-3
645.834732E-3
650.205803E-3
645.655060E-3
645.328903E-3
646.222687E-3
642.768860E-3
646.743965E-3
642.700195E-3
641.977501E-3
644.034004E-3
640.604782E-3
645.236778E-3
641.226768E-3
641.022491E-3
643.959618E-3
637.113762E-3
643.965340E-3
640.452576E-3
640.811348E-3
643.659782E-3
638.975716E-3
644.152451E-3
640.505219E-3
640.449142E-3
642.466164E-3
635.403442E-3
641.750908E-3
639.672661E-3
639.942741E-3
642.581177E-3
637.251091E-3
642.585182E-3
638.006401E-3
637.700844E-3
639.756775E-3
633.053970E-3
640.006828E-3
636.823654E-3
637.125778E-3
639.068413E-3
633.783531E-3
639.452934E-3
636.829948E-3
636.203384E-3
637.533188E-3
633.095169E-3
639.165115E-3
635.445213E-3
634.141731E-3
636.665726E-3
631.616020E-3
636.826515E-3
633.744049E-3
632.687759E-3
634.280777E-3
629.628181E-3
634.792900E-3
632.000542E-3
631.819725E-3
635.809708E-3
633.289146E-3
643.082428E-3
643.845177E-3
647.012329E-3
652.706909E-3
651.080704E-3
658.028984E-3
656.735229E-3
656.065750E-3
657.294846E-3
651.771355E-3
655.755615E-3
650.969696E-3
647.690392E-3
647.787666E-3
642.351151E-3
647.408295E-3
643.664360E-3
642.584038E-3
644.516373E-3
640.987015E-3
647.323608E-3
644.155884E-3
642.719650E-3
644.458008E-3
639.713860E-3
645.061111E-3
641.847038E-3
639.808846E-3
642.153168E-3
638.139725E-3
644.565010E-3
642.711639E-3
641.017342E-3
643.751335E-3
640.266609E-3
645.776939E-3
643.842316E-3
641.251373E-3
642.680168E-3
638.327980E-3
643.210030E-3
640.315247E-3
637.675095E-3
639.121056E-3
635.036087E-3
640.087509E-3
636.910629E-3
633.992958E-3
636.508942E-3
632.067490E-3
637.992096E-3
634.480476E-3
631.949043E-3
634.526253E-3
630.741119E-3
636.130142E-3
634.121132E-3
632.105255E-3
633.956909E-3
630.369759E-3
634.807205E-3
633.073425E-3
631.093597E-3
632.994461E-3
629.360390E-3
634.428406E-3
631.648636E-3
630.002975E-3
632.535553E-3
628.686905E-3
633.246803E-3
631.551933E-3
628.898621E-3
630.758858E-3
627.778816E-3
632.073212E-3
630.366325E-3
627.838326E-3
630.142021E-3
626.798630E-3
631.772232E-3
630.247307E-3
627.093315E-3
627.302742E-3
625.545502E-3
630.298233E-3
628.538704E-3
625.999832E-3
627.826881E-3
624.474907E-3
629.708290E-3
627.383995E-3
625.234795E-3
628.293800E-3
626.241302E-3
633.419037E-3
634.684181E-3
636.186790E-3
642.589188E-3
642.983437E-3
650.345993E-3
651.458359E-3
650.638962E-3
653.158951E-3
649.037933E-3
652.008820E-3
648.244858E-3
644.803619E-3
645.855904E-3
640.144157E-3
644.368744E-3
641.192436E-3
638.234711E-3
640.843391E-3
637.430763E-3
642.472458E-3
641.669655E-3
640.449715E-3
643.056679E-3
639.015198E-3
642.599487E-3
640.818214E-3
637.531471E-3
640.242004E-3
636.926651E-3
641.540337E-3
640.149879E-3
638.440132E-3
641.146088E-3
638.479614E-3
642.887878E-3
641.808701E-3
639.727592E-3
642.689896E-3
638.352013E-3
642.327118E-3
640.576172E-3
637.439919E-3
639.633751E-3
635.217476E-3
639.494705E-3
636.309814E-3
633.701134E-3
636.585045E-3
632.935524E-3
636.389351E-3
635.398293E-3
632.294655E-3
635.185432E-3
631.492996E-3
634.704208E-3
633.657646E-3
631.571960E-3
634.015846E-3
631.155396E-3
635.128784E-3
633.699417E-3
631.414604E-3
634.848404E-3
631.063271E-3
635.344505E-3
634.668732E-3
631.874084E-3
635.207748E-3
631.353951E-3
635.472679E-3
633.986664E-3
631.241798E-3
633.598709E-3
630.623817E-3
634.613228E-3
633.218193E-3
629.987526E-3
633.741760E-3
630.071068E-3
632.748985E-3
632.457161E-3
629.811859E-3
633.382416E-3
630.020142E-3
632.817650E-3
631.784821E-3
628.040314E-3
633.248520E-3
628.631401E-3
631.947899E-3
630.761719E-3
627.252388E-3
632.912636E-3
628.451729E-3
631.080437E-3
630.689621E-3
626.716232E-3
636.243439E-3
635.980225E-3
643.547630E-3
647.318459E-3
646.685600E-3
656.453705E-3
653.224182E-3
657.513428E-3
656.853676E-3
652.071190E-3
657.390976E-3
650.405502E-3
651.342201E-3
648.524094E-3
643.788528E-3
648.569298E-3
642.748833E-3
644.999886E-3
644.743538E-3
638.414383E-3
647.044945E-3
643.309593E-3
646.348572E-3
646.330261E-3
642.717361E-3
648.043442E-3
642.489624E-3
644.190788E-3
643.379974E-3
639.596558E-3
645.161247E-3
640.208817E-3
642.562294E-3
643.894958E-3
641.163254E-3
646.849823E-3
642.208099E-3
645.161247E-3
644.654846E-3
641.186142E-3
646.563148E-3
641.088295E-3
642.595482E-3
641.793251E-3
637.179565E-3
643.785095E-3
638.096809E-3
639.222336E-3
638.507652E-3
634.881592E-3
641.261673E-3
635.433197E-3
637.391281E-3
637.784386E-3
633.947754E-3
640.312386E-3
634.285355E-3
636.594772E-3
636.419106E-3
632.606506E-3
639.183998E-3
633.568382E-3
635.850334E-3
636.163330E-3
632.505798E-3
639.078712E-3
633.317184E-3
635.406876E-3
635.835457E-3
632.466316E-3
638.943672E-3
632.485199E-3
634.549713E-3
635.123634E-3
631.312752E-3
638.039589E-3
631.766510E-3
632.716370E-3
634.236717E-3
630.838966E-3
636.921501E-3
631.327057E-3
632.370758E-3
631.819725E-3
628.983879E-3
635.474968E-3
629.158974E-3
630.829811E-3
630.585480E-3
624.374199E-3
632.258606E-3
626.638412E-3
628.933525E-3
629.657364E-3
626.651573E-3
632.641411E-3
628.112411E-3
630.810928E-3
635.750771E-3
636.750984E-3
645.459366E-3
644.082069E-3
648.358727E-3
651.288986E-3
649.766922E-3
655.820274E-3
649.481964E-3
649.472237E-3
648.950386E-3
643.821716E-3
647.583389E-3
640.930367E-3
640.553856E-3
640.581894E-3
637.042809E-3
642.548561E-3
637.264824E-3
639.236069E-3
640.115547E-3
637.340355E-3
642.687035E-3
636.901474E-3
636.858559E-3
637.458801E-3
634.408951E-3
639.669800E-3
634.467888E-3
636.293793E-3
636.714935E-3
631.829453E-3
639.751625E-3
635.345078E-3
637.607574E-3
638.743973E-3
635.769653E-3
640.915489E-3
635.448074E-3
635.275841E-3
635.798836E-3
632.029152E-3
636.287498E-3
631.536484E-3
631.233788E-3
631.730461E-3
628.656578E-3
633.610153E-3
628.026009E-3
628.953552E-3
630.049896E-3
627.109337E-3
632.703209E-3
627.973366E-3
628.297806E-3
628.768730E-3
625.804138E-3
630.682182E-3
626.375198E-3
627.337646E-3
628.090096E-3
624.468613E-3
631.186867E-3
626.128578E-3
627.488136E-3
628.167915E-3
625.199890E-3
630.357170E-3
625.977516E-3
626.441574E-3
628.035736E-3
625.628471E-3
631.424332E-3
626.332855E-3
626.391220E-3
627.590561E-3
623.998833E-3
629.524612E-3
625.040245E-3
625.286293E-3
626.569176E-3
621.460533E-3
627.986526E-3
622.731972E-3
623.658371E-3
625.290871E-3
621.818733E-3
627.336502E-3
622.747993E-3
624.385071E-3
627.721596E-3
627.170563E-3
636.447144E-3
635.876083E-3
639.564514E-3
644.017982E-3
643.931580E-3
650.892448E-3
647.861481E-3
647.115898E-3
647.773933E-3
642.448997E-3
645.616150E-3
640.386200E-3
638.920784E-3
639.522171E-3
635.359955E-3
639.190865E-3
635.987663E-3
635.890388E-3
637.667656E-3
635.389137E-3
641.051102E-3
636.563873E-3
636.900330E-3
637.778091E-3
633.998108E-3
637.766075E-3
633.724022E-3
633.950043E-3
635.651779E-3
632.722664E-3
637.415886E-3
634.926224E-3
635.481262E-3
636.847687E-3
633.922577E-3
639.418602E-3
635.324478E-3
635.036659E-3
636.721230E-3
632.361031E-3
636.838531E-3
633.156967E-3
632.036018E-3
633.471107E-3
629.379272E-3
633.316040E-3
629.946327E-3
629.589272E-3
631.876945E-3
627.394295E-3
632.922935E-3
629.411888E-3
629.187012E-3
630.306244E-3
626.325989E-3
632.101250E-3
629.012489E-3
628.754425E-3
631.347084E-3
627.071571E-3
631.989098E-3
628.725815E-3
628.900337E-3
630.295944E-3
625.860786E-3
631.879807E-3
629.384995E-3
628.916359E-3
631.161118E-3
627.096748E-3
632.636261E-3
630.120850E-3
629.493141E-3
631.298447E-3
625.152969E-3
631.439209E-3
628.635979E-3
627.551651E-3
629.433632E-3
624.605942E-3
629.640770E-3
627.425194E-3
626.672745E-3
628.133011E-3
622.998047E-3
628.893471E-3
626.478767E-3
625.340080E-3
628.069496E-3
624.359894E-3
631.116486E-3
631.286430E-3
634.043884E-3
639.752197E-3
640.065765E-3
649.341202E-3
649.197006E-3
650.521660E-3
652.968979E-3
649.323463E-3
654.727936E-3
650.469589E-3
648.250008E-3
648.280334E-3
641.982079E-3
646.595192E-3
643.385696E-3
641.079140E-3
643.062401E-3
638.500214E-3
645.017052E-3
642.558861E-3
640.850830E-3
643.830299E-3
639.895248E-3
645.861053E-3
641.788101E-3
640.063477E-3
641.672516E-3
637.014771E-3
642.376900E-3
638.953400E-3
636.629677E-3
639.983368E-3
636.856270E-3
643.288422E-3
641.165543E-3
639.509583E-3
641.735458E-3
637.735748E-3
643.129921E-3
639.971352E-3
636.993027E-3
638.961411E-3
634.972572E-3
639.549065E-3
636.842537E-3
634.445000E-3
636.175346E-3
631.912422E-3
636.831665E-3
634.653282E-3
632.030869E-3
634.172058E-3
630.491638E-3
636.242294E-3
634.080505E-3
631.926727E-3
634.374619E-3
629.945755E-3
635.394287E-3
632.734680E-3
630.598640E-3
632.928085E-3
629.218483E-3
634.378052E-3
632.287216E-3
630.082512E-3
632.563019E-3
629.252815E-3
634.046173E-3
631.452370E-3
629.759789E-3
631.820869E-3
628.272057E-3
633.796120E-3
632.141304E-3
629.546928E-3
631.656647E-3
628.382492E-3
633.218765E-3
630.414963E-3
628.646278E-3
630.275917E-3
626.387787E-3
630.346870E-3
629.022789E-3
627.054405E-3
630.070496E-3
626.392365E-3
630.594063E-3
628.817940E-3
626.251030E-3
629.458809E-3
628.543282E-3
635.180283E-3
636.325264E-3
637.673378E-3
643.105316E-3
643.125916E-3
649.854469E-3
648.831940E-3
645.847893E-3
647.164536E-3
641.204453E-3
643.850327E-3
640.215683E-3
636.577034E-3
637.972069E-3
633.371544E-3
637.393570E-3
635.356522E-3
633.540344E-3
635.536194E-3
632.019997E-3
637.054253E-3
635.230637E-3
633.090591E-3
634.778023E-3
630.231857E-3
633.794403E-3
632.517242E-3
630.286789E-3
632.371330E-3
629.253960E-3
633.651352E-3
632.785606E-3
629.364395E-3
633.546638E-3
630.640984E-3
635.060120E-3
633.178139E-3
628.792763E-3
629.857635E-3
626.404953E-3
630.679321E-3
628.561020E-3
625.983810E-3
628.346443E-3
623.905563E-3
627.164268E-3
625.922585E-3
622.566032E-3
626.046753E-3
622.237587E-3
625.984955E-3
624.509239E-3
621.711731E-3
624.530983E-3
621.129227E-3
625.411606E-3
624.763870E-3
622.164917E-3
623.340797E-3
620.520973E-3
624.906349E-3
623.743629E-3
621.054268E-3
624.765015E-3
620.855713E-3
624.556160E-3
623.690987E-3
620.978737E-3
624.388504E-3
620.924377E-3
624.778748E-3
623.601723E-3
620.301247E-3
623.215485E-3
620.244598E-3
623.494148E-3
622.159195E-3
618.628120E-3
621.867943E-3
618.193245E-3
622.217560E-3
620.077515E-3
617.359543E-3
621.625900E-3
617.800140E-3
621.334076E-3
621.592712E-3
620.727539E-3
629.621887E-3
628.799629E-3
635.232925E-3
637.888527E-3
637.945747E-3
645.615005E-3
642.470741E-3
645.830154E-3
644.700050E-3
640.104675E-3
644.134712E-3
638.274193E-3
638.956261E-3
637.160110E-3
632.723808E-3
638.489342E-3
632.532120E-3
636.118126E-3
635.262108E-3
632.579613E-3
639.551926E-3
634.419250E-3
636.628532E-3
636.313248E-3
631.696129E-3
636.536980E-3
630.698204E-3
633.359528E-3
633.489418E-3
630.454445E-3
636.867714E-3
632.444000E-3
634.791756E-3
635.318184E-3
632.498932E-3
639.207458E-3
633.855629E-3
636.301804E-3
635.308456E-3
631.258392E-3
636.397362E-3
630.554008E-3
