Notes :


2023-11-06 ¿ÀÈÄ 10:21:16
Volts
Ch : LED 2,
455.937767E-3
455.796432E-3
455.665970E-3
455.367279E-3
454.967308E-3
454.639435E-3
454.381371E-3
454.141045E-3
453.997993E-3
453.907585E-3
453.790283E-3
453.898430E-3
453.906441E-3
453.893280E-3
453.873253E-3
453.812027E-3
453.567696E-3
453.373718E-3
453.199768E-3
452.941704E-3
452.844429E-3
452.878189E-3
452.816391E-3
452.914810E-3
452.949142E-3
453.128815E-3
453.128242E-3
453.187752E-3
453.183174E-3
453.167152E-3
453.211212E-3
453.103638E-3
453.049278E-3
452.975464E-3
452.822113E-3
452.716827E-3
452.501106E-3
452.253914E-3
452.181816E-3
451.984978E-3
451.905441E-3
451.868820E-3
451.788712E-3
451.708603E-3
451.630211E-3
451.494598E-3
451.357841E-3
451.301193E-3
451.266289E-3
451.161003E-3
451.108360E-3
451.070023E-3
450.978470E-3
450.850296E-3
450.726128E-3
450.672340E-3
450.617981E-3
450.577354E-3
450.482368E-3
450.413132E-3
450.430870E-3
450.377083E-3
450.434875E-3
450.290108E-3
450.178528E-3
450.192833E-3
450.132179E-3
450.053787E-3
450.058365E-3
449.964523E-3
449.823189E-3
449.849510E-3
449.686432E-3
449.564552E-3
449.432373E-3
449.388313E-3
449.297333E-3
449.283600E-3
449.364281E-3
449.549103E-3
450.298691E-3
451.179314E-3
452.240181E-3
453.259277E-3
454.229736E-3
455.068016E-3
455.554390E-3
455.878830E-3
455.985260E-3
455.683136E-3
455.574417E-3
455.445671E-3
455.187607E-3
454.940414E-3
454.636574E-3
454.462624E-3
454.347038E-3
454.311562E-3
454.290962E-3
454.434013E-3
454.447174E-3
454.554749E-3
454.582787E-3
454.559898E-3
454.395676E-3
454.127312E-3
453.805161E-3
453.515053E-3
453.400040E-3
453.268433E-3
453.299904E-3
453.278160E-3
453.311348E-3
453.336525E-3
453.425217E-3
453.529358E-3
453.543663E-3
453.536797E-3
453.516769E-3
453.410912E-3
453.361702E-3
453.232956E-3
453.143120E-3
453.020096E-3
452.968025E-3
453.005219E-3
452.866173E-3
452.799797E-3
452.675629E-3
452.521133E-3
452.387238E-3
452.326584E-3
452.137184E-3
452.041626E-3
452.048492E-3
451.983833E-3
451.813316E-3
451.690292E-3
451.575851E-3
451.469994E-3
451.357841E-3
451.385307E-3
451.362419E-3
451.209641E-3
451.134109E-3
451.201057E-3
451.071167E-3
450.986481E-3
451.047707E-3
450.976181E-3
450.965309E-3
450.940704E-3
450.996780E-3
450.894356E-3
450.782204E-3
450.740433E-3
450.686073E-3
450.591087E-3
450.644875E-3
450.450897E-3
450.322151E-3
450.150490E-3
450.095558E-3
449.980545E-3
449.783707E-3
449.794579E-3
449.693298E-3
449.697876E-3
449.794006E-3
449.951935E-3
450.607109E-3
451.370430E-3
452.434731E-3
453.463554E-3
454.486656E-3
455.323792E-3
455.860519E-3
456.121445E-3
456.156349E-3
455.973244E-3
455.769539E-3
455.462265E-3
455.153847E-3
454.878616E-3
454.592514E-3
454.401398E-3
454.133606E-3
454.138184E-3
454.068375E-3
454.186821E-3
454.237747E-3
454.294395E-3
454.287529E-3
454.216576E-3
454.017448E-3
453.694153E-3
453.370285E-3
453.263283E-3
453.125954E-3
453.032112E-3
453.095627E-3
453.099060E-3
453.205490E-3
453.254128E-3
453.400612E-3
453.386307E-3
453.424072E-3
453.300476E-3
453.302193E-3
453.158569E-3
453.069305E-3
452.959442E-3
452.848434E-3
452.767181E-3
452.570343E-3
452.417564E-3
452.221870E-3
452.240753E-3
452.166939E-3
452.060509E-3
451.932335E-3
451.809311E-3
451.750946E-3
451.611900E-3
451.453972E-3
451.385307E-3
451.252556E-3
451.189613E-3
451.167297E-3
451.167297E-3
451.088905E-3
450.929832E-3
450.837708E-3
450.783920E-3
450.656891E-3
450.644875E-3
450.542450E-3
450.496101E-3
450.351906E-3
450.353050E-3
450.295830E-3
450.234604E-3
450.252342E-3
450.231743E-3
450.059509E-3
449.965668E-3
449.824333E-3
449.783707E-3
449.634933E-3
449.511337E-3
449.452400E-3
449.310493E-3
449.153709E-3
449.156570E-3
449.087334E-3
449.123383E-3
449.179459E-3
449.569702E-3
450.323296E-3
451.272011E-3
452.296829E-3
453.293610E-3
454.267502E-3
454.882622E-3
455.202484E-3
455.333519E-3
455.158997E-3
454.911804E-3
454.622841E-3
454.391670E-3
454.001427E-3
453.670120E-3
453.429794E-3
453.181458E-3
453.097916E-3
453.057289E-3
453.152275E-3
453.234100E-3
453.298187E-3
453.279877E-3
453.210068E-3
453.068733E-3
452.773476E-3
452.556610E-3
452.309418E-3
452.186394E-3
452.141762E-3
452.080536E-3
452.157211E-3
452.159500E-3
452.303696E-3
452.397537E-3
452.436447E-3
452.454185E-3
452.466202E-3
452.372932E-3
452.412987E-3
452.380371E-3
452.224731E-3
452.092552E-3
451.903725E-3
451.829338E-3
451.479721E-3
451.397324E-3
451.306343E-3
451.123810E-3
451.071167E-3
450.866890E-3
450.755882E-3
450.593376E-3
450.513268E-3
450.468063E-3
450.366211E-3
450.306129E-3
450.168800E-3
450.189972E-3
450.051498E-3
449.833488E-3
449.867249E-3
449.744225E-3
449.759102E-3
449.757957E-3
449.667549E-3
449.662971E-3
449.551392E-3
449.547958E-3
449.401474E-3
449.408913E-3
449.424934E-3
449.375153E-3
449.308777E-3
449.305916E-3
449.337959E-3
449.266434E-3
449.262428E-3
449.241829E-3
449.024963E-3
448.848724E-3
448.731422E-3
448.587799E-3
448.547173E-3
448.450470E-3
448.412704E-3
448.484802E-3
448.507690E-3
448.730850E-3
449.299049E-3
450.212288E-3
451.273155E-3
452.318001E-3
453.364563E-3
454.159927E-3
454.696083E-3
455.128670E-3
455.211639E-3
455.132675E-3
454.981041E-3
454.622841E-3
454.359627E-3
453.997993E-3
453.676987E-3
453.436661E-3
453.235245E-3
453.237534E-3
453.242111E-3
453.212929E-3
453.254128E-3
453.260994E-3
453.356552E-3
453.337669E-3
453.173447E-3
453.012085E-3
452.627563E-3
452.460480E-3
452.289391E-3
452.133179E-3
452.049065E-3
451.987267E-3
452.075386E-3
452.142334E-3
452.268791E-3
452.273941E-3
452.245331E-3
452.365494E-3
452.403831E-3
452.337456E-3
452.265930E-3
452.116585E-3
452.101135E-3
452.026176E-3
451.823616E-3
451.652527E-3
451.446533E-3
451.341248E-3
451.182747E-3
451.071167E-3
451.013947E-3
450.912666E-3
450.805664E-3
450.714684E-3
450.622559E-3
450.522423E-3
450.535011E-3
450.425148E-3
450.319290E-3
450.165367E-3
450.100136E-3
450.038338E-3
449.999428E-3
449.925041E-3
449.855232E-3
449.815178E-3
449.719620E-3
449.636650E-3
449.481010E-3
449.561119E-3
449.588013E-3
449.486732E-3
449.518776E-3
449.452400E-3
449.427223E-3
449.375725E-3
449.300766E-3
449.198341E-3
449.232674E-3
449.198914E-3
449.197769E-3
449.037552E-3
448.986626E-3
448.804665E-3
448.675919E-3
448.587227E-3
448.494530E-3
448.364639E-3
448.329735E-3
448.283958E-3
448.315430E-3
448.480797E-3
449.063301E-3
449.945641E-3
451.000786E-3
451.961517E-3
453.036690E-3
454.008293E-3
454.583359E-3
454.962730E-3
454.969025E-3
454.827118E-3
454.535294E-3
454.286385E-3
454.063797E-3
453.739929E-3
453.303909E-3
453.094482E-3
452.886200E-3
452.877617E-3
452.843857E-3
452.824974E-3
452.946854E-3
452.893066E-3
453.001213E-3
453.040695E-3
452.882195E-3
452.712822E-3
452.318001E-3
452.113152E-3
451.895142E-3
451.796722E-3
451.899147E-3
451.852798E-3
451.787567E-3
451.837349E-3
451.955795E-3
452.079964E-3
452.117157E-3
452.139473E-3
452.089691E-3
451.985550E-3
451.956940E-3
451.872253E-3
451.729202E-3
451.572990E-3
451.483727E-3
451.292038E-3
451.005936E-3
451.068306E-3
451.021385E-3
450.901794E-3
450.767326E-3
450.655174E-3
450.571060E-3
450.438309E-3
450.346756E-3
450.419426E-3
450.139618E-3
450.089836E-3
449.979973E-3
449.909592E-3
449.766541E-3
449.681282E-3
449.613190E-3
449.517632E-3
449.401474E-3
449.399757E-3
449.347115E-3
449.345398E-3
449.203491E-3
449.157715E-3
449.136543E-3
449.000359E-3
449.036980E-3
448.974609E-3
448.911095E-3
448.889923E-3
448.797798E-3
448.745155E-3
448.686790E-3
448.555183E-3
448.420715E-3
448.291397E-3
448.317719E-3
448.154068E-3
447.902870E-3
447.922897E-3
447.926331E-3
447.821617E-3
447.855377E-3
448.160362E-3
448.818398E-3
449.642372E-3
450.722694E-3
451.792145E-3
452.720261E-3
453.538513E-3
453.994560E-3
454.234314E-3
454.237747E-3
454.006004E-3
453.755951E-3
453.430939E-3
452.956009E-3
452.636147E-3
452.233887E-3
451.958656E-3
451.758385E-3
451.685143E-3
451.674843E-3
451.708603E-3
451.776123E-3
451.709175E-3
451.692009E-3
451.589584E-3
451.428223E-3
451.125526E-3
450.889778E-3
450.798225E-3
450.717545E-3
450.664330E-3
450.728416E-3
450.794792E-3
450.853157E-3
451.024818E-3
451.074600E-3
451.049423E-3
451.086044E-3
451.170158E-3
451.202202E-3
451.162148E-3
451.047134E-3
450.937271E-3
450.873756E-3
450.720978E-3
450.603676E-3
450.401115E-3
450.277519E-3
450.114441E-3
450.008011E-3
449.932480E-3
449.802017E-3
449.727058E-3
449.619484E-3
449.566269E-3
449.442673E-3
449.365425E-3
449.347687E-3
449.280739E-3
449.177742E-3
449.093056E-3
448.994637E-3
448.859596E-3
448.894501E-3
448.869896E-3
448.692513E-3
448.618698E-3
448.534012E-3
448.466492E-3
448.469353E-3
448.360634E-3
448.306847E-3
448.166656E-3
448.132896E-3
448.090553E-3
448.029900E-3
448.021317E-3
447.948647E-3
447.864532E-3
447.866249E-3
447.828484E-3
447.768402E-3
447.632790E-3
447.537231E-3
447.478294E-3
447.307205E-3
447.244835E-3
447.271729E-3
447.371864E-3
447.544098E-3
447.994423E-3
448.962593E-3
450.013733E-3
451.029396E-3
452.174950E-3
453.014374E-3
453.592300E-3
454.029465E-3
454.052925E-3
453.919029E-3
453.751373E-3
453.476143E-3
453.100204E-3
452.742004E-3
452.382660E-3
452.094269E-3
451.895714E-3
451.817894E-3
451.765823E-3
451.816177E-3
451.887131E-3
452.034760E-3
452.112007E-3
452.014160E-3
451.897430E-3
451.704025E-3
451.485443E-3
451.217651E-3
451.219368E-3
451.082039E-3
450.942421E-3
450.889778E-3
450.981903E-3
450.980759E-3
451.182747E-3
451.201630E-3
451.245117E-3
451.254845E-3
451.264000E-3
451.307487E-3
451.196480E-3
451.163864E-3
451.037407E-3
450.839996E-3
450.760460E-3
450.722122E-3
450.573921E-3
450.404549E-3
450.321007E-3
450.236893E-3
450.184822E-3
450.119019E-3
450.089836E-3
449.870682E-3
449.734497E-3
449.624634E-3
449.598885E-3
449.595451E-3
449.529076E-3
449.371147E-3
449.324799E-3
449.122810E-3
449.068451E-3
448.970032E-3
448.896790E-3
448.780060E-3
448.735428E-3
448.703384E-3
448.694801E-3
448.671341E-3
448.547745E-3
448.548889E-3
448.500252E-3
448.419571E-3
448.448753E-3
448.431587E-3
448.352051E-3
448.266220E-3
448.257065E-3
448.233604E-3
448.096848E-3
448.048782E-3
447.928619E-3
447.843361E-3
447.714615E-3
447.641373E-3
447.645950E-3
447.661400E-3
447.627068E-3
447.719193E-3
448.151779E-3
448.999786E-3
449.961090E-3
451.055717E-3
452.080536E-3
452.977180E-3
453.625488E-3
454.039764E-3
454.117584E-3
454.004288E-3
453.722191E-3
453.465843E-3
453.050995E-3
452.717972E-3
452.411270E-3
452.005005E-3
451.833916E-3
451.649094E-3
451.626778E-3
451.649666E-3
451.742935E-3
451.781845E-3
451.702309E-3
451.667404E-3
451.606750E-3
451.393890E-3
451.154137E-3
450.945282E-3
450.790215E-3
450.668335E-3
450.734711E-3
450.771332E-3
450.814819E-3
450.853157E-3
450.932121E-3
450.984764E-3
451.086617E-3
451.076889E-3
451.103210E-3
451.142693E-3
451.126671E-3
450.988197E-3
450.787926E-3
450.662613E-3
450.518417E-3
450.351334E-3
450.176239E-3
449.962234E-3
449.886131E-3
449.827766E-3
449.678421E-3
449.539948E-3
449.451256E-3
449.358559E-3
449.255562E-3
449.153137E-3
449.130821E-3
449.059868E-3
448.956299E-3
448.920822E-3
448.677063E-3
448.620987E-3
448.519707E-3
448.431587E-3
448.429871E-3
448.356056E-3
448.307991E-3
448.252487E-3
448.255920E-3
448.182106E-3
448.044777E-3
448.060226E-3
448.023033E-3
447.941208E-3
447.980118E-3
447.922325E-3
447.816467E-3
447.657394E-3
447.568130E-3
447.529793E-3
447.385597E-3
447.314072E-3
447.274590E-3
447.197914E-3
447.167587E-3
447.089195E-3
447.153282E-3
447.517776E-3
448.269653E-3
449.232101E-3
450.275803E-3
451.317787E-3
452.230453E-3
452.957726E-3
453.519058E-3
453.723907E-3
453.620911E-3
453.393173E-3
453.143120E-3
452.822113E-3
452.351189E-3
451.972961E-3
451.563835E-3
451.373863E-3
451.219368E-3
451.033401E-3
451.067734E-3
451.076889E-3
451.091194E-3
451.100349E-3
451.104927E-3
451.033974E-3
450.760460E-3
450.529861E-3
450.355339E-3
450.203705E-3
450.123024E-3
450.083542E-3
450.138474E-3
450.219154E-3
450.366783E-3
450.365639E-3
450.555611E-3
450.576210E-3
450.616264E-3
450.646019E-3
450.643158E-3
450.634003E-3
450.542450E-3
450.350189E-3
450.317574E-3
450.155640E-3
449.972534E-3
449.881554E-3
449.802589E-3
449.636078E-3
449.503326E-3
449.536514E-3
449.448395E-3
449.356842E-3
449.220657E-3
449.193192E-3
449.066162E-3
448.985481E-3
448.908806E-3
448.819542E-3
448.774910E-3
448.848724E-3
448.673058E-3
448.570633E-3
448.444748E-3
448.321724E-3
448.291397E-3
448.294830E-3
448.254776E-3
448.126030E-3
448.120880E-3
448.144913E-3
448.013878E-3
448.006439E-3
447.977257E-3
447.896004E-3
447.831917E-3
447.706604E-3
447.751808E-3
447.618484E-3
447.505188E-3
447.428513E-3
447.334671E-3
447.322083E-3
447.145271E-3
447.080612E-3
447.132683E-3
447.141838E-3
447.422791E-3
448.119164E-3
449.081039E-3
450.121307E-3
451.273727E-3
452.278519E-3
453.104782E-3
453.634071E-3
453.967094E-3
453.868103E-3
453.801155E-3
453.529930E-3
453.201485E-3
452.926254E-3
452.578354E-3
452.230453E-3
451.898575E-3
451.814461E-3
451.715469E-3
451.677132E-3
451.713181E-3
451.816177E-3
451.935196E-3
451.944923E-3
451.847076E-3
451.775551E-3
451.524925E-3
451.266861E-3
451.080894E-3
450.925827E-3
450.861168E-3
450.905228E-3
450.869751E-3
450.941277E-3
450.984764E-3
451.025391E-3
451.100922E-3
451.027679E-3
451.142120E-3
451.241684E-3
451.239395E-3
451.211929E-3
451.009369E-3
450.857162E-3
450.781631E-3
450.697517E-3
450.550461E-3
450.452042E-3
450.378227E-3
450.291252E-3
450.179672E-3
450.086403E-3
449.874687E-3
449.846649E-3
449.701309E-3
449.728775E-3
449.604607E-3
449.418640E-3
449.439812E-3
449.280739E-3
449.225807E-3
449.115372E-3
449.095917E-3
449.051285E-3
448.967743E-3
448.877907E-3
448.809814E-3
448.765755E-3
448.736000E-3
448.703957E-3
448.681641E-3
448.637581E-3
448.479080E-3
448.595238E-3
448.507690E-3
448.501968E-3
448.456764E-3
448.397827E-3
448.349190E-3
448.128891E-3
448.107147E-3
448.099136E-3
447.986412E-3
447.956657E-3
447.841644E-3
447.768402E-3
447.743797E-3
447.726059E-3
447.850800E-3
448.077965E-3
448.824692E-3
449.705887E-3
450.747299E-3
451.864815E-3
452.760315E-3
453.518486E-3
454.024887E-3
454.216576E-3
454.202271E-3
453.922462E-3
453.591728E-3
453.150558E-3
452.724838E-3
452.372932E-3
452.043343E-3
451.814461E-3
451.585579E-3
451.508331E-3
451.570129E-3
451.507187E-3
451.617050E-3
451.642227E-3
451.609612E-3
451.534081E-3
451.405334E-3
451.265144E-3
450.921822E-3
450.750732E-3
450.613976E-3
450.646019E-3
450.707817E-3
450.844002E-3
450.818825E-3
450.877190E-3
450.917244E-3
451.001930E-3
451.019669E-3
451.016235E-3
451.069450E-3
450.884628E-3
450.851440E-3
450.808525E-3
450.608826E-3
450.453758E-3
450.242043E-3
450.093842E-3
450.070953E-3
449.914742E-3
449.882126E-3
449.696159E-3
449.510765E-3
449.481010E-3
449.331093E-3
