Notes :


2023-11-13 ¿ÀÀü 12:26:08
Volts
Ch : LED 2,
892.452049E-3
892.606544E-3
892.678070E-3
892.702675E-3
892.787933E-3
892.621422E-3
892.425728E-3
891.761398E-3
891.161156E-3
890.645027E-3
889.964104E-3
889.832497E-3
889.640808E-3
889.679146E-3
889.787292E-3
890.213585E-3
890.056229E-3
890.130043E-3
889.905167E-3
890.042496E-3
890.030479E-3
889.966393E-3
889.646530E-3
889.443970E-3
889.056587E-3
888.581657E-3
888.187981E-3
887.660408E-3
887.231827E-3
886.933708E-3
886.505699E-3
886.200142E-3
886.035347E-3
885.827065E-3
885.662270E-3
885.235977E-3
885.114098E-3
884.971619E-3
884.712982E-3
884.561920E-3
884.319878E-3
884.231758E-3
884.873199E-3
884.126472E-3
883.771133E-3
883.378029E-3
883.337402E-3
883.236122E-3
883.155441E-3
883.279037E-3
883.087921E-3
883.987999E-3
883.502769E-3
883.276176E-3
883.116531E-3
882.993507E-3
882.894516E-3
882.669067E-3
882.661629E-3
882.295418E-3
881.867409E-3
881.481171E-3
881.268883E-3
880.757904E-3
880.546761E-3
880.191994E-3
880.166817E-3
879.929924E-3
880.183983E-3
880.970764E-3
882.284546E-3
884.410286E-3
886.751747E-3
889.031410E-3
891.166306E-3
892.718124E-3
894.265366E-3
894.583511E-3
894.859886E-3
894.843864E-3
894.528008E-3
894.329453E-3
893.867683E-3
893.387032E-3
893.195915E-3
893.036842E-3
892.714119E-3
892.411423E-3
892.283821E-3
892.333603E-3
892.401123E-3
892.608261E-3
892.514420E-3
892.378235E-3
891.515350E-3
891.578865E-3
891.199493E-3
890.766907E-3
890.161514E-3
889.917755E-3
889.576149E-3
889.517212E-3
889.585876E-3
889.656258E-3
889.956665E-3
890.005875E-3
890.163803E-3
890.183258E-3
890.110016E-3
889.934349E-3
889.683151E-3
889.445114E-3
889.371300E-3
888.886070E-3
888.572502E-3
887.906456E-3
887.574577E-3
887.273598E-3
886.919403E-3
886.760330E-3
886.479378E-3
886.281967E-3
885.997009E-3
885.689163E-3
885.536957E-3
885.404205E-3
885.340118E-3
885.052299E-3
885.094070E-3
884.809113E-3
884.535599E-3
884.486961E-3
884.369659E-3
884.131050E-3
884.122467E-3
884.084129E-3
883.935356E-3
884.320450E-3
883.850098E-3
883.745384E-3
883.541679E-3
883.517075E-3
883.435249E-3
883.149147E-3
883.101654E-3
882.946014E-3
883.007240E-3
882.706833E-3
882.060814E-3
881.779289E-3
881.684303E-3
881.419373E-3
881.081772E-3
880.767059E-3
880.834007E-3
880.652046E-3
880.817413E-3
881.231689E-3
882.076263E-3
884.039497E-3
886.274529E-3
888.793945E-3
891.201210E-3
893.129539E-3
894.998360E-3
895.627785E-3
896.234322E-3
896.435738E-3
896.145058E-3
895.981979E-3
895.499611E-3
895.252991E-3
894.550896E-3
893.587303E-3
893.678284E-3
893.547821E-3
893.310928E-3
893.306923E-3
893.158722E-3
893.241692E-3
893.172455E-3
893.245125E-3
893.423080E-3
892.829132E-3
892.258644E-3
891.567421E-3
891.101646E-3
890.606117E-3
890.358353E-3
890.307426E-3
890.390396E-3
890.674782E-3
890.876198E-3
890.931702E-3
891.096497E-3
891.185188E-3
891.126823E-3
891.009521E-3
891.210365E-3
890.872765E-3
890.546036E-3
890.266228E-3
889.710045E-3
889.346123E-3
889.251137E-3
889.007378E-3
888.792801E-3
888.649750E-3
888.232040E-3
887.901878E-3
887.641525E-3
887.590027E-3
887.339973E-3
887.137985E-3
887.118530E-3
886.845589E-3
886.747742E-3
886.565208E-3
886.461067E-3
886.326599E-3
886.203575E-3
886.074829E-3
885.809898E-3
885.721207E-3
885.634232E-3
885.631371E-3
885.605621E-3
885.489464E-3
885.239983E-3
885.324669E-3
885.226822E-3
885.265160E-3
885.071754E-3
884.823418E-3
884.761047E-3
884.473801E-3
884.207726E-3
883.946228E-3
883.619499E-3
883.469009E-3
883.201790E-3
882.962608E-3
882.600403E-3
882.768059E-3
882.445335E-3
882.226753E-3
882.214737E-3
882.650185E-3
883.724785E-3
885.714912E-3
887.979698E-3
890.522003E-3
892.848015E-3
894.539452E-3
895.856667E-3
896.545601E-3
896.883774E-3
896.912956E-3
896.621704E-3
896.371651E-3
895.674133E-3
895.109367E-3
894.467354E-3
893.926048E-3
893.487167E-3
893.129539E-3
892.948723E-3
892.626572E-3
892.499542E-3
892.597389E-3
892.563629E-3
892.391396E-3
892.013168E-3
891.414642E-3
890.929413E-3
890.362358E-3
890.045929E-3
889.957237E-3
889.861107E-3
890.103722E-3
890.189552E-3
890.495682E-3
890.825844E-3
890.888214E-3
891.163445E-3
891.036415E-3
890.661049E-3
890.805817E-3
890.370941E-3
890.105438E-3
889.623070E-3
889.276886E-3
888.686943E-3
888.178253E-3
887.812614E-3
887.655830E-3
887.119675E-3
886.732292E-3
886.348915E-3
886.112595E-3
885.830498E-3
885.639954E-3
885.352135E-3
885.233688E-3
884.944153E-3
884.730721E-3
884.703827E-3
884.585953E-3
884.413719E-3
884.330177E-3
884.059525E-3
883.856964E-3
883.737946E-3
883.834076E-3
883.531380E-3
883.319092E-3
883.251572E-3
883.293343E-3
883.002663E-3
883.024979E-3
882.967758E-3
882.801819E-3
882.679367E-3
882.476807E-3
882.334900E-3
882.203293E-3
881.985283E-3
881.755257E-3
881.451988E-3
880.669212E-3
880.505562E-3
880.343628E-3
880.175972E-3
879.821777E-3
879.582024E-3
879.489899E-3
879.570007E-3
880.004311E-3
880.924416E-3
883.352852E-3
885.920906E-3
888.775635E-3
891.404915E-3
893.447113E-3
894.958878E-3
895.749664E-3
896.290398E-3
896.590233E-3
896.417999E-3
896.158218E-3
895.406914E-3
894.898224E-3
894.326591E-3
893.803596E-3
893.507767E-3
893.045998E-3
893.207932E-3
893.002510E-3
892.646027E-3
892.904091E-3
892.832565E-3
893.013954E-3
892.910385E-3
892.516136E-3
892.121887E-3
892.029190E-3
891.122818E-3
890.564919E-3
889.946365E-3
889.835358E-3
889.629936E-3
889.766693E-3
889.861107E-3
889.996147E-3
890.504837E-3
890.289116E-3
890.457344E-3
890.307999E-3
890.127182E-3
890.001297E-3
889.688873E-3
889.408493E-3
889.038277E-3
888.582230E-3
888.326454E-3
887.884712E-3
887.647247E-3
887.264442E-3
886.901093E-3
886.687660E-3
886.337471E-3
886.073685E-3
885.961533E-3
885.619926E-3
885.472870E-3
885.116959E-3
885.043144E-3
884.950447E-3
884.660912E-3
884.744453E-3
884.329033E-3
884.169388E-3
884.086418E-3
883.882713E-3
883.721352E-3
883.565712E-3
883.325386E-3
883.238983E-3
883.416939E-3
883.094788E-3
882.818413E-3
882.615280E-3
882.515717E-3
882.370949E-3
882.321167E-3
882.213020E-3
882.148933E-3
881.462288E-3
881.662560E-3
881.726646E-3
881.653404E-3
881.561852E-3
881.431389E-3
881.124687E-3
881.064034E-3
880.737305E-3
880.079269E-3
880.120468E-3
879.604340E-3
879.824638E-3
879.359436E-3
878.930283E-3
878.849030E-3
878.754044E-3
879.167747E-3
880.502701E-3
882.165527E-3
884.611130E-3
887.496758E-3
890.180969E-3
892.417145E-3
894.305420E-3
895.476723E-3
895.981979E-3
896.437454E-3
896.195984E-3
895.780563E-3
895.461845E-3
894.721413E-3
894.230461E-3
893.563271E-3
893.020248E-3
892.805672E-3
892.327309E-3
892.382812E-3
892.307854E-3
892.326164E-3
892.335892E-3
892.349052E-3
892.461777E-3
892.661476E-3
891.992569E-3
891.520500E-3
890.906525E-3
890.286827E-3
889.813042E-3
889.474869E-3
889.396477E-3
889.423943E-3
889.918900E-3
889.896011E-3
890.011597E-3
890.086555E-3
890.019608E-3
890.099716E-3
889.910316E-3
889.730644E-3
889.696884E-3
888.794518E-3
888.919830E-3
888.508415E-3
888.154793E-3
887.921333E-3
887.417221E-3
887.199783E-3
886.773491E-3
886.537170E-3
887.214661E-3
886.383820E-3
885.829353E-3
885.508347E-3
885.228539E-3
885.005379E-3
884.815979E-3
884.640884E-3
884.640884E-3
883.842087E-3
884.135056E-3
883.953667E-3
884.133911E-3
883.901024E-3
883.818626E-3
883.708191E-3
883.477020E-3
883.425522E-3
883.448410E-3
883.408928E-3
882.968330E-3
882.950020E-3
882.927704E-3
882.800674E-3
882.654190E-3
882.585526E-3
882.218170E-3
883.050156E-3
882.394981E-3
882.104874E-3
881.972122E-3
881.786728E-3
881.595039E-3
881.629944E-3
881.445122E-3
881.394196E-3
880.493546E-3
880.886078E-3
880.891228E-3
880.744743E-3
880.679512E-3
880.193710E-3
879.944801E-3
879.597473E-3
879.475021E-3
878.780937E-3
878.806686E-3
878.712845E-3
878.408432E-3
878.738022E-3
879.607773E-3
880.987930E-3
882.745171E-3
885.941505E-3
889.082336E-3
891.912460E-3
893.993568E-3
895.530510E-3
896.275520E-3
896.716118E-3
896.755028E-3
896.988487E-3
896.248627E-3
895.505905E-3
894.667053E-3
894.006157E-3
893.283463E-3
892.650604E-3
892.141914E-3
891.875267E-3
890.725136E-3
891.329384E-3
891.648674E-3
891.766548E-3
891.720772E-3
891.663551E-3
891.171455E-3
890.702820E-3
890.185547E-3
890.092278E-3
889.397621E-3
889.121819E-3
889.044571E-3
889.121246E-3
889.369583E-3
889.470291E-3
889.665413E-3
889.875984E-3
889.579582E-3
889.796448E-3
889.723778E-3
889.564705E-3
889.534950E-3
889.133263E-3
888.752174E-3
888.470078E-3
887.939072E-3
887.003517E-3
886.899376E-3
886.743736E-3
886.585808E-3
886.186409E-3
885.950089E-3
885.555840E-3
885.254288E-3
885.035133E-3
885.851669E-3
885.092926E-3
884.619141E-3
884.533882E-3
884.232903E-3
883.970261E-3
883.834076E-3
883.683586E-3
883.691597E-3
884.220886E-3
883.676720E-3
883.383179E-3
883.363152E-3
883.027840E-3
882.896805E-3
882.760048E-3
882.543755E-3
882.359505E-3
882.324600E-3
882.134628E-3
881.841660E-3
881.810760E-3
881.488609E-3
881.369019E-3
881.335831E-3
881.279182E-3
880.853462E-3
880.661774E-3
880.207443E-3
880.035782E-3
879.744530E-3
879.485893E-3
878.985214E-3
878.532028E-3
878.239059E-3
877.813339E-3
877.619934E-3
877.284050E-3
877.038002E-3
876.996803E-3
877.479744E-3
878.522301E-3
880.414009E-3
883.109093E-3
885.986710E-3
888.656616E-3
891.122818E-3
892.848587E-3
894.144630E-3
894.900513E-3
895.088768E-3
895.042992E-3
894.197273E-3
893.907738E-3
893.368721E-3
892.766190E-3
892.060089E-3
891.336250E-3
890.874481E-3
890.496254E-3
890.312576E-3
890.165520E-3
890.001869E-3
889.995003E-3
889.930344E-3
889.823914E-3
889.706039E-3
889.431381E-3
888.987923E-3
888.456917E-3
888.390541E-3
887.743378E-3
887.406921E-3
887.417221E-3
887.417221E-3
887.535667E-3
887.704468E-3
887.976837E-3
888.066101E-3
889.016533E-3
888.355637E-3
888.250923E-3
887.986565E-3
887.801743E-3
887.581444E-3
887.290192E-3
886.866760E-3
886.504555E-3
886.402130E-3
885.724068E-3
885.183907E-3
884.770775E-3
884.341621E-3
884.020615E-3
883.691597E-3
883.201790E-3
883.005524E-3
882.671356E-3
882.396126E-3
882.288551E-3
882.121468E-3
881.639671E-3
881.357002E-3
881.019974E-3
880.939293E-3
880.652618E-3
880.457497E-3
880.126762E-3
879.991722E-3
879.941368E-3
879.821205E-3
879.820061E-3
879.582024E-3
879.622650E-3
879.556847E-3
879.293060E-3
879.279900E-3
879.274750E-3
879.118538E-3
879.094505E-3
878.952599E-3
879.025841E-3
879.663277E-3
879.104805E-3
878.870773E-3
878.659630E-3
878.609276E-3
878.490257E-3
878.441620E-3
878.317451E-3
878.068542E-3
877.469444E-3
877.542114E-3
877.346992E-3
877.066612E-3
876.803398E-3
876.513290E-3
876.055527E-3
875.790024E-3
875.811768E-3
876.428604E-3
876.793671E-3
878.239632E-3
880.438042E-3
883.383751E-3
886.414719E-3
889.216805E-3
891.468430E-3
893.152428E-3
893.797874E-3
894.565201E-3
894.767189E-3
894.570923E-3
894.168663E-3
893.637085E-3
892.774200E-3
892.179108E-3
891.471291E-3
891.667557E-3
891.002655E-3
890.410423E-3
890.352058E-3
890.317726E-3
890.261078E-3
890.343475E-3
890.366364E-3
890.378380E-3
890.693665E-3
890.095711E-3
889.601326E-3
888.828278E-3
888.254929E-3
887.837219E-3
887.522507E-3
887.493324E-3
887.319946E-3
887.400627E-3
887.535667E-3
887.674713E-3
887.727356E-3
887.651253E-3
887.754822E-3
887.627792E-3
886.926270E-3
887.124252E-3
886.863899E-3
886.646461E-3
886.096001E-3
885.613632E-3
885.338402E-3
884.853745E-3
884.634590E-3
883.919907E-3
883.753395E-3
883.608055E-3
883.497047E-3
883.202934E-3
883.031273E-3
882.801819E-3
882.798958E-3
882.450485E-3
882.222748E-3
882.263374E-3
882.003021E-3
882.064819E-3
881.789017E-3
881.871986E-3
881.630516E-3
881.511497E-3
881.546974E-3
882.158661E-3
881.649399E-3
881.339836E-3
881.134987E-3
881.081200E-3
880.918694E-3
880.844879E-3
880.698967E-3
880.539322E-3
880.335045E-3
880.341339E-3
880.200577E-3
879.970551E-3
879.780006E-3
879.687881E-3
879.533386E-3
879.593468E-3
879.311371E-3
878.140640E-3
878.596687E-3
878.645325E-3
878.555489E-3
878.434753E-3
878.227615E-3
877.984428E-3
877.561569E-3
877.373886E-3
877.080345E-3
876.729012E-3
876.677513E-3
876.432610E-3
876.415443E-3
876.157379E-3
877.659416E-3
879.640388E-3
882.097435E-3
885.182190E-3
888.109589E-3
890.634727E-3
892.758179E-3
894.126892E-3
895.479584E-3
895.329666E-3
895.243835E-3
894.961739E-3
894.293976E-3
893.615913E-3
892.880630E-3
891.920471E-3
891.466713E-3
891.182327E-3
890.520859E-3
890.202713E-3
890.019035E-3
890.004158E-3
889.830208E-3
890.007019E-3
889.881706E-3
889.628220E-3
889.458275E-3
888.765335E-3
888.159943E-3
887.737656E-3
887.305069E-3
887.171173E-3
887.115669E-3
887.396622E-3
887.599754E-3
887.905884E-3
888.161659E-3
888.202858E-3
888.304710E-3
888.264656E-3
888.260651E-3
888.080406E-3
887.884140E-3
887.471008E-3
887.212944E-3
886.689949E-3
886.310577E-3
885.796165E-3
885.568428E-3
885.266304E-3
884.784508E-3
884.459496E-3
884.115601E-3
883.927345E-3
883.668137E-3
883.412361E-3
883.324242E-3
883.031845E-3
882.965469E-3
882.850456E-3
882.756615E-3
882.505417E-3
882.252502E-3
882.114601E-3
882.044792E-3
881.868553E-3
881.687164E-3
881.407356E-3
881.308937E-3
881.529808E-3
881.195068E-3
881.078911E-3
880.869484E-3
880.738449E-3
880.627441E-3
880.518723E-3
880.491257E-3
880.396843E-3
879.819489E-3
880.028915E-3
879.906464E-3
879.774857E-3
879.467010E-3
879.346848E-3
879.230690E-3
878.913689E-3
878.760910E-3
878.383827E-3
878.204155E-3
877.939796E-3
877.632523E-3
877.409935E-3
877.023697E-3
876.880646E-3
876.644897E-3
876.537895E-3
877.049446E-3
877.432823E-3
878.621864E-3
880.655479E-3
883.530235E-3
886.701393E-3
889.084053E-3
891.374588E-3
892.917252E-3
893.884850E-3
894.606400E-3
894.417000E-3
894.394684E-3
893.721199E-3
893.069458E-3
892.418861E-3
891.517067E-3
890.822983E-3
890.101433E-3
889.534378E-3
889.268303E-3
889.093208E-3
888.896370E-3
888.962173E-3
888.973045E-3
889.122391E-3
888.769341E-3
888.427734E-3
887.999725E-3
887.425232E-3
886.877060E-3
886.319733E-3
886.101723E-3
886.268234E-3
886.112022E-3
886.379242E-3
886.468506E-3
886.578369E-3
886.874771E-3
886.930275E-3
886.974335E-3
886.935997E-3
886.741447E-3
886.637306E-3
886.301994E-3
885.956955E-3
886.635017E-3
885.500908E-3
884.781647E-3
884.155655E-3
883.790016E-3
883.127403E-3
882.913399E-3
882.675362E-3
882.457924E-3
882.800102E-3
882.118607E-3
881.774139E-3
881.531525E-3
881.336975E-3
881.246567E-3
880.998230E-3
880.904961E-3
880.747032E-3
880.546761E-3
880.446053E-3
880.154228E-3
880.144501E-3
879.982567E-3
879.929352E-3
880.016327E-3
879.658127E-3
879.550552E-3
879.473305E-3
879.213524E-3
879.187202E-3
878.897095E-3
878.708839E-3
878.631592E-3
878.387260E-3
878.303146E-3
877.938652E-3
878.016472E-3
877.892876E-3
877.873421E-3
877.867126E-3
877.610207E-3
877.444267E-3
876.957893E-3
877.019119E-3
877.077484E-3
876.882935E-3
