Notes :


2023-11-04 ¿ÀÀü 1:22:38
Volts
Ch : LED 2,
609.842491E-3
609.759521E-3
610.863304E-3
610.839272E-3
611.883545E-3
612.369919E-3
611.809158E-3
613.356400E-3
612.647438E-3
613.377571E-3
613.843918E-3
613.513756E-3
614.851570E-3
613.906288E-3
614.863014E-3
615.070152E-3
614.414978E-3
616.062927E-3
615.408325E-3
616.261482E-3
616.380501E-3
616.183662E-3
617.883110E-3
617.404747E-3
618.078232E-3
618.519402E-3
618.310547E-3
620.153618E-3
619.784546E-3
620.473480E-3
620.947266E-3
620.796776E-3
622.515106E-3
621.803284E-3
622.334290E-3
622.549438E-3
622.382927E-3
623.918724E-3
622.938538E-3
623.682404E-3
624.174500E-3
623.953056E-3
625.712013E-3
624.767876E-3
625.550652E-3
626.280212E-3
626.156616E-3
627.995110E-3
627.294731E-3
627.901268E-3
628.134727E-3
627.575111E-3
628.615952E-3
626.762581E-3
625.065994E-3
621.260834E-3
614.834976E-3
608.889771E-3
600.347900E-3
593.620491E-3
588.325882E-3
582.305717E-3
581.729507E-3
580.114746E-3
580.990791E-3
582.744598E-3
584.183121E-3
587.529945E-3
588.708115E-3
591.400909E-3
593.488884E-3
594.472504E-3
596.394539E-3
595.721054E-3
596.278954E-3
596.278381E-3
595.496178E-3
596.177673E-3
594.906807E-3
595.643806E-3
596.936417E-3
597.648239E-3
600.448608E-3
600.769615E-3
602.011299E-3
602.534294E-3
601.772690E-3
602.486801E-3
600.343895E-3
599.582863E-3
599.093056E-3
597.746658E-3
598.726273E-3
597.710609E-3
598.526573E-3
599.521637E-3
599.912453E-3
602.266502E-3
602.435875E-3
603.876686E-3
605.158424E-3
605.669403E-3
607.865524E-3
608.045197E-3
609.171867E-3
610.185242E-3
610.213852E-3
611.934471E-3
611.396027E-3
612.077522E-3
612.757301E-3
612.351036E-3
613.971519E-3
613.325500E-3
613.494873E-3
613.012505E-3
612.895203E-3
614.500809E-3
614.036751E-3
614.140320E-3
614.631844E-3
614.217567E-3
615.678406E-3
615.135956E-3
615.286446E-3
615.945053E-3
615.545654E-3
616.999626E-3
616.580772E-3
616.822243E-3
617.812157E-3
617.528343E-3
619.117355E-3
619.003487E-3
619.508171E-3
620.195389E-3
619.806862E-3
621.280289E-3
621.113205E-3
621.408463E-3
622.271347E-3
621.890831E-3
623.336220E-3
623.052979E-3
623.464394E-3
624.668312E-3
623.270416E-3
625.385284E-3
625.336075E-3
625.873375E-3
627.007484E-3
626.468468E-3
627.534485E-3
627.000046E-3
626.399231E-3
624.565887E-3
620.157623E-3
615.998840E-3
608.813667E-3
601.381874E-3
595.342827E-3
588.812256E-3
585.853386E-3
583.276176E-3
582.344627E-3
582.907104E-3
583.901596E-3
586.919403E-3
588.772202E-3
591.046715E-3
593.796730E-3
595.012093E-3
597.423935E-3
598.088837E-3
598.826981E-3
599.434662E-3
598.803520E-3
599.649811E-3
599.094772E-3
599.331093E-3
600.419998E-3
600.743866E-3
603.452682E-3
604.225159E-3
604.979897E-3
606.028175E-3
605.014229E-3
605.539513E-3
603.936195E-3
602.884483E-3
602.418137E-3
600.831413E-3
601.496887E-3
600.877190E-3
600.767899E-3
601.454544E-3
601.605606E-3
603.985977E-3
604.553604E-3
605.389595E-3
607.163429E-3
607.613182E-3
610.085678E-3
610.988045E-3
611.492157E-3
612.594795E-3
612.942123E-3
615.043259E-3
615.185165E-3
614.464760E-3
615.830612E-3
615.577698E-3
616.981888E-3
616.859436E-3
615.925598E-3
616.890335E-3
616.588783E-3
617.900276E-3
617.900276E-3
617.385292E-3
618.054199E-3
617.653656E-3
618.926811E-3
618.771744E-3
618.343163E-3
619.164848E-3
618.661880E-3
620.010567E-3
620.139885E-3
619.888115E-3
620.956421E-3
620.621109E-3
622.277641E-3
622.456741E-3
622.397232E-3
623.430061E-3
622.960281E-3
624.416542E-3
624.547577E-3
624.403954E-3
625.385857E-3
624.874878E-3
626.189232E-3
626.110268E-3
625.874519E-3
625.891685E-3
626.260185E-3
627.735329E-3
628.202820E-3
628.007698E-3
629.277420E-3
628.967857E-3
630.338860E-3
630.533981E-3
629.159546E-3
629.924583E-3
629.570961E-3
629.317474E-3
626.128006E-3
620.181084E-3
614.249611E-3
605.987549E-3
598.893356E-3
592.026901E-3
586.064529E-3
583.061600E-3
580.440903E-3
580.735588E-3
581.492615E-3
582.299995E-3
585.059738E-3
586.589241E-3
589.353561E-3
591.267014E-3
592.180252E-3
594.605255E-3
594.295692E-3
595.263290E-3
595.253563E-3
592.708969E-3
594.506264E-3
593.563843E-3
593.904305E-3
594.156075E-3
594.323158E-3
597.086334E-3
597.536659E-3
599.645233E-3
600.513840E-3
598.691940E-3
601.304054E-3
600.557899E-3
600.478935E-3
599.779129E-3
598.711967E-3
599.484444E-3
598.236465E-3
598.675919E-3
599.066162E-3
599.085617E-3
601.179314E-3
601.094055E-3
602.510834E-3
603.512764E-3
604.482651E-3
606.761742E-3
606.860161E-3
608.296967E-3
609.249687E-3
607.974815E-3
611.071014E-3
610.891342E-3
611.998558E-3
612.524414E-3
612.494659E-3
614.064789E-3
613.013077E-3
613.568115E-3
614.072800E-3
612.717247E-3
615.103912E-3
614.267921E-3
614.963722E-3
615.602303E-3
614.013290E-3
616.223145E-3
615.447807E-3
616.249466E-3
616.975594E-3
616.529846E-3
617.883682E-3
617.068291E-3
617.717171E-3
618.330574E-3
618.146324E-3
619.922447E-3
619.164848E-3
619.785118E-3
620.524406E-3
620.487785E-3
622.020721E-3
621.308899E-3
621.922874E-3
622.563744E-3
622.381210E-3
624.136162E-3
622.903061E-3
623.472977E-3
624.169922E-3
623.994255E-3
625.512886E-3
624.751282E-3
625.713158E-3
626.678467E-3
626.633835E-3
628.148460E-3
627.285576E-3
627.846909E-3
628.395081E-3
627.931023E-3
628.619385E-3
626.256180E-3
623.246384E-3
618.485069E-3
609.759521E-3
604.445457E-3
596.763039E-3
590.635300E-3
586.315155E-3
582.750320E-3
582.433891E-3
581.340408E-3
582.067680E-3
584.029770E-3
584.023476E-3
588.282394E-3
589.846230E-3
592.021751E-3
594.026184E-3
594.462776E-3
596.434593E-3
595.697594E-3
595.670128E-3
595.635796E-3
594.122887E-3
594.893646E-3
594.134331E-3
594.828415E-3
596.266937E-3
596.927261E-3
599.522781E-3
599.744225E-3
600.305557E-3
600.026321E-3
599.010658E-3
599.412346E-3
597.762108E-3
596.453476E-3
596.150780E-3
595.017242E-3
596.030045E-3
595.571709E-3
596.242332E-3
597.473717E-3
597.581863E-3
599.785423E-3
600.333023E-3
601.531219E-3
603.057861E-3
603.340530E-3
605.161285E-3
605.478287E-3
606.219864E-3
607.405472E-3
607.110786E-3
608.672905E-3
608.774757E-3
608.969879E-3
609.687424E-3
609.081459E-3
610.491943E-3
610.249901E-3
610.399246E-3
611.036110E-3
610.517120E-3
611.537933E-3
611.369133E-3
611.557961E-3
611.898994E-3
611.254120E-3
612.744141E-3
612.438583E-3
612.697220E-3
613.355827E-3
613.053703E-3
614.404678E-3
614.185524E-3
614.633560E-3
615.392876E-3
615.222931E-3
616.591072E-3
616.561890E-3
616.676903E-3
617.588997E-3
617.321205E-3
618.932533E-3
618.743706E-3
619.099617E-3
619.943047E-3
619.598007E-3
621.561813E-3
621.493149E-3
621.716881E-3
622.630692E-3
622.390938E-3
623.981667E-3
624.138451E-3
624.373627E-3
624.877167E-3
624.063492E-3
625.015068E-3
623.402023E-3
620.207405E-3
616.193390E-3
609.334946E-3
603.643799E-3
596.535873E-3
590.019608E-3
585.943794E-3
582.136345E-3
581.965828E-3
581.438255E-3
582.098579E-3
584.258652E-3
585.822487E-3
589.354134E-3
591.089058E-3
592.679214E-3
594.994926E-3
595.568275E-3
597.505188E-3
597.657394E-3
597.252846E-3
597.815323E-3
597.242546E-3
598.233604E-3
598.628998E-3
599.134254E-3
601.225662E-3
601.972389E-3
604.118156E-3
604.430008E-3
603.408051E-3
603.608894E-3
602.175522E-3
602.245331E-3
600.827408E-3
599.483871E-3
599.509048E-3
598.504829E-3
599.546814E-3
599.795151E-3
599.311066E-3
600.723267E-3
601.515770E-3
603.773117E-3
604.850578E-3
605.777550E-3
607.739067E-3
608.238029E-3
610.125160E-3
611.081886E-3
611.263847E-3
612.721252E-3
612.558746E-3
613.948631E-3
614.242744E-3
614.134026E-3
615.246964E-3
614.715958E-3
615.910149E-3
615.875816E-3
615.588570E-3
616.493225E-3
615.820313E-3
616.865158E-3
616.894341E-3
616.370773E-3
617.244530E-3
616.731262E-3
617.602730E-3
617.601013E-3
617.197609E-3
618.269920E-3
617.863083E-3
619.018364E-3
619.302750E-3
619.255257E-3
620.221138E-3
620.105553E-3
621.139526E-3
621.636772E-3
621.438217E-3
622.992325E-3
622.265053E-3
622.982597E-3
623.357391E-3
623.075294E-3
624.605370E-3
623.917007E-3
624.628830E-3
625.007629E-3
623.044395E-3
625.975800E-3
626.036453E-3
627.161980E-3
627.896690E-3
627.721596E-3
629.452515E-3
628.368187E-3
628.581047E-3
628.242302E-3
626.079941E-3
623.630333E-3
616.858864E-3
610.011292E-3
602.418709E-3
594.595528E-3
589.251137E-3
583.657837E-3
580.865479E-3
579.521370E-3
579.138565E-3
581.129837E-3
581.873703E-3
584.498978E-3
586.696243E-3
588.128471E-3
591.249847E-3
591.414070E-3
592.929268E-3
593.695450E-3
593.314934E-3
594.267654E-3
592.664909E-3
592.516708E-3
592.642593E-3
592.214012E-3
593.867111E-3
593.796158E-3
595.656395E-3
597.234535E-3
598.327446E-3
600.464630E-3
599.321365E-3
599.801445E-3
599.466705E-3
596.890068E-3
598.355484E-3
596.970749E-3
597.448540E-3
597.407913E-3
595.288467E-3
598.223305E-3
598.160362E-3
599.351692E-3
600.862885E-3
601.543808E-3
603.829193E-3
603.801727E-3
605.295753E-3
606.523132E-3
606.756592E-3
608.834267E-3
608.489799E-3
609.517479E-3
610.386086E-3
610.409546E-3
611.768532E-3
611.385727E-3
611.888123E-3
612.538147E-3
612.083817E-3
613.536072E-3
612.545586E-3
612.965584E-3
613.551521E-3
613.181877E-3
614.677048E-3
613.825607E-3
614.284515E-3
614.619827E-3
614.302826E-3
615.624619E-3
614.941406E-3
615.387154E-3
615.353966E-3
615.490150E-3
617.197037E-3
616.738701E-3
617.138100E-3
617.921448E-3
617.673111E-3
619.156837E-3
618.689919E-3
619.215775E-3
619.987679E-3
619.323921E-3
620.789909E-3
620.364189E-3
620.559883E-3
621.555519E-3
619.475555E-3
622.176933E-3
622.301674E-3
622.814941E-3
623.819733E-3
623.529053E-3
625.027657E-3
624.878311E-3
625.154114E-3
625.717735E-3
625.253677E-3
626.094818E-3
625.331497E-3
623.911858E-3
620.689201E-3
615.530777E-3
610.193253E-3
602.500534E-3
595.590591E-3
589.580154E-3
584.119606E-3
582.001877E-3
579.916763E-3
579.811478E-3
581.226540E-3
581.857109E-3
585.226822E-3
587.099648E-3
589.176750E-3
591.272163E-3
592.025185E-3
594.173241E-3
594.469070E-3
594.716835E-3
594.867897E-3
593.695450E-3
594.412994E-3
594.127464E-3
594.303703E-3
595.581436E-3
595.995712E-3
598.506546E-3
599.585152E-3
600.419998E-3
601.134109E-3
600.081825E-3
600.320435E-3
598.929405E-3
597.849083E-3
597.419357E-3
596.346474E-3
596.821976E-3
596.516418E-3
596.875763E-3
597.957802E-3
598.083687E-3
600.122452E-3
600.745010E-3
601.617622E-3
602.979469E-3
603.516769E-3
605.977821E-3
606.437302E-3
607.082176E-3
608.353043E-3
607.938766E-3
609.869385E-3
609.816170E-3
609.823608E-3
610.741425E-3
610.360336E-3
611.908722E-3
611.630630E-3
611.420059E-3
611.987686E-3
611.475563E-3
612.812233E-3
612.631989E-3
612.282944E-3
613.093185E-3
612.757301E-3
614.328575E-3
613.762093E-3
613.494301E-3
613.589859E-3
613.695145E-3
615.525055E-3
615.117645E-3
615.275574E-3
615.994263E-3
615.760231E-3
617.507172E-3
617.524910E-3
617.126083E-3
618.132591E-3
617.861366E-3
619.291878E-3
619.299889E-3
619.335365E-3
619.840050E-3
620.273209E-3
621.893120E-3
622.135162E-3
622.292519E-3
623.335075E-3
623.216629E-3
624.715233E-3
624.840546E-3
624.795914E-3
625.437355E-3
624.422836E-3
624.645424E-3
622.548294E-3
618.477631E-3
613.605881E-3
606.143188E-3
600.041771E-3
592.929840E-3
586.459923E-3
583.143997E-3
580.104446E-3
579.982567E-3
580.259514E-3
580.788231E-3
583.263016E-3
584.498978E-3
587.613487E-3
589.541817E-3
590.812683E-3
592.789078E-3
593.123245E-3
594.441032E-3
594.530296E-3
593.807602E-3
594.526291E-3
593.595886E-3
594.264793E-3
594.897079E-3
595.481300E-3
597.786713E-3
598.696518E-3
600.694084E-3
601.322365E-3
600.962448E-3
601.284599E-3
599.986267E-3
599.744797E-3
598.691368E-3
597.156143E-3
597.637939E-3
596.711540E-3
597.420502E-3
597.830772E-3
597.896004E-3
599.735069E-3
600.081825E-3
601.675987E-3
602.861595E-3
603.527641E-3
605.904007E-3
606.262207E-3
607.673836E-3
608.724403E-3
608.769035E-3
610.612106E-3
610.198975E-3
611.175728E-3
611.709595E-3
611.411476E-3
613.163567E-3
612.322998E-3
612.930107E-3
613.407898E-3
612.922096E-3
614.104271E-3
613.109207E-3
613.734055E-3
614.144325E-3
613.897133E-3
615.236092E-3
614.231300E-3
614.808083E-3
614.976311E-3
614.841843E-3
616.386795E-3
615.480423E-3
616.274071E-3
616.591644E-3
616.729546E-3
618.329430E-3
617.652512E-3
618.499374E-3
619.160843E-3
618.873024E-3
620.570755E-3
619.616890E-3
620.509529E-3
620.983315E-3
620.801926E-3
622.275352E-3
621.268845E-3
621.992683E-3
622.987747E-3
622.736549E-3
624.413681E-3
623.719597E-3
624.727249E-3
625.526047E-3
624.605942E-3
626.567459E-3
625.769806E-3
625.928307E-3
625.733185E-3
623.868942E-3
621.512032E-3
614.999771E-3
608.372498E-3
601.147842E-3
593.523216E-3
588.365936E-3
582.384109E-3
579.305649E-3
577.957535E-3
577.381897E-3
579.306793E-3
579.801750E-3
581.953812E-3
584.474945E-3
585.860252E-3
588.505554E-3
588.569069E-3
589.926910E-3
590.430450E-3
590.007019E-3
591.022110E-3
589.829636E-3
589.929771E-3
589.805603E-3
589.116096E-3
590.800667E-3
590.880775E-3
592.580795E-3
593.971252E-3
594.937706E-3
597.324944E-3
596.673775E-3
596.467781E-3
596.511269E-3
595.211792E-3
595.916176E-3
594.589806E-3
594.429588E-3
594.684792E-3
592.714691E-3
595.349693E-3
595.876694E-3
596.989059E-3
598.441887E-3
598.709106E-3
601.081467E-3
601.369286E-3
602.427292E-3
603.828621E-3
604.094124E-3
606.184387E-3
606.045914E-3
606.796646E-3
607.891846E-3
605.009079E-3
607.841492E-3
607.999420E-3
608.684349E-3
609.597588E-3
609.048843E-3
610.301971E-3
609.864235E-3
610.175514E-3
610.822678E-3
610.232162E-3
611.493874E-3
611.014366E-3
611.584854E-3
612.270355E-3
611.896133E-3
613.185883E-3
612.777328E-3
613.221931E-3
613.806152E-3
613.319778E-3
614.735413E-3
614.643288E-3
614.958000E-3
615.805435E-3
613.842773E-3
616.138458E-3
616.593933E-3
617.032814E-3
617.812157E-3
615.059280E-3
617.812729E-3
618.144608E-3
618.458748E-3
619.226646E-3
618.739700E-3
620.273209E-3
620.389366E-3
620.679474E-3
621.504021E-3
621.052551E-3
622.527695E-3
622.715378E-3
622.935104E-3
623.620033E-3
622.994614E-3
624.107552E-3
622.906494E-3
622.060776E-3
619.658661E-3
614.703369E-3
609.661674E-3
601.974106E-3
594.831848E-3
588.965034E-3
583.170319E-3
581.028557E-3
578.548622E-3
577.866554E-3
578.379250E-3
579.461861E-3
582.773209E-3
584.381676E-3
586.025047E-3
588.336182E-3
589.076042E-3
591.592026E-3
591.757965E-3
591.538811E-3
592.083549E-3
590.994644E-3
592.005730E-3
591.116524E-3
590.672493E-3
592.284966E-3
592.977905E-3
596.064949E-3
597.079468E-3
597.916031E-3
598.522568E-3
597.604752E-3
598.413849E-3
597.006226E-3
595.509911E-3
595.162010E-3
594.062233E-3
594.892502E-3
594.545174E-3
594.295692E-3
595.725632E-3
595.825768E-3
597.819901E-3
598.447609E-3
599.191475E-3
600.830269E-3
601.374435E-3
603.603745E-3
604.297829E-3
604.494667E-3
605.829620E-3
605.570984E-3
607.176590E-3
607.239532E-3
607.328224E-3
