Notes :


2023-11-10 ¿ÀÈÄ 10:14:24
Volts
Ch : LED 2,
317.754364E-3
317.684555E-3
317.590141E-3
317.579269E-3
317.338943E-3
317.143250E-3
316.848564E-3
316.653442E-3
316.452599E-3
316.334152E-3
316.314125E-3
316.012001E-3
315.840340E-3
315.672112E-3
315.577126E-3
315.469551E-3
315.383148E-3
315.370560E-3
315.475273E-3
315.367126E-3
315.343094E-3
315.169716E-3
315.100479E-3
315.121651E-3
315.160561E-3
315.271568E-3
315.330505E-3
315.270424E-3
315.249825E-3
315.081024E-3
315.091896E-3
315.075874E-3
314.995766E-3
315.070152E-3
315.018654E-3
315.061569E-3
314.992905E-3
314.916229E-3
314.968300E-3
314.927673E-3
315.148544E-3
315.125084E-3
315.031815E-3
315.113640E-3
314.937401E-3
314.987755E-3
314.889336E-3
314.873886E-3
314.851570E-3
314.760590E-3
314.753151E-3
314.721680E-3
314.817810E-3
314.897919E-3
315.176582E-3
315.868950E-3
316.765594E-3
318.188095E-3
319.751358E-3
321.409035E-3
322.974014E-3
324.043465E-3
324.783897E-3
325.164986E-3
325.070572E-3
324.801064E-3
324.220276E-3
323.435211E-3
322.666168E-3
321.988678E-3
321.604156E-3
321.153259E-3
320.991325E-3
320.907784E-3
320.893478E-3
321.062279E-3
321.139526E-3
321.276855E-3
321.403313E-3
321.389580E-3
321.348953E-3
320.969582E-3
320.686913E-3
320.285797E-3
320.006561E-3
319.802284E-3
319.679832E-3
319.592285E-3
319.717026E-3
319.703293E-3
319.908714E-3
319.988823E-3
320.048332E-3
320.095253E-3
319.766235E-3
319.723892E-3
319.533920E-3
319.259834E-3
319.134521E-3
318.846130E-3
318.756866E-3
318.521690E-3
318.355179E-3
318.189812E-3
318.025017E-3
317.940331E-3
317.764664E-3
317.576408E-3
317.582703E-3
317.432785E-3
317.492867E-3
317.399597E-3
317.312622E-3
317.448807E-3
317.326355E-3
317.349243E-3
317.221069E-3
317.153549E-3
317.182732E-3
317.086601E-3
317.178726E-3
317.047119E-3
317.013931E-3
317.035103E-3
316.823959E-3
316.836548E-3
316.712379E-3
316.650009E-3
316.643715E-3
316.625977E-3
316.707802E-3
316.668320E-3
316.595078E-3
316.539574E-3
316.250610E-3
316.242027E-3
316.116714E-3
316.068649E-3
316.030884E-3
315.788269E-3
315.759087E-3
315.580559E-3
315.476990E-3
315.493584E-3
315.405464E-3
315.414619E-3
315.494156E-3
315.828896E-3
316.596222E-3
317.519760E-3
318.942261E-3
320.479202E-3
321.931458E-3
323.313904E-3
324.331284E-3
325.008202E-3
325.170135E-3
324.990463E-3
324.522400E-3
323.649788E-3
322.948265E-3
322.207260E-3
321.599579E-3
321.195602E-3
320.763016E-3
320.704079E-3
320.451736E-3
320.468903E-3
320.594215E-3
320.549583E-3
320.816231E-3
320.725250E-3
320.523834E-3
320.270348E-3
319.763374E-3
319.438934E-3
319.080162E-3
318.866158E-3
318.860435E-3
318.747139E-3
318.878174E-3
318.972588E-3
319.341087E-3
319.543648E-3
319.496155E-3
319.575691E-3
319.392014E-3
319.181442E-3
319.040108E-3
318.699074E-3
318.592072E-3
318.490791E-3
318.217278E-3
318.156052E-3
317.867661E-3
317.740059E-3
317.522049E-3
317.384720E-3
317.233086E-3
316.928101E-3
317.063141E-3
316.934967E-3
316.955566E-3
316.975594E-3
316.822815E-3
316.906357E-3
316.770744E-3
316.769028E-3
316.706657E-3
316.532707E-3
316.671753E-3
316.564751E-3
316.624260E-3
316.710663E-3
316.551590E-3
316.611671E-3
316.588783E-3
316.508675E-3
316.555023E-3
316.513252E-3
316.652870E-3
316.530991E-3
316.537285E-3
316.474915E-3
316.343307E-3
316.300964E-3
316.212845E-3
316.317558E-3
316.273499E-3
315.971947E-3
315.921021E-3
315.795135E-3
315.587997E-3
315.573120E-3
315.476418E-3
315.585136E-3
315.539360E-3
315.717316E-3
316.284943E-3
316.991615E-3
318.198395E-3
319.531631E-3
320.982742E-3
322.497940E-3
323.646927E-3
324.540138E-3
324.901199E-3
324.874306E-3
324.407959E-3
323.642349E-3
322.945404E-3
322.291374E-3
321.635628E-3
321.282005E-3
320.785904E-3
320.585632E-3
320.384789E-3
320.403671E-3
320.429420E-3
320.479202E-3
320.569611E-3
320.518112E-3
320.269203E-3
320.162773E-3
319.584274E-3
319.424057E-3
319.104195E-3
318.994331E-3
319.111633E-3
319.201469E-3
319.450951E-3
319.675827E-3
319.797134E-3
319.955635E-3
319.898415E-3
319.968224E-3
319.783974E-3
319.548798E-3
319.327927E-3
319.077873E-3
318.885040E-3
318.561745E-3
318.386078E-3
318.223000E-3
317.933464E-3
317.796707E-3
317.590714E-3
317.348099E-3
317.309761E-3
317.194748E-3
317.222214E-3
317.102623E-3
317.063141E-3
317.113495E-3
316.886330E-3
316.834259E-3
316.704941E-3
316.561317E-3
316.613388E-3
316.512680E-3
316.639137E-3
316.559601E-3
316.483498E-3
316.490364E-3
316.456604E-3
316.490936E-3
316.454315E-3
316.379929E-3
316.372490E-3
316.251183E-3
316.414833E-3
316.339874E-3
316.240883E-3
316.291809E-3
316.117859E-3
316.164207E-3
316.024590E-3
315.962791E-3
316.077232E-3
315.941048E-3
315.915871E-3
315.745926E-3
315.612030E-3
315.583420E-3
315.448380E-3
315.559959E-3
315.539360E-3
315.502739E-3
315.754509E-3
316.212845E-3
317.161560E-3
318.397522E-3
320.020294E-3
321.683121E-3
323.212624E-3
324.803925E-3
325.890541E-3
326.485062E-3
326.838112E-3
326.454163E-3
325.877953E-3
325.150681E-3
324.455452E-3
323.815155E-3
323.296165E-3
323.030090E-3
322.807503E-3
322.565460E-3
322.674751E-3
322.638130E-3
322.831535E-3
322.978020E-3
322.949982E-3
323.060417E-3
322.698212E-3
322.347450E-3
321.740341E-3
321.160126E-3
320.775032E-3
320.392799E-3
320.177078E-3
320.137596E-3
320.125580E-3
320.348740E-3
320.320129E-3
320.433426E-3
320.522690E-3
320.357323E-3
320.318413E-3
320.068932E-3
319.993973E-3
319.707870E-3
319.497871E-3
319.228363E-3
318.980026E-3
318.721962E-3
318.325424E-3
318.138313E-3
318.017578E-3
317.786980E-3
317.695999E-3
317.563820E-3
317.480850E-3
317.417908E-3
317.278862E-3
317.337799E-3
317.266273E-3
317.111206E-3
317.098045E-3
317.066574E-3
317.045975E-3
317.035675E-3
316.958427E-3
316.997337E-3
316.995621E-3
317.002487E-3
317.003632E-3
316.858864E-3
316.858292E-3
316.683769E-3
316.751289E-3
316.827965E-3
316.750145E-3
316.750145E-3
316.610527E-3
316.703796E-3
316.643143E-3
316.591072E-3
316.637421E-3
316.485214E-3
316.528702E-3
316.392517E-3
316.308975E-3
316.334724E-3
316.175652E-3
316.172791E-3
316.085243E-3
315.884399E-3
315.902138E-3
315.736771E-3
315.697289E-3
315.610313E-3
315.685844E-3
315.901566E-3
316.264343E-3
317.165565E-3
318.299675E-3
319.724464E-3
321.427345E-3
323.083878E-3
324.758720E-3
325.987244E-3
326.877022E-3
327.235794E-3
327.170563E-3
326.729393E-3
326.021004E-3
325.201035E-3
324.530411E-3
323.849487E-3
323.458099E-3
323.146820E-3
322.886467E-3
322.975159E-3
322.983170E-3
323.102760E-3
323.248100E-3
323.188019E-3
323.197174E-3
322.920799E-3
322.465324E-3
321.850777E-3
321.253395E-3
320.811653E-3
320.277214E-3
320.165634E-3
320.062065E-3
320.043182E-3
320.135307E-3
320.219421E-3
320.372200E-3
320.507240E-3
320.397949E-3
320.410538E-3
320.108414E-3
319.838905E-3
319.648933E-3
319.398308E-3
319.227219E-3
318.856430E-3
318.721962E-3
318.503952E-3
318.090820E-3
317.903137E-3
317.680550E-3
317.554665E-3
317.507744E-3
317.378426E-3
317.350960E-3
317.237091E-3
317.310333E-3
317.175865E-3
316.990471E-3
316.940117E-3
316.834831E-3
316.845131E-3
316.893196E-3
316.814232E-3
316.922951E-3
316.771889E-3
316.757011E-3
316.765594E-3
316.685486E-3
316.652870E-3
316.524696E-3
316.502953E-3
316.585922E-3
316.426849E-3
316.506386E-3
316.350746E-3
316.291237E-3
316.255760E-3
316.206551E-3
316.330147E-3
316.187096E-3
316.234589E-3
316.133881E-3
315.891266E-3
316.006851E-3
315.824318E-3
315.798569E-3
315.731621E-3
315.694427E-3
315.704155E-3
315.593719E-3
315.450668E-3
315.459824E-3
315.201187E-3
315.280724E-3
315.206909E-3
315.345955E-3
315.464401E-3
315.891838E-3
316.921234E-3
318.054199E-3
319.719315E-3
321.389580E-3
323.071861E-3
324.779892E-3
325.825882E-3
326.552010E-3
326.694489E-3
326.192093E-3
325.762367E-3
324.904060E-3
324.045181E-3
323.441505E-3
322.817802E-3
322.448158E-3
322.025299E-3
322.025299E-3
321.995544E-3
321.965218E-3
322.290802E-3
322.375488E-3
322.429848E-3
322.337723E-3
321.997833E-3
321.695137E-3
321.146393E-3
320.752716E-3
320.481491E-3
320.294380E-3
320.447159E-3
320.466042E-3
320.713234E-3
320.905495E-3
321.105766E-3
321.394730E-3
321.288300E-3
321.204758E-3
321.066284E-3
320.646286E-3
320.541573E-3
320.228004E-3
319.998550E-3
319.729042E-3
319.414902E-3
319.302177E-3
319.050407E-3
318.883324E-3
318.800926E-3
318.546867E-3
318.522263E-3
318.385506E-3
318.331146E-3
318.379784E-3
318.221855E-3
318.235588E-3
318.097115E-3
318.119431E-3
318.065071E-3
317.911148E-3
318.035889E-3
317.923737E-3
317.924309E-3
317.950058E-3
317.808151E-3
317.914009E-3
317.811584E-3
317.764091E-3
317.773819E-3
317.633629E-3
317.715454E-3
317.520905E-3
317.576981E-3
317.679977E-3
317.469978E-3
317.502594E-3
317.477989E-3
317.394447E-3
317.388725E-3
317.363548E-3
317.323494E-3
317.177010E-3
317.140961E-3
317.049408E-3
316.872025E-3
316.845131E-3
316.719246E-3
316.577339E-3
316.502953E-3
316.494942E-3
316.549301E-3
316.568756E-3
316.739845E-3
317.166710E-3
317.916870E-3
319.184303E-3
320.655441E-3
322.381783E-3
324.290657E-3
325.866508E-3
327.376556E-3
328.275490E-3
328.680611E-3
328.597641E-3
327.959633E-3
327.339363E-3
326.481056E-3
325.712585E-3
325.116348E-3
324.593925E-3
324.430275E-3
324.132156E-3
324.086952E-3
324.153328E-3
324.217987E-3
324.350739E-3
324.454308E-3
324.536133E-3
324.510956E-3
324.064636E-3
323.475266E-3
322.801781E-3
322.360611E-3
322.060204E-3
321.837044E-3
321.895409E-3
321.824455E-3
321.932602E-3
322.172356E-3
322.223854E-3
322.391510E-3
322.318268E-3
322.218132E-3
322.114563E-3
321.778107E-3
321.597862E-3
321.302032E-3
321.124077E-3
320.859146E-3
320.468330E-3
320.246315E-3
319.829750E-3
319.539642E-3
319.421196E-3
319.199181E-3
319.097328E-3
318.894768E-3
318.928528E-3
318.897629E-3
318.751717E-3
318.813515E-3
318.646431E-3
318.571472E-3
318.580055E-3
318.462753E-3
318.455887E-3
318.402100E-3
318.375778E-3
318.477058E-3
318.327713E-3
318.367195E-3
318.246460E-3
318.279648E-3
318.200684E-3
318.038750E-3
318.051910E-3
317.961502E-3
317.960930E-3
317.893410E-3
317.775536E-3
317.686272E-3
317.618179E-3
317.624474E-3
317.677689E-3
317.629623E-3
317.651367E-3
317.526627E-3
317.524910E-3
317.447090E-3
317.280579E-3
317.252541E-3
317.137527E-3
317.173004E-3
317.114639E-3
317.002487E-3
316.977882E-3
316.749001E-3
316.687202E-3
316.685486E-3
316.599083E-3
316.715813E-3
316.822815E-3
317.282867E-3
318.095970E-3
319.345665E-3
320.993042E-3
322.804070E-3
324.746132E-3
326.478195E-3
327.890968E-3
328.934097E-3
329.283142E-3
329.203033E-3
328.734970E-3
328.023720E-3
327.092743E-3
326.173782E-3
325.403595E-3
324.878311E-3
324.544716E-3
324.413109E-3
324.266624E-3
324.354172E-3
324.522972E-3
324.580193E-3
324.838829E-3
324.804497E-3
324.694061E-3
324.482346E-3
323.907852E-3
323.424339E-3
322.853279E-3
322.464180E-3
322.202682E-3
321.973801E-3
321.935463E-3
321.950340E-3
322.055626E-3
322.143173E-3
322.255325E-3
322.330284E-3
322.253609E-3
322.148323E-3
321.997261E-3
321.729469E-3
321.536064E-3
321.197319E-3
320.874023E-3
320.592499E-3
320.207977E-3
319.963074E-3
319.646645E-3
319.392586E-3
319.304466E-3
319.085312E-3
318.996620E-3
318.790054E-3
318.816376E-3
318.702507E-3
318.557739E-3
318.618965E-3
318.501091E-3
318.419838E-3
318.507385E-3
318.304253E-3
318.263054E-3
318.149185E-3
318.162918E-3
318.153191E-3
318.030739E-3
318.053627E-3
317.886543E-3
317.893982E-3
317.896271E-3
317.807007E-3
317.833900E-3
317.698860E-3
317.674828E-3
317.665100E-3
317.468262E-3
317.427063E-3
317.284012E-3
317.270851E-3
317.250252E-3
317.136955E-3
317.267418E-3
317.218781E-3
317.211342E-3
317.203903E-3
316.969872E-3
317.070580E-3
316.960144E-3
317.006493E-3
316.896057E-3
316.783905E-3
316.803932E-3
316.644287E-3
316.659164E-3
316.683197E-3
316.321564E-3
316.361618E-3
316.243172E-3
316.326714E-3
316.342735E-3
316.389656E-3
316.799927E-3
317.629623E-3
318.756866E-3
320.376778E-3
322.073364E-3
323.964500E-3
325.760651E-3
327.166557E-3
328.171349E-3
328.455162E-3
328.428841E-3
327.779961E-3
326.922226E-3
326.002693E-3
325.020790E-3
324.335289E-3
323.785973E-3
323.342514E-3
323.167992E-3
322.923088E-3
322.964859E-3
322.999191E-3
323.224640E-3
323.480988E-3
323.482704E-3
323.397446E-3
323.117065E-3
322.729683E-3
322.360611E-3
321.970940E-3
321.797562E-3
321.696854E-3
321.682549E-3
321.869659E-3
322.016716E-3
322.336006E-3
322.561455E-3
322.618675E-3
322.739983E-3
322.436714E-3
322.331429E-3
322.018433E-3
321.810150E-3
321.643639E-3
321.237946E-3
321.117210E-3
320.930099E-3
320.642853E-3
320.387077E-3
320.088959E-3
319.953346E-3
319.680405E-3
319.689560E-3
319.642067E-3
319.416046E-3
319.435501E-3
319.438362E-3
319.286728E-3
319.303894E-3
319.092751E-3
319.078445E-3
319.048119E-3
319.093895E-3
319.159126E-3
318.958282E-3
319.058990E-3
319.059563E-3
318.955421E-3
319.025230E-3
318.989754E-3
318.979454E-3
318.884468E-3
318.855858E-3
318.875885E-3
318.740845E-3
318.802071E-3
318.813515E-3
318.718529E-3
318.748856E-3
318.645859E-3
318.714523E-3
318.674469E-3
318.693352E-3
318.599510E-3
318.502808E-3
318.458176E-3
318.376350E-3
318.371201E-3
318.343735E-3
318.140602E-3
318.145752E-3
317.943764E-3
317.861366E-3
317.793274E-3
317.575264E-3
317.717743E-3
317.705727E-3
317.836761E-3
318.166351E-3
318.841553E-3
319.875526E-3
321.288300E-3
323.020363E-3
324.920654E-3
326.490784E-3
328.170204E-3
329.283142E-3
329.872513E-3
330.033875E-3
329.495430E-3
328.758430E-3
327.881241E-3
327.002335E-3
326.220131E-3
325.411606E-3
324.934387E-3
324.476624E-3
324.250603E-3
324.284363E-3
324.199677E-3
324.452591E-3
324.517250E-3
324.569321E-3
324.648285E-3
324.319839E-3
323.997688E-3
323.601151E-3
323.259544E-3
323.077011E-3
322.871590E-3
322.872162E-3
322.856712E-3
322.942543E-3
323.206902E-3
323.127937E-3
323.432350E-3
323.490715E-3
323.510170E-3
323.410034E-3
323.178864E-3
323.063850E-3
322.773170E-3
322.525978E-3
322.311401E-3
321.979523E-3
321.672821E-3
321.398735E-3
321.030807E-3
320.896912E-3
320.609665E-3
320.659447E-3
320.573616E-3
320.392799E-3
320.353317E-3
320.108414E-3
320.120430E-3
320.051765E-3
319.947052E-3
319.848061E-3
319.850922E-3
319.865227E-3
319.838333E-3
319.893837E-3
319.918442E-3
319.818878E-3
319.834900E-3
319.707870E-3
319.627762E-3
319.610596E-3
319.524193E-3
319.588280E-3
319.450951E-3
319.289589E-3
319.361115E-3
319.375420E-3
319.299889E-3
319.246101E-3
319.143105E-3
319.112778E-3
318.910217E-3
318.901062E-3
318.879318E-3
318.787193E-3
318.800354E-3
318.736267E-3
318.719101E-3
318.548012E-3
318.511391E-3
318.507957E-3
318.483925E-3
318.419838E-3
318.306541E-3
318.081665E-3
318.128586E-3
317.920876E-3
318.004417E-3
317.939758E-3
317.918015E-3
318.148613E-3
318.640137E-3
319.635201E-3
320.914078E-3
322.504234E-3
324.397659E-3
326.265335E-3
328.070068E-3
