Notes :


2023-10-21 ¿ÀÈÄ 10:57:14
Volts
Ch : LED 2,
317.004204E-3
317.831039E-3
317.369843E-3
317.294312E-3
317.502022E-3
317.110062E-3
317.774963E-3
317.256546E-3
317.033958E-3
317.023659E-3
316.575623E-3
317.076302E-3
316.677475E-3
316.358757E-3
316.308975E-3
315.928459E-3
316.522980E-3
315.910149E-3
315.819168E-3
315.998840E-3
315.649796E-3
316.323280E-3
315.779686E-3
315.753365E-3
315.891838E-3
315.539360E-3
316.119576E-3
315.769386E-3
315.592575E-3
315.798569E-3
315.474129E-3
316.270638E-3
315.980530E-3
315.864944E-3
316.084671E-3
315.711594E-3
316.383362E-3
316.104698E-3
315.977097E-3
315.980530E-3
315.395164E-3
316.140747E-3
315.892410E-3
315.662956E-3
315.826607E-3
315.270424E-3
315.827751E-3
315.556526E-3
315.342522E-3
315.454102E-3
315.052986E-3
315.969086E-3
316.356468E-3
316.940689E-3
317.840767E-3
318.148613E-3
319.865227E-3
320.309258E-3
320.482635E-3
320.766449E-3
320.205116E-3
320.755577E-3
320.292664E-3
319.492722E-3
319.171143E-3
318.346024E-3
318.612099E-3
318.148613E-3
317.535210E-3
317.590141E-3
317.029381E-3
317.699432E-3
317.665100E-3
317.468834E-3
317.582130E-3
316.993904E-3
317.706299E-3
317.444801E-3
317.069435E-3
317.168999E-3
316.537285E-3
317.384720E-3
317.301178E-3
317.150688E-3
317.418480E-3
316.981888E-3
317.982101E-3
317.934608E-3
317.685699E-3
318.034744E-3
317.342949E-3
318.097115E-3
317.942619E-3
317.423630E-3
317.579842E-3
316.893768E-3
317.522621E-3
317.229652E-3
316.762161E-3
316.905785E-3
316.156197E-3
316.827393E-3
316.628265E-3
316.254044E-3
316.498947E-3
315.951347E-3
316.592789E-3
316.511536E-3
316.136742E-3
316.248894E-3
315.705299E-3
316.338730E-3
316.301537E-3
315.956497E-3
316.140175E-3
315.660667E-3
316.355324E-3
316.337585E-3
316.102409E-3
316.320992E-3
315.827179E-3
316.338730E-3
316.335297E-3
316.013145E-3
316.213417E-3
315.667534E-3
316.183662E-3
316.183090E-3
315.825462E-3
316.034889E-3
315.499878E-3
315.955353E-3
315.921593E-3
315.672112E-3
315.768814E-3
315.295029E-3
315.900421E-3
316.241455E-3
316.548729E-3
317.601585E-3
317.879105E-3
319.218636E-3
320.060921E-3
320.366478E-3
320.833969E-3
320.536423E-3
320.899200E-3
320.717239E-3
320.007133E-3
319.718742E-3
318.853569E-3
318.713951E-3
318.379784E-3
317.899704E-3
317.868233E-3
317.114067E-3
317.396164E-3
317.516899E-3
317.364693E-3
317.557526E-3
317.002487E-3
317.304039E-3
317.266273E-3
316.862869E-3
317.027092E-3
316.459465E-3
316.815376E-3
316.944122E-3
316.843987E-3
317.270851E-3
316.888618E-3
317.439079E-3
317.663383E-3
317.546654E-3
317.808723E-3
317.280579E-3
317.568398E-3
317.584419E-3
317.344666E-3
317.524338E-3
316.827393E-3
316.969872E-3
316.883469E-3
316.575623E-3
316.822815E-3
316.173363E-3
316.308975E-3
316.391945E-3
316.163635E-3
316.500664E-3
315.748215E-3
315.990829E-3
315.938187E-3
315.737343E-3
316.287231E-3
315.611458E-3
315.797424E-3
315.808868E-3
315.688133E-3
316.230011E-3
315.607452E-3
315.575409E-3
315.731621E-3
315.501595E-3
316.137886E-3
315.506172E-3
315.409470E-3
315.630341E-3
315.442657E-3
316.003990E-3
315.291595E-3
315.256691E-3
315.421486E-3
315.144539E-3
315.835762E-3
315.143967E-3
315.172005E-3
315.457535E-3
315.342522E-3
316.647148E-3
316.664314E-3
317.510033E-3
318.561172E-3
319.009781E-3
320.372772E-3
320.025444E-3
320.314980E-3
320.540428E-3
319.923592E-3
320.430565E-3
319.199753E-3
318.755150E-3
318.493080E-3
317.811584E-3
318.306541E-3
317.261696E-3
317.154121E-3
317.203331E-3
316.781044E-3
317.637062E-3
316.853142E-3
316.891479E-3
316.973305E-3
316.479492E-3
317.215347E-3
316.278648E-3
316.446304E-3
316.573334E-3
316.256332E-3
317.274857E-3
316.688347E-3
316.967583E-3
317.334938E-3
317.136955E-3
317.984390E-3
317.162704E-3
317.120934E-3
317.321777E-3
316.908073E-3
317.583847E-3
316.794777E-3
316.637421E-3
316.618538E-3
316.036606E-3
316.771317E-3
316.013718E-3
315.914726E-3
315.886116E-3
315.655518E-3
316.303825E-3
315.565109E-3
315.573120E-3
315.611458E-3
315.343094E-3
315.971947E-3
315.425491E-3
315.353966E-3
315.636635E-3
315.378571E-3
315.993690E-3
315.379715E-3
315.404320E-3
315.637779E-3
315.337944E-3
316.029167E-3
315.425491E-3
315.545654E-3
315.704727E-3
315.265274E-3
316.085815E-3
315.412331E-3
315.359688E-3
315.509605E-3
315.016937E-3
315.754509E-3
315.265274E-3
315.245247E-3
315.319633E-3
315.121078E-3
315.931892E-3
315.866089E-3
316.406822E-3
317.356682E-3
317.849922E-3
319.377708E-3
319.665527E-3
320.244026E-3
320.703506E-3
320.367622E-3
321.031380E-3
320.437431E-3
319.957352E-3
319.571114E-3
318.713379E-3
318.951988E-3
318.089676E-3
317.623901E-3
317.602730E-3
317.155838E-3
317.740059E-3
317.349815E-3
317.106628E-3
317.324638E-3
317.030525E-3
317.571259E-3
317.068291E-3
316.751862E-3
316.795349E-3
316.248894E-3
316.920090E-3
316.567612E-3
316.476059E-3
316.753006E-3
316.456032E-3
317.208481E-3
317.102623E-3
317.139816E-3
317.193604E-3
316.736984E-3
317.381287E-3
317.062569E-3
316.838837E-3
317.016220E-3
316.409683E-3
316.956139E-3
316.565323E-3
316.300392E-3
316.246033E-3
315.455818E-3
316.153908E-3
316.002846E-3
315.731621E-3
315.919304E-3
315.216064E-3
315.985107E-3
315.840340E-3
315.595436E-3
315.696716E-3
315.212631E-3
315.949059E-3
315.787697E-3
315.599442E-3
315.741920E-3
315.189171E-3
315.903854E-3
315.841484E-3
315.602303E-3
315.732193E-3
315.308762E-3
315.951920E-3
315.961075E-3
315.711021E-3
315.951920E-3
315.291595E-3
316.053772E-3
315.884399E-3
315.558815E-3
315.644073E-3
314.944839E-3
315.769958E-3
315.658951E-3
315.330505E-3
315.527916E-3
314.835548E-3
315.745354E-3
315.749359E-3
315.696144E-3
316.506958E-3
316.442299E-3
318.225861E-3
319.016075E-3
319.448090E-3
320.464897E-3
320.392799E-3
321.430779E-3
321.400452E-3
320.847130E-3
320.661736E-3
319.719887E-3
319.927597E-3
319.456100E-3
318.625259E-3
318.611526E-3
317.778969E-3
318.180656E-3
318.128586E-3
317.673683E-3
317.960358E-3
317.481422E-3
318.052483E-3
318.013573E-3
317.582130E-3
317.637062E-3
317.031670E-3
317.515182E-3
317.438507E-3
317.128372E-3
317.341805E-3
316.967010E-3
317.596436E-3
317.774391E-3
317.557526E-3
317.912292E-3
317.444801E-3
317.944908E-3
318.033600E-3
317.775536E-3
317.788124E-3
317.209625E-3
317.568398E-3
317.360687E-3
317.080307E-3
317.200470E-3
316.500664E-3
316.858864E-3
316.713524E-3
316.445732E-3
316.605377E-3
316.077232E-3
316.407967E-3
316.379356E-3
316.176224E-3
316.438293E-3
315.868950E-3
316.204834E-3
316.303253E-3
316.040039E-3
316.272354E-3
315.819740E-3
316.278648E-3
316.347313E-3
315.992546E-3
316.376495E-3
315.807724E-3
316.259193E-3
316.271210E-3
316.036606E-3
316.203690E-3
315.671539E-3
316.040039E-3
316.058922E-3
315.744209E-3
316.029167E-3
315.502167E-3
315.857506E-3
315.779114E-3
315.604591E-3
315.808868E-3
315.259552E-3
315.789413E-3
316.058922E-3
316.415405E-3
317.224503E-3
317.554092E-3
318.716812E-3
319.476128E-3
319.963074E-3
320.717239E-3
320.363045E-3
320.581627E-3
320.293808E-3
319.841194E-3
319.782257E-3
318.715096E-3
318.389511E-3
318.047333E-3
317.530060E-3
317.876244E-3
316.951561E-3
316.946983E-3
316.971016E-3
316.847992E-3
317.297173E-3
316.569901E-3
316.529846E-3
316.554451E-3
316.258621E-3
316.808510E-3
316.140175E-3
316.283226E-3
316.567039E-3
316.379356E-3
317.180443E-3
316.694069E-3
317.029381E-3
317.281723E-3
316.879463E-3
317.680550E-3
316.967010E-3
317.054558E-3
317.007637E-3
316.643143E-3
317.318916E-3
316.528130E-3
316.488647E-3
316.481209E-3
316.092682E-3
316.853142E-3
315.961075E-3
315.924454E-3
316.033745E-3
315.675545E-3
316.514969E-3
315.650368E-3
315.756798E-3
315.886688E-3
315.525627E-3
316.337585E-3
315.516472E-3
315.516472E-3
315.692139E-3
315.481567E-3
316.366196E-3
315.529633E-3
315.549660E-3
315.842628E-3
315.608025E-3
316.246605E-3
315.399742E-3
315.431213E-3
315.521622E-3
315.377998E-3
316.069221E-3
315.182877E-3
315.193748E-3
315.402031E-3
315.149689E-3
315.876961E-3
315.073013E-3
315.161705E-3
315.555382E-3
315.689278E-3
317.021942E-3
317.203903E-3
318.013000E-3
318.890190E-3
319.184303E-3
320.502090E-3
320.175362E-3
320.226288E-3
320.271492E-3
319.678116E-3
320.024872E-3
318.883896E-3
318.376923E-3
318.132591E-3
317.404747E-3
317.777252E-3
317.022514E-3
316.880035E-3
317.052269E-3
316.715813E-3
317.223930E-3
316.677475E-3
316.684341E-3
316.704369E-3
316.434288E-3
316.917801E-3
316.210556E-3
316.086388E-3
316.302681E-3
316.157341E-3
316.845131E-3
316.493225E-3
316.521835E-3
316.770172E-3
316.734123E-3
317.398453E-3
316.914940E-3
316.831970E-3
316.843987E-3
316.553879E-3
317.174149E-3
316.613960E-3
316.245461E-3
316.337585E-3
315.934753E-3
316.390800E-3
315.864372E-3
315.707588E-3
315.770531E-3
314.925385E-3
315.769958E-3
315.440941E-3
315.378571E-3
315.520477E-3
315.212631E-3
315.808296E-3
315.285873E-3
315.249825E-3
315.356827E-3
314.916801E-3
315.609741E-3
315.217209E-3
315.182877E-3
315.347672E-3
315.200043E-3
315.759659E-3
315.471840E-3
315.323639E-3
315.426636E-3
315.086746E-3
315.593719E-3
315.284729E-3
315.120506E-3
315.264702E-3
314.780045E-3
315.389442E-3
315.061569E-3
314.952278E-3
315.031815E-3
314.429855E-3
315.166855E-3
314.944839E-3
315.092468E-3
315.563393E-3
315.749931E-3
317.164421E-3
317.975235E-3
318.705940E-3
319.493294E-3
319.549370E-3
320.590782E-3
320.580482E-3
320.207405E-3
320.009422E-3
319.067574E-3
319.466972E-3
318.865013E-3
318.091965E-3
317.832184E-3
316.968727E-3
317.444801E-3
317.292023E-3
316.942406E-3
316.947556E-3
316.573334E-3
317.375565E-3
317.228508E-3
316.803360E-3
316.850853E-3
316.094971E-3
316.838264E-3
316.695213E-3
316.354179E-3
316.505814E-3
315.959358E-3
316.897774E-3
316.885757E-3
316.661453E-3
316.941261E-3
316.337013E-3
317.259407E-3
317.178154E-3
316.682625E-3
316.907501E-3
316.250610E-3
316.966438E-3
316.733551E-3
316.137314E-3
316.217995E-3
315.476990E-3
316.140175E-3
315.974808E-3
315.476990E-3
315.682983E-3
315.037537E-3
315.773964E-3
315.653801E-3
315.279007E-3
315.573120E-3
314.989471E-3
315.593719E-3
315.459824E-3
315.130234E-3
315.372276E-3
314.743423E-3
315.411186E-3
315.337372E-3
315.006638E-3
315.331078E-3
314.813232E-3
315.377426E-3
315.495300E-3
315.159988E-3
315.399170E-3
314.826965E-3
315.379715E-3
315.421486E-3
315.012932E-3
315.236664E-3
314.786339E-3
315.224075E-3
315.174294E-3
314.932823E-3
314.969444E-3
314.408684E-3
314.938545E-3
314.966011E-3
314.639854E-3
314.875603E-3
314.384079E-3
315.124512E-3
315.581703E-3
316.017723E-3
317.207336E-3
317.506027E-3
318.746567E-3
319.563103E-3
319.690132E-3
320.139313E-3
319.507599E-3
319.731903E-3
319.324493E-3
318.729401E-3
318.512535E-3
317.474556E-3
317.416191E-3
317.179298E-3
316.712952E-3
316.845131E-3
316.075516E-3
316.429710E-3
316.448593E-3
316.094971E-3
316.375923E-3
315.735626E-3
316.090965E-3
316.044044E-3
315.866661E-3
315.873528E-3
315.422630E-3
315.934181E-3
316.043472E-3
316.009712E-3
316.389656E-3
316.098976E-3
316.518974E-3
316.535568E-3
316.502380E-3
316.687202E-3
316.003990E-3
316.299248E-3
316.264343E-3
316.066933E-3
316.231728E-3
315.541077E-3
315.636063E-3
315.573692E-3
315.383148E-3
315.696144E-3
315.003204E-3
315.245247E-3
315.207481E-3
315.040398E-3
315.487289E-3
314.864159E-3
314.895630E-3
314.979744E-3
314.859581E-3
315.455818E-3
314.772034E-3
314.901924E-3
315.060997E-3
314.817238E-3
315.385437E-3
314.793205E-3
314.896774E-3
315.084457E-3
314.782333E-3
315.573120E-3
314.746857E-3
314.877319E-3
315.041542E-3
314.632416E-3
315.144539E-3
314.488220E-3
314.526558E-3
314.696503E-3
314.295387E-3
315.061569E-3
314.373779E-3
314.517975E-3
314.884186E-3
314.821815E-3
316.405678E-3
316.363907E-3
317.168427E-3
318.188095E-3
318.354607E-3
319.892693E-3
319.378853E-3
319.422340E-3
319.512749E-3
318.945694E-3
319.507027E-3
318.095970E-3
317.678833E-3
317.456245E-3
316.799355E-3
317.344666E-3
316.330719E-3
316.131020E-3
316.197968E-3
315.890694E-3
316.735268E-3
315.867805E-3
315.860939E-3
315.902710E-3
315.533066E-3
316.316414E-3
315.337944E-3
315.354538E-3
315.455818E-3
315.319633E-3
316.171074E-3
315.620041E-3
315.743637E-3
315.978241E-3
316.007423E-3
316.740990E-3
316.069221E-3
316.052055E-3
316.209412E-3
315.877533E-3
316.536140E-3
315.717316E-3
315.582275E-3
315.625763E-3
315.047264E-3
315.689278E-3
315.015221E-3
314.991188E-3
315.024948E-3
314.621544E-3
315.290451E-3
314.595222E-3
314.487648E-3
314.636421E-3
314.428139E-3
315.044403E-3
314.575768E-3
314.496231E-3
314.628983E-3
314.167786E-3
314.942551E-3
314.521408E-3
314.538574E-3
314.663315E-3
314.081955E-3
314.993477E-3
314.530563E-3
314.549446E-3
314.669037E-3
314.425850E-3
315.054131E-3
314.527130E-3
314.469337E-3
314.516258E-3
314.234734E-3
314.818954E-3
314.315414E-3
314.079666E-3
314.189529E-3
313.775253E-3
314.418411E-3
314.117432E-3
313.957214E-3
314.417839E-3
314.612961E-3
315.961647E-3
316.437721E-3
317.249680E-3
318.146324E-3
318.544006E-3
319.706726E-3
319.513893E-3
319.398880E-3
319.379425E-3
318.659019E-3
318.938828E-3
318.051910E-3
317.469406E-3
317.231369E-3
316.607666E-3
316.922379E-3
316.405106E-3
316.128159E-3
316.200256E-3
315.707016E-3
316.498947E-3
316.237450E-3
315.981102E-3
316.096687E-3
315.523338E-3
316.141891E-3
315.686417E-3
315.367699E-3
315.412331E-3
314.976883E-3
315.825462E-3
315.648079E-3
315.661812E-3
316.080666E-3
315.602303E-3
316.377640E-3
316.173935E-3
316.072655E-3
316.070938E-3
315.583420E-3
316.136169E-3
315.864944E-3
315.621758E-3
315.500450E-3
314.963150E-3
315.521049E-3
315.375710E-3
315.037537E-3
315.011215E-3
314.454460E-3
315.139389E-3
315.085602E-3
314.834976E-3
314.970589E-3
314.485931E-3
315.161133E-3
315.091324E-3
314.724541E-3
314.952278E-3
314.331436E-3
315.085030E-3
314.991760E-3
314.671326E-3
314.968300E-3
314.349747E-3
315.208054E-3
315.083313E-3
314.861298E-3
315.111351E-3
314.405251E-3
315.269852E-3
315.216064E-3
314.806366E-3
315.046692E-3
314.282799E-3
315.063858E-3
314.964294E-3
314.505959E-3
314.670753E-3
314.025307E-3
314.842987E-3
314.604950E-3
314.230728E-3
314.406395E-3
313.714600E-3
314.631844E-3
314.928818E-3
315.000916E-3
315.989113E-3
316.314697E-3
317.766380E-3
318.539429E-3
318.765450E-3
319.463539E-3
319.171715E-3
319.677544E-3
319.438362E-3
318.797493E-3
318.597794E-3
317.590141E-3
317.655373E-3
317.293739E-3
316.678619E-3
316.627693E-3
315.999413E-3
316.480637E-3
316.452599E-3
315.994263E-3
316.384506E-3
315.837479E-3
316.352463E-3
316.092110E-3
315.645218E-3
315.749359E-3
315.159988E-3
315.736198E-3
315.682411E-3
315.520477E-3
315.892982E-3
315.567398E-3
316.081810E-3
316.282654E-3
316.159630E-3
316.456032E-3
315.914154E-3
316.188240E-3
316.155052E-3
315.777969E-3
316.016579E-3
315.335655E-3
315.716171E-3
315.667534E-3
315.287590E-3
315.343094E-3
