Notes :


2023-11-02 ¿ÀÈÄ 6:30:19
Volts
Ch : LED 2,
826.770973E-3
826.274300E-3
824.899864E-3
824.775124E-3
824.121666E-3
823.306847E-3
823.328018E-3
822.691727E-3
822.967529E-3
822.702599E-3
821.531868E-3
821.626282E-3
820.624924E-3
820.655823E-3
820.369720E-3
820.027542E-3
820.497322E-3
820.531654E-3
821.620560E-3
822.279739E-3
822.789001E-3
823.546028E-3
823.512840E-3
824.513054E-3
824.675560E-3
823.907089E-3
823.970032E-3
823.162651E-3
823.112297E-3
822.311211E-3
820.928192E-3
821.357346E-3
820.381737E-3
820.222092E-3
819.898224E-3
818.958092E-3
819.418716E-3
818.388748E-3
818.390465E-3
818.150139E-3
816.733932E-3
817.968178E-3
817.527580E-3
817.861176E-3
817.878914E-3
817.067528E-3
817.694664E-3
816.867256E-3
816.863251E-3
816.980553E-3
816.445541E-3
817.070961E-3
816.390038E-3
816.507339E-3
816.411781E-3
814.921761E-3
816.124535E-3
815.532875E-3
815.513992E-3
815.586090E-3
814.865112E-3
815.485382E-3
814.393616E-3
814.274025E-3
813.866043E-3
812.731361E-3
812.878990E-3
811.566353E-3
811.284828E-3
810.970688E-3
810.348701E-3
811.508560E-3
811.705971E-3
813.610268E-3
816.181183E-3
818.592453E-3
821.971893E-3
823.830414E-3
826.035690E-3
827.643585E-3
828.119659E-3
828.893280E-3
827.649879E-3
827.213287E-3
826.192474E-3
824.665260E-3
824.139404E-3
821.955872E-3
820.741081E-3
819.778633E-3
818.269730E-3
818.232536E-3
817.111588E-3
816.759682E-3
816.406631E-3
815.449333E-3
815.553474E-3
814.236259E-3
813.952446E-3
813.749886E-3
812.667274E-3
813.900948E-3
813.944435E-3
814.740944E-3
815.622139E-3
814.877701E-3
816.605759E-3
816.304779E-3
816.675568E-3
817.006302E-3
816.408920E-3
816.818047E-3
815.586090E-3
815.206718E-3
814.488602E-3
813.590813E-3
813.978767E-3
812.766266E-3
812.453842E-3
812.357140E-3
811.826134E-3
812.349129E-3
811.530304E-3
811.336327E-3
811.355209E-3
810.817909E-3
811.264801E-3
810.583878E-3
810.844803E-3
810.913467E-3
810.932922E-3
811.897659E-3
811.598396E-3
811.790085E-3
812.141418E-3
811.735725E-3
812.432098E-3
811.738014E-3
811.837006E-3
811.905670E-3
811.644173E-3
812.472725E-3
812.131691E-3
812.269020E-3
812.630081E-3
811.942863E-3
812.397194E-3
811.672783E-3
811.134911E-3
811.107445E-3
810.312653E-3
810.382462E-3
809.464645E-3
809.135628E-3
808.976555E-3
808.168030E-3
808.645248E-3
808.715630E-3
810.189629E-3
812.528229E-3
814.913177E-3
819.021034E-3
821.768188E-3
825.008583E-3
827.506256E-3
828.383446E-3
829.585075E-3
828.886414E-3
827.924538E-3
826.991272E-3
824.967384E-3
824.301910E-3
822.542953E-3
821.476936E-3
820.762253E-3
819.453049E-3
819.357491E-3
818.412209E-3
818.072319E-3
818.171310E-3
817.001152E-3
817.388535E-3
816.448975E-3
815.785789E-3
815.879059E-3
815.056229E-3
815.853882E-3
815.701675E-3
815.933418E-3
817.039490E-3
816.912460E-3
817.751312E-3
817.819405E-3
817.790794E-3
818.163872E-3
817.501831E-3
818.108368E-3
817.459488E-3
816.858673E-3
816.570854E-3
815.324020E-3
815.055656E-3
813.914108E-3
813.049507E-3
812.721062E-3
811.672783E-3
811.961746E-3
811.583519E-3
811.214447E-3
811.460495E-3
810.972404E-3
811.521149E-3
810.901451E-3
810.294342E-3
810.031700E-3
809.320450E-3
810.300636E-3
809.890366E-3
809.787941E-3
810.285759E-3
809.936714E-3
810.730934E-3
810.645676E-3
810.285187E-3
810.284042E-3
809.399414E-3
809.941864E-3
809.564781E-3
809.190559E-3
809.368515E-3
808.867264E-3
809.572220E-3
809.220886E-3
808.942795E-3
809.195709E-3
808.120537E-3
808.557129E-3
807.941437E-3
807.198715E-3
807.151222E-3
806.632805E-3
807.150078E-3
806.787300E-3
806.157875E-3
806.661415E-3
806.368446E-3
808.025551E-3
809.089279E-3
811.162376E-3
814.353561E-3
816.946220E-3
820.717621E-3
823.241043E-3
825.398827E-3
827.107430E-3
827.168083E-3
827.907372E-3
827.224159E-3
825.895500E-3
824.870682E-3
822.973824E-3
822.126389E-3
821.138763E-3
819.570351E-3
819.482803E-3
818.554115E-3
819.189262E-3
819.054794E-3
818.864822E-3
818.887711E-3
817.847443E-3
817.770767E-3
816.708755E-3
816.261864E-3
816.495895E-3
816.291046E-3
817.253494E-3
817.435455E-3
817.947006E-3
818.916321E-3
818.947220E-3
819.984055E-3
819.966888E-3
819.754028E-3
819.947433E-3
819.116592E-3
819.371223E-3
818.919182E-3
818.247986E-3
818.243408E-3
817.496109E-3
817.696381E-3
817.170525E-3
816.415787E-3
816.192627E-3
815.279388E-3
815.296555E-3
814.903450E-3
814.464569E-3
814.806747E-3
814.303780E-3
814.910889E-3
814.950943E-3
814.779282E-3
815.528297E-3
815.234756E-3
815.836716E-3
815.818405E-3
815.336609E-3
815.745163E-3
815.234756E-3
815.770912E-3
815.715981E-3
815.202713E-3
815.996933E-3
815.683365E-3
816.300201E-3
816.238403E-3
815.722847E-3
816.164589E-3
815.227318E-3
815.529442E-3
815.152359E-3
813.983917E-3
814.730072E-3
814.064026E-3
814.218521E-3
814.180183E-3
813.751030E-3
814.008522E-3
813.367081E-3
813.598251E-3
813.251495E-3
812.458992E-3
813.033485E-3
813.546753E-3
815.508270E-3
817.809677E-3
820.389748E-3
824.325943E-3
826.626778E-3
829.454041E-3
831.022453E-3
831.523705E-3
832.359695E-3
831.002998E-3
830.140114E-3
828.769684E-3
826.629066E-3
826.082611E-3
823.939705E-3
823.140335E-3
822.132683E-3
821.186256E-3
821.465492E-3
820.705605E-3
820.678139E-3
820.143700E-3
818.595886E-3
818.972397E-3
817.584801E-3
817.310715E-3
817.145920E-3
816.149139E-3
817.879486E-3
817.945862E-3
818.978119E-3
820.000076E-3
820.362854E-3
821.325302E-3
820.704460E-3
820.698166E-3
820.513916E-3
819.664192E-3
819.976616E-3
818.779564E-3
818.567276E-3
818.216515E-3
817.242622E-3
817.690659E-3
816.563988E-3
816.241264E-3
815.832710E-3
814.905739E-3
815.172958E-3
813.822556E-3
813.556480E-3
813.219452E-3
812.532806E-3
813.193703E-3
812.654686E-3
812.817192E-3
813.145065E-3
812.816620E-3
813.579369E-3
812.552261E-3
812.758827E-3
812.859535E-3
812.317085E-3
812.759972E-3
811.996078E-3
812.002945E-3
812.264442E-3
811.818695E-3
812.667847E-3
811.853600E-3
811.886215E-3
811.859322E-3
811.268806E-3
811.313438E-3
810.132408E-3
809.958458E-3
809.683228E-3
808.783722E-3
809.220314E-3
808.314514E-3
808.284760E-3
808.452988E-3
808.218956E-3
809.018326E-3
808.739662E-3
809.944153E-3
811.651039E-3
813.668060E-3
817.428589E-3
819.818115E-3
822.787285E-3
825.212288E-3
826.591301E-3
828.129959E-3
827.663612E-3
827.331734E-3
826.568985E-3
825.257492E-3
824.749947E-3
822.674561E-3
821.775627E-3
820.973396E-3
819.713402E-3
819.780922E-3
818.383598E-3
818.574142E-3
818.445396E-3
817.970467E-3
818.416214E-3
817.205429E-3
816.858673E-3
816.603470E-3
815.765190E-3
816.438675E-3
815.898514E-3
816.147995E-3
816.921043E-3
816.929054E-3
818.035126E-3
817.779922E-3
818.173599E-3
818.562698E-3
818.079185E-3
818.764687E-3
817.884064E-3
817.502403E-3
817.404556E-3
816.220093E-3
816.376877E-3
815.221024E-3
814.651680E-3
814.324951E-3
813.338470E-3
813.549042E-3
812.583160E-3
812.121964E-3
812.022972E-3
810.540962E-3
811.685371E-3
810.831642E-3
810.665131E-3
810.764694E-3
810.106087E-3
810.643959E-3
810.012817E-3
810.036278E-3
810.306358E-3
810.077477E-3
810.835075E-3
810.214233E-3
810.178757E-3
810.320091E-3
809.701538E-3
810.226250E-3
809.679222E-3
809.141922E-3
809.479523E-3
808.816910E-3
809.336472E-3
808.765984E-3
808.741379E-3
808.909607E-3
808.177757E-3
808.684731E-3
807.943726E-3
807.667923E-3
807.718849E-3
806.679153E-3
806.790161E-3
806.196213E-3
805.653191E-3
805.674934E-3
804.972839E-3
805.939865E-3
806.811905E-3
808.621788E-3
811.595535E-3
813.973045E-3
817.868614E-3
820.631790E-3
822.693443E-3
824.718475E-3
824.897575E-3
825.528717E-3
824.978256E-3
823.884773E-3
823.215294E-3
821.490097E-3
820.745087E-3
819.851303E-3
818.816185E-3
818.076324E-3
816.942787E-3
817.092705E-3
816.290474E-3
815.683937E-3
815.821838E-3
815.084839E-3
815.765762E-3
815.196419E-3
814.600182E-3
814.387321E-3
813.703537E-3
814.180756E-3
814.085197E-3
814.043427E-3
814.786148E-3
814.637947E-3
815.733719E-3
815.691948E-3
815.457344E-3
815.925407E-3
815.241051E-3
815.691376E-3
814.960670E-3
814.530945E-3
814.427948E-3
813.187408E-3
813.569641E-3
812.728500E-3
811.923409E-3
811.718559E-3
810.734940E-3
811.015892E-3
810.500336E-3
809.884071E-3
810.201073E-3
809.736443E-3
810.195923E-3
810.094643E-3
809.453201E-3
809.708405E-3
809.341049E-3
810.015106E-3
809.814835E-3
809.297562E-3
809.933853E-3
809.654045E-3
810.478592E-3
810.271454E-3
809.938431E-3
810.287476E-3
809.798813E-3
810.449982E-3
810.276031E-3
809.936714E-3
810.308075E-3
809.789085E-3
810.106659E-3
809.777069E-3
808.852959E-3
809.345055E-3
808.689880E-3
809.204292E-3
808.672142E-3
808.078766E-3
808.425522E-3
807.695389E-3
807.982063E-3
807.454491E-3
806.728935E-3
806.775856E-3
806.240273E-3
807.352066E-3
808.246994E-3
810.078049E-3
812.861824E-3
815.461349E-3
819.347191E-3
821.867180E-3
823.798370E-3
825.740433E-3
825.925255E-3
826.532936E-3
825.937271E-3
824.654961E-3
824.129105E-3
822.407341E-3
821.783638E-3
820.564842E-3
818.443108E-3
817.858887E-3
816.945076E-3
817.189407E-3
816.836357E-3
816.250992E-3
816.310501E-3
815.238190E-3
815.194702E-3
814.626503E-3
813.812828E-3
814.185905E-3
813.519859E-3
814.411354E-3
815.004158E-3
815.057373E-3
816.132545E-3
816.161728E-3
816.941643E-3
817.126465E-3
816.043854E-3
816.620064E-3
815.984344E-3
816.093063E-3
815.537453E-3
814.552689E-3
814.570999E-3
813.645744E-3
813.464355E-3
812.947655E-3
811.216736E-3
811.851311E-3
811.212158E-3
811.079407E-3
810.610199E-3
809.914398E-3
810.114670E-3
809.505844E-3
809.623146E-3
809.770775E-3
809.164238E-3
809.982491E-3
809.263229E-3
809.472084E-3
809.192276E-3
808.493614E-3
809.219742E-3
808.609772E-3
808.579445E-3
808.566856E-3
808.083916E-3
808.578873E-3
807.610130E-3
807.722855E-3
807.671928E-3
807.172394E-3
807.841873E-3
806.944656E-3
806.812477E-3
806.439400E-3
805.630302E-3
805.989075E-3
804.820633E-3
804.389191E-3
804.097366E-3
803.395271E-3
803.934288E-3
803.018761E-3
803.273392E-3
803.601265E-3
804.160309E-3
806.592178E-3
807.991219E-3
811.130333E-3
814.384460E-3
816.668129E-3
819.835854E-3
820.789719E-3
821.944427E-3
822.204208E-3
821.615982E-3
821.730423E-3
819.905663E-3
818.556404E-3
817.630005E-3
815.899086E-3
815.851593E-3
814.273453E-3
813.764763E-3
813.301277E-3
812.666130E-3
813.337898E-3
812.389755E-3
812.440109E-3
812.053871E-3
811.053658E-3
811.268806E-3
809.940147E-3
809.884071E-3
810.202789E-3
810.120392E-3
811.490822E-3
811.306000E-3
811.989212E-3
812.667274E-3
812.698174E-3
813.852310E-3
813.072395E-3
812.938499E-3
812.619781E-3
811.663055E-3
811.964035E-3
810.540962E-3
810.144424E-3
809.657478E-3
808.657837E-3
808.754539E-3
807.711411E-3
807.461929E-3
807.449341E-3
806.855965E-3
807.394981E-3
806.558990E-3
806.610489E-3
806.375885E-3
805.903816E-3
806.445694E-3
805.637741E-3
805.682373E-3
805.968475E-3
805.585670E-3
806.604195E-3
806.173325E-3
806.287766E-3
806.485176E-3
806.026268E-3
806.851959E-3
805.996513E-3
805.867767E-3
805.735016E-3
805.206299E-3
806.090355E-3
805.412292E-3
805.356216E-3
805.757332E-3
804.232979E-3
805.621719E-3
805.196571E-3
804.889870E-3
804.907036E-3
803.494835E-3
804.205513E-3
803.324318E-3
802.970123E-3
802.659988E-3
801.318741E-3
802.470589E-3
801.936722E-3
802.380753E-3
803.232193E-3
803.998947E-3
806.809044E-3
808.885002E-3
811.621284E-3
815.001869E-3
817.491531E-3
820.531654E-3
821.492386E-3
822.598457E-3
823.119164E-3
822.283173E-3
821.923828E-3
819.987488E-3
818.587875E-3
818.036270E-3
816.276169E-3
815.607262E-3
814.466858E-3
813.886070E-3
813.610268E-3
813.249207E-3
813.977051E-3
813.774490E-3
813.761330E-3
813.939285E-3
812.753105E-3
812.595177E-3
811.336899E-3
810.919762E-3
811.193275E-3
810.606194E-3
811.542320E-3
811.635017E-3
811.982918E-3
812.802887E-3
812.483025E-3
813.245773E-3
812.821770E-3
812.376595E-3
812.555122E-3
811.676788E-3
811.887932E-3
811.400986E-3
810.931778E-3
810.550690E-3
809.421158E-3
809.349060E-3
808.607483E-3
807.733154E-3
807.636452E-3
806.631088E-3
806.803322E-3
806.286049E-3
805.890083E-3
805.823135E-3
805.030060E-3
805.938721E-3
805.226326E-3
804.917908E-3
805.135918E-3
804.533958E-3
805.208588E-3
804.741669E-3
804.492760E-3
804.821205E-3
804.305649E-3
804.872131E-3
804.655838E-3
804.203796E-3
804.741669E-3
803.918839E-3
804.526520E-3
803.968620E-3
803.783226E-3
803.839302E-3
802.970695E-3
803.451920E-3
803.140640E-3
802.667427E-3
802.858543E-3
802.055740E-3
802.305222E-3
801.619148E-3
800.874138E-3
800.606346E-3
799.675941E-3
800.047302E-3
799.884796E-3
799.661636E-3
800.522804E-3
801.128769E-3
803.716278E-3
806.204796E-3
808.799744E-3
812.215805E-3
814.837646E-3
817.897224E-3
819.624710E-3
820.298767E-3
820.807457E-3
820.286179E-3
820.612907E-3
819.404411E-3
818.230820E-3
817.350197E-3
815.582085E-3
814.908028E-3
813.632011E-3
812.729073E-3
812.345695E-3
811.340332E-3
811.883926E-3
811.611557E-3
810.998154E-3
811.139488E-3
810.217667E-3
810.204506E-3
809.769058E-3
808.954811E-3
809.513855E-3
809.311867E-3
810.449409E-3
810.922623E-3
811.347198E-3
812.206078E-3
812.087631E-3
812.960815E-3
812.932777E-3
812.521362E-3
812.353706E-3
811.503410E-3
811.558342E-3
810.772705E-3
809.743309E-3
809.667778E-3
808.311653E-3
808.419800E-3
808.098221E-3
807.368660E-3
807.601547E-3
806.786156E-3
807.115746E-3
806.789017E-3
805.968475E-3
806.185341E-3
805.240059E-3
805.529594E-3
805.438614E-3
804.934502E-3
805.257225E-3
804.676437E-3
805.283546E-3
805.185699E-3
804.157448E-3
804.730225E-3
804.220390E-3
804.668427E-3
804.727936E-3
803.501701E-3
804.651260E-3
804.297066E-3
804.698181E-3
804.557991E-3
804.056168E-3
804.515076E-3
803.637886E-3
803.378105E-3
803.034210E-3
802.054596E-3
802.369308E-3
801.230049E-3
801.175117E-3
800.893021E-3
800.101662E-3
800.536537E-3
799.592972E-3
799.887085E-3
800.345421E-3
801.282692E-3
804.281044E-3
806.148720E-3
809.507561E-3
812.595749E-3
814.517784E-3
817.133904E-3
817.623138E-3
818.079758E-3
817.876625E-3
816.341972E-3
815.781784E-3
813.808823E-3
812.500191E-3
811.402130E-3
809.702682E-3
809.390259E-3
807.889938E-3
807.306290E-3
807.283974E-3
806.510353E-3
806.827927E-3
805.539322E-3
804.891014E-3
804.517365E-3
803.522873E-3
803.677368E-3
803.030205E-3
803.378105E-3
804.240990E-3
804.119682E-3
805.517006E-3
805.162239E-3
805.732155E-3
805.863190E-3
804.729080E-3
806.057739E-3
805.363655E-3
805.694389E-3
805.518723E-3
804.588890E-3
804.931068E-3
803.941727E-3
803.738022E-3
803.364944E-3
802.111244E-3
802.204514E-3
800.965118E-3
800.530815E-3
800.358582E-3
799.701118E-3
799.987793E-3
799.170113E-3
799.279404E-3
799.463654E-3
798.169327E-3
799.204445E-3
798.719788E-3
798.762703E-3
798.674011E-3
797.804832E-3
799.219322E-3
798.615646E-3
798.930931E-3
799.230766E-3
798.191071E-3
799.769211E-3
799.318886E-3
799.453926E-3
799.312592E-3
