Notes :


2023-11-13 ¿ÀÀü 12:34:38
Volts
Ch : LED 2,
893.938065E-3
894.067383E-3
893.953514E-3
893.992996E-3
893.791008E-3
893.633080E-3
893.516350E-3
893.312073E-3
893.248558E-3
892.671204E-3
892.912102E-3
892.733574E-3
892.749023E-3
892.980194E-3
893.352699E-3
894.641304E-3
896.102715E-3
897.628212E-3
899.790573E-3
900.619698E-3
901.457405E-3
902.049637E-3
902.156639E-3
902.234459E-3
902.193260E-3
901.883698E-3
901.710320E-3
901.330948E-3
901.135826E-3
900.793076E-3
900.462341E-3
900.372505E-3
900.099564E-3
900.166512E-3
900.395393E-3
900.280952E-3
900.036621E-3
899.929047E-3
899.958229E-3
899.673843E-3
899.515343E-3
899.202347E-3
898.913956E-3
898.745155E-3
898.670769E-3
898.481369E-3
898.423004E-3
898.402405E-3
898.688507E-3
898.766899E-3
898.823547E-3
898.954010E-3
899.316216E-3
899.136543E-3
898.702240E-3
898.642159E-3
898.660469E-3
898.551750E-3
898.418427E-3
898.087692E-3
897.939491E-3
897.128105E-3
897.220230E-3
897.286034E-3
897.120094E-3
896.951294E-3
896.728706E-3
896.571350E-3
896.505547E-3
896.261215E-3
896.479797E-3
896.243477E-3
896.020889E-3
895.963097E-3
895.858955E-3
895.857239E-3
895.644379E-3
895.499039E-3
895.631790E-3
895.537949E-3
895.305061E-3
895.136833E-3
895.144844E-3
895.165443E-3
894.942856E-3
894.919968E-3
894.752312E-3
894.739151E-3
894.834137E-3
894.772339E-3
894.673920E-3
894.688225E-3
894.580650E-3
894.596672E-3
894.454193E-3
893.734932E-3
893.990135E-3
893.868256E-3
893.812752E-3
893.622780E-3
893.607903E-3
893.358994E-3
893.204498E-3
893.019104E-3
892.678070E-3
892.936707E-3
893.205643E-3
893.759537E-3
894.929123E-3
896.341896E-3
898.029900E-3
899.525070E-3
900.919533E-3
902.477074E-3
902.634430E-3
902.580070E-3
902.653313E-3
902.632713E-3
902.606392E-3
902.297974E-3
901.963234E-3
901.778984E-3
900.782204E-3
900.971031E-3
900.777626E-3
900.835419E-3
900.683784E-3
900.573921E-3
900.686646E-3
900.601959E-3
900.656319E-3
900.918388E-3
900.635719E-3
900.137901E-3
899.670410E-3
899.545670E-3
899.438095E-3
899.119377E-3
899.220657E-3
899.226379E-3
899.240112E-3
899.378014E-3
899.413490E-3
899.669266E-3
899.697876E-3
899.827194E-3
899.718475E-3
899.571419E-3
899.605179E-3
899.235535E-3
899.230957E-3
899.081039E-3
898.798370E-3
898.689651E-3
898.380661E-3
898.201561E-3
897.367287E-3
897.622490E-3
897.775269E-3
897.539520E-3
897.421646E-3
897.408485E-3
897.137833E-3
897.120094E-3
897.034836E-3
897.422791E-3
897.048569E-3
896.662331E-3
896.673203E-3
896.576500E-3
896.432304E-3
896.486664E-3
896.376228E-3
896.304131E-3
895.501328E-3
895.767975E-3
895.897293E-3
895.806313E-3
895.865250E-3
895.861816E-3
895.806885E-3
895.842361E-3
895.703888E-3
895.223236E-3
895.495033E-3
895.547104E-3
895.482445E-3
895.339966E-3
895.208931E-3
895.137978E-3
894.981766E-3
894.863319E-3
894.701958E-3
894.584084E-3
894.372368E-3
894.183540E-3
894.185829E-3
893.995285E-3
894.076538E-3
894.113159E-3
894.680786E-3
895.310783E-3
896.867180E-3
898.709106E-3
900.224304E-3
901.554108E-3
902.442169E-3
902.831841E-3
903.057861E-3
903.129387E-3
903.174019E-3
902.902794E-3
902.641296E-3
902.324295E-3
901.875114E-3
901.328087E-3
901.099777E-3
901.157570E-3
900.730705E-3
900.276947E-3
900.168800E-3
900.081253E-3
900.004578E-3
899.928474E-3
899.745941E-3
899.509621E-3
899.869537E-3
899.078751E-3
898.769760E-3
898.512840E-3
898.644447E-3
898.653030E-3
898.722267E-3
898.928261E-3
898.917961E-3
899.891281E-3
899.459267E-3
899.110222E-3
899.351120E-3
899.079895E-3
899.126244E-3
898.883057E-3
898.642159E-3
898.509407E-3
898.309708E-3
897.899437E-3
897.707176E-3
897.278595E-3
897.034836E-3
896.900368E-3
896.793938E-3
896.601677E-3
896.318436E-3
895.704460E-3
896.025467E-3
895.947075E-3
896.012306E-3
895.879555E-3
895.820618E-3
895.740509E-3
895.586014E-3
895.602608E-3
895.955086E-3
895.592880E-3
895.237541E-3
895.225525E-3
895.176315E-3
895.105362E-3
895.041847E-3
894.744301E-3
894.840431E-3
894.811821E-3
894.785500E-3
894.816399E-3
894.590378E-3
894.585800E-3
894.613838E-3
894.432449E-3
893.982697E-3
894.328880E-3
894.211578E-3
894.128036E-3
893.924904E-3
893.880272E-3
893.659973E-3
893.437386E-3
893.292046E-3
893.349838E-3
893.107224E-3
892.898941E-3
892.856598E-3
893.182755E-3
893.883705E-3
895.255852E-3
896.815109E-3
898.567772E-3
900.055504E-3
901.294327E-3
902.260780E-3
902.660751E-3
902.851295E-3
903.009224E-3
902.768898E-3
902.635002E-3
902.344322E-3
902.082253E-3
901.639366E-3
901.149559E-3
900.943565E-3
900.759888E-3
900.621986E-3
900.411987E-3
900.185966E-3
900.238609E-3
900.532150E-3
900.192261E-3
900.194550E-3
899.919891E-3
899.839211E-3
899.443817E-3
899.006081E-3
898.697090E-3
898.491096E-3
898.571777E-3
898.504257E-3
898.515129E-3
898.785782E-3
898.722267E-3
898.883057E-3
898.927689E-3
899.166298E-3
898.995781E-3
898.838425E-3
898.828125E-3
898.532867E-3
898.352051E-3
898.218155E-3
897.934914E-3
897.823334E-3
896.953011E-3
897.056007E-3
896.993637E-3
896.760750E-3
896.604538E-3
896.463776E-3
896.244049E-3
896.032906E-3
896.003723E-3
896.234894E-3
895.829201E-3
895.496750E-3
895.529938E-3
895.373726E-3
895.393753E-3
895.169449E-3
895.223236E-3
895.236397E-3
895.211220E-3
895.080185E-3
894.861031E-3
894.701958E-3
894.715118E-3
894.621849E-3
894.494247E-3
894.564056E-3
894.402122E-3
894.598961E-3
894.182396E-3
894.291687E-3
894.112587E-3
894.102859E-3
894.116020E-3
894.117737E-3
894.003868E-3
893.920898E-3
894.396400E-3
893.924904E-3
893.592453E-3
893.551254E-3
893.297768E-3
893.000221E-3
892.952728E-3
892.658043E-3
892.600822E-3
892.335892E-3
892.313576E-3
892.194557E-3
892.129898E-3
892.405128E-3
892.986488E-3
894.197273E-3
895.479584E-3
897.442818E-3
899.309349E-3
900.747299E-3
901.706314E-3
902.339745E-3
902.634430E-3
902.767754E-3
902.660751E-3
902.878189E-3
902.399254E-3
901.889420E-3
901.437378E-3
900.952721E-3
900.519562E-3
900.415993E-3
900.232887E-3
900.098991E-3
899.913597E-3
899.897575E-3
899.743080E-3
899.972534E-3
899.907875E-3
899.738503E-3
899.477577E-3
899.319077E-3
898.887634E-3
898.683929E-3
898.481941E-3
898.558617E-3
898.630714E-3
898.786926E-3
898.756599E-3
898.875046E-3
898.951149E-3
899.210930E-3
898.561478E-3
898.937988E-3
899.026108E-3
898.946571E-3
898.880768E-3
898.771477E-3
898.581505E-3
898.665047E-3
898.270798E-3
897.969818E-3
897.669983E-3
897.505188E-3
897.227669E-3
897.066307E-3
896.991920E-3
896.825409E-3
896.427155E-3
896.364212E-3
896.256065E-3
896.200562E-3
896.041489E-3
895.920181E-3
895.801735E-3
895.790291E-3
895.818901E-3
895.484734E-3
895.419502E-3
895.422363E-3
895.263863E-3
895.339394E-3
895.248413E-3
895.151138E-3
895.077324E-3
895.045853E-3
896.113586E-3
895.386887E-3
894.999504E-3
894.778633E-3
894.649887E-3
894.779205E-3
894.647026E-3
894.423866E-3
894.415855E-3
893.373871E-3
893.968391E-3
894.126892E-3
894.125175E-3
894.099998E-3
893.959236E-3
893.891716E-3
893.771553E-3
893.631935E-3
894.154930E-3
893.617058E-3
893.373871E-3
893.180466E-3
893.036270E-3
892.884636E-3
892.736435E-3
892.685509E-3
892.819977E-3
892.498970E-3
893.665123E-3
894.797516E-3
896.459198E-3
898.235321E-3
899.875259E-3
901.211929E-3
902.219009E-3
902.798080E-3
903.038979E-3
903.071022E-3
903.024101E-3
902.759743E-3
902.376938E-3
901.880264E-3
901.364708E-3
900.783920E-3
900.387383E-3
900.085258E-3
899.709892E-3
899.518204E-3
899.407196E-3
899.260139E-3
899.317932E-3
899.169731E-3
898.919106E-3
898.749161E-3
898.575211E-3
898.304558E-3
898.064232E-3
898.048210E-3
898.005867E-3
897.930908E-3
898.085976E-3
897.382164E-3
898.239899E-3
898.160362E-3
898.416710E-3
898.755455E-3
898.723412E-3
898.706818E-3
898.560333E-3
898.348045E-3
898.596382E-3
898.150063E-3
897.929764E-3
897.663689E-3
897.422218E-3
897.157860E-3
896.930122E-3
896.730423E-3
896.710396E-3
897.266006E-3
896.529007E-3
896.216583E-3
896.101570E-3
895.955086E-3
895.828056E-3
895.933342E-3
895.559692E-3
895.689011E-3
895.736504E-3
895.519066E-3
895.590591E-3
895.450974E-3
895.243263E-3
895.282173E-3
895.026398E-3
894.047928E-3
894.472504E-3
894.692230E-3
894.580078E-3
894.538307E-3
894.459343E-3
894.321442E-3
894.277382E-3
894.284248E-3
894.674492E-3
894.279099E-3
894.043922E-3
894.017029E-3
893.874550E-3
893.701744E-3
893.710899E-3
893.613052E-3
893.596458E-3
893.471146E-3
893.191338E-3
892.926979E-3
892.915535E-3
892.762756E-3
892.527008E-3
892.424583E-3
892.500114E-3
892.334747E-3
892.686081E-3
892.767906E-3
892.933846E-3
894.107437E-3
895.687866E-3
897.596741E-3
899.365425E-3
900.850868E-3
902.027321E-3
903.004646E-3
903.328514E-3
903.468132E-3
903.373718E-3
903.180885E-3
902.748299E-3
902.260780E-3
901.831055E-3
901.383591E-3
901.854515E-3
900.986481E-3
900.310135E-3
900.120163E-3
899.904442E-3
899.859238E-3
899.757957E-3
899.699020E-3
899.798584E-3
899.497032E-3
899.300194E-3
899.050713E-3
898.638153E-3
898.563194E-3
898.136902E-3
898.091698E-3
897.066879E-3
897.769547E-3
898.205566E-3
898.368645E-3
898.625565E-3
898.744011E-3
898.787498E-3
898.821831E-3
898.727417E-3
899.079323E-3
898.754883E-3
898.480225E-3
898.406982E-3
898.022461E-3
897.970963E-3
897.697449E-3
897.396469E-3
897.047424E-3
897.675133E-3
897.054291E-3
896.507263E-3
896.243477E-3
896.121025E-3
895.828056E-3
895.777702E-3
895.629501E-3
895.504189E-3
896.048927E-3
895.616341E-3
895.497322E-3
895.233536E-3
895.140266E-3
894.982338E-3
894.883347E-3
895.095062E-3
894.902802E-3
895.525932E-3
895.035553E-3
894.826126E-3
894.888496E-3
894.670486E-3
894.555473E-3
894.583511E-3
894.782639E-3
894.504547E-3
894.332886E-3
894.005013E-3
893.960953E-3
893.895149E-3
893.944931E-3
893.964386E-3
893.942642E-3
892.976189E-3
893.354416E-3
893.493462E-3
893.206787E-3
893.060303E-3
892.954445E-3
892.654610E-3
892.565918E-3
892.429733E-3
891.087914E-3
891.642380E-3
891.844368E-3
892.010307E-3
892.022896E-3
892.452049E-3
893.578720E-3
895.120811E-3
897.176743E-3
898.357201E-3
901.021385E-3
902.720261E-3
903.810310E-3
904.425430E-3
904.568481E-3
904.748154E-3
904.646301E-3
904.346466E-3
903.719330E-3
903.402328E-3
902.899933E-3
902.656174E-3
901.972389E-3
901.677704E-3
901.384163E-3
901.194191E-3
901.152420E-3
899.840355E-3
900.645447E-3
900.740433E-3
900.643730E-3
900.518990E-3
900.129318E-3
899.755096E-3
899.239540E-3
898.870468E-3
897.779274E-3
898.024750E-3
898.183823E-3
898.337173E-3
898.263931E-3
898.291397E-3
898.228455E-3
898.222160E-3
898.094559E-3
898.054504E-3
897.818756E-3
897.576141E-3
897.239113E-3
896.971893E-3
896.730995E-3
896.493530E-3
895.385170E-3
895.651817E-3
895.547104E-3
895.370865E-3
895.191193E-3
894.890213E-3
894.818687E-3
894.596672E-3
894.447899E-3
894.201851E-3
894.026756E-3
894.001579E-3
893.885994E-3
893.904877E-3
893.983269E-3
893.682861E-3
893.702888E-3
893.569565E-3
893.387604E-3
893.492889E-3
893.386459E-3
893.369865E-3
893.324661E-3
893.290329E-3
893.280602E-3
893.245697E-3
893.225098E-3
893.724632E-3
893.293190E-3
892.877769E-3
892.870903E-3
892.977905E-3
892.927551E-3
892.716408E-3
892.614555E-3
892.450333E-3
892.132759E-3
892.086411E-3
892.008591E-3
891.761971E-3
891.646957E-3
891.667557E-3
891.474724E-3
891.309929E-3
891.202927E-3
890.970612E-3
890.782356E-3
890.779495E-3
890.717697E-3
890.873337E-3
891.352844E-3
892.373657E-3
894.086266E-3
895.893288E-3
898.073387E-3
899.636650E-3
901.169014E-3
902.083969E-3
902.459908E-3
902.816963E-3
902.626419E-3
902.349472E-3
901.938629E-3
901.431084E-3
900.766754E-3
900.049210E-3
899.617195E-3
899.008942E-3
898.547173E-3
898.199844E-3
897.512627E-3
897.518349E-3
897.520638E-3
897.375298E-3
897.355843E-3
897.152710E-3
896.689796E-3
896.376228E-3
896.109009E-3
895.987701E-3
895.901299E-3
895.931053E-3
896.074104E-3
896.248055E-3
896.495819E-3
896.553040E-3
896.744728E-3
896.908379E-3
896.871185E-3
896.865463E-3
896.677780E-3
896.511269E-3
896.259499E-3
896.015167E-3
895.856094E-3
895.588303E-3
895.314789E-3
895.155144E-3
894.694519E-3
894.362068E-3
894.168091E-3
893.791008E-3
893.467712E-3
893.191338E-3
893.157005E-3
892.949867E-3
892.752457E-3
892.602539E-3
892.545319E-3
892.577362E-3
892.421150E-3
892.402840E-3
892.230606E-3
892.053223E-3
892.058945E-3
892.232895E-3
892.085266E-3
891.906166E-3
891.743660E-3
891.859245E-3
891.481590E-3
891.494179E-3
891.582870E-3
891.319656E-3
892.128181E-3
891.592598E-3
891.448402E-3
891.325378E-3
891.142845E-3
891.154289E-3
890.916252E-3
890.709686E-3
890.724564E-3
890.574646E-3
890.457916E-3
890.220451E-3
890.085411E-3
889.859390E-3
889.553261E-3
889.565849E-3
889.851379E-3
889.894295E-3
890.503120E-3
891.676712E-3
893.642235E-3
895.603752E-3
897.702599E-3
899.355125E-3
900.646591E-3
901.786995E-3
901.860237E-3
902.045059E-3
901.857948E-3
901.504898E-3
901.110077E-3
900.517845E-3
900.046921E-3
899.460983E-3
898.319435E-3
898.241615E-3
897.853661E-3
897.798157E-3
897.706604E-3
897.608185E-3
897.650528E-3
897.401619E-3
897.513199E-3
896.895218E-3
896.957016E-3
896.673775E-3
896.377373E-3
896.055222E-3
895.918465E-3
895.810318E-3
895.868111E-3
896.027184E-3
895.624352E-3
896.047783E-3
896.378517E-3
896.476936E-3
896.527863E-3
896.524429E-3
896.617126E-3
896.411705E-3
896.228027E-3
896.315575E-3
895.875549E-3
895.597458E-3
895.235825E-3
895.067596E-3
894.754028E-3
894.429588E-3
894.552040E-3
894.037056E-3
893.801880E-3
893.578720E-3
893.397903E-3
893.256569E-3
893.105507E-3
892.993355E-3
892.912674E-3
893.221092E-3
892.902374E-3
892.570496E-3
892.596817E-3
892.386246E-3
892.222023E-3
892.355919E-3
892.219734E-3
892.021179E-3
892.450333E-3
892.074966E-3
891.964531E-3
891.776276E-3
891.654396E-3
891.638374E-3
891.577148E-3
891.485023E-3
891.367722E-3
891.493034E-3
891.277313E-3
891.058731E-3
891.153717E-3
890.968895E-3
891.079903E-3
890.896797E-3
890.770912E-3
890.634727E-3
890.666199E-3
890.434456E-3
890.084839E-3
889.938927E-3
889.732361E-3
889.531517E-3
889.562988E-3
889.608765E-3
890.121460E-3
891.916466E-3
893.178749E-3
895.220375E-3
897.259140E-3
899.163437E-3
900.394821E-3
901.221657E-3
901.765251E-3
901.968956E-3
902.240753E-3
901.863098E-3
901.206779E-3
900.839424E-3
900.222015E-3
899.620628E-3
899.226379E-3
898.648453E-3
898.496246E-3
898.027611E-3
897.826195E-3
897.841072E-3
897.627068E-3
897.727776E-3
897.667694E-3
897.573853E-3
897.825623E-3
897.083473E-3
896.820259E-3
896.476364E-3
896.206856E-3
896.306419E-3
896.266937E-3
896.339035E-3
896.468353E-3
896.772766E-3
897.009659E-3
896.999931E-3
896.998787E-3
897.088623E-3
897.017670E-3
896.961021E-3
896.805382E-3
896.656609E-3
896.760750E-3
896.283531E-3
895.937347E-3
895.686722E-3
895.521355E-3
895.183754E-3
895.118523E-3
894.808960E-3
894.559479E-3
894.130898E-3
894.108009E-3
894.014740E-3
893.905449E-3
893.767548E-3
