Notes :


2023-11-04 ¿ÀÈÄ 7:38:43
Volts
Ch : LED 2,
815.504837E-3
813.908958E-3
812.521935E-3
811.310577E-3
810.573578E-3
810.071182E-3
809.853745E-3
809.962463E-3
810.132408E-3
810.556984E-3
811.018753E-3
811.212730E-3
810.946083E-3
810.389900E-3
809.493256E-3
808.406067E-3
807.433319E-3
806.774139E-3
806.513214E-3
806.426811E-3
806.678009E-3
807.079124E-3
807.516289E-3
807.944870E-3
808.321953E-3
808.226967E-3
808.079910E-3
807.798958E-3
807.103729E-3
806.489182E-3
805.607986E-3
804.917908E-3
804.043579E-3
803.153229E-3
802.466011E-3
801.767921E-3
801.188850E-3
800.517654E-3
800.102806E-3
799.665070E-3
799.312592E-3
799.031639E-3
798.378754E-3
798.228836E-3
798.109245E-3
797.915840E-3
797.662354E-3
797.495270E-3
797.404289E-3
797.365379E-3
797.052383E-3
797.136497E-3
796.961403E-3
796.982574E-3
796.879005E-3
796.754837E-3
796.715355E-3
796.706200E-3
796.657562E-3
796.583748E-3
796.920776E-3
796.546555E-3
796.221542E-3
796.067619E-3
795.851326E-3
795.682526E-3
795.639610E-3
795.516586E-3
795.500565E-3
795.394707E-3
795.169258E-3
795.002747E-3
794.597626E-3
794.304657E-3
794.000816E-3
793.743324E-3
793.525314E-3
793.287277E-3
792.982292E-3
792.638969E-3
792.517662E-3
792.564011E-3
792.546272E-3
792.542839E-3
792.614937E-3
793.218040E-3
794.514084E-3
796.714211E-3
799.899101E-3
803.564072E-3
807.442474E-3
811.257362E-3
814.395905E-3
816.487885E-3
817.678642E-3
817.749023E-3
817.077255E-3
815.725708E-3
814.074898E-3
812.353706E-3
810.717201E-3
809.294128E-3
808.334541E-3
807.478523E-3
806.997871E-3
806.766129E-3
806.819344E-3
807.050514E-3
807.209587E-3
807.206154E-3
806.857681E-3
806.140709E-3
805.245781E-3
804.335403E-3
803.683090E-3
803.576660E-3
803.754616E-3
804.180908E-3
804.972267E-3
805.898666E-3
806.617928E-3
807.396126E-3
807.573509E-3
807.705116E-3
807.642746E-3
807.159233E-3
806.648254E-3
805.887794E-3
805.147362E-3
804.412651E-3
803.853607E-3
803.010178E-3
802.337837E-3
801.797104E-3
801.321602E-3
800.761414E-3
800.493622E-3
800.144577E-3
799.980354E-3
799.486542E-3
799.469948E-3
799.480247E-3
799.253082E-3
799.239349E-3
799.191856E-3
798.947525E-3
799.076843E-3
798.859978E-3
798.785591E-3
798.783302E-3
798.715782E-3
798.747253E-3
798.647690E-3
798.676872E-3
798.640823E-3
798.681450E-3
798.714066E-3
798.596191E-3
798.552132E-3
798.528671E-3
798.258591E-3
798.021126E-3
797.713852E-3
797.522736E-3
797.080421E-3
796.754837E-3
796.360588E-3
795.920563E-3
795.716286E-3
795.344925E-3
795.071411E-3
794.934082E-3
794.796753E-3
794.909477E-3
795.038223E-3
795.675087E-3
797.091866E-3
799.341774E-3
802.569580E-3
806.369591E-3
810.297775E-3
814.073753E-3
817.308998E-3
819.567490E-3
820.945358E-3
820.901871E-3
820.256996E-3
818.982124E-3
817.358780E-3
815.594673E-3
814.031410E-3
812.753105E-3
811.730576E-3
810.928345E-3
810.741234E-3
810.626793E-3
810.922050E-3
811.114311E-3
811.456490E-3
811.620712E-3
811.620140E-3
811.039352E-3
810.153580E-3
809.144211E-3
808.284760E-3
807.705116E-3
807.515144E-3
807.477379E-3
807.816696E-3
808.159447E-3
808.956528E-3
809.609413E-3
810.214233E-3
810.399628E-3
810.491180E-3
810.374451E-3
810.048294E-3
809.481812E-3
808.960533E-3
808.284760E-3
807.509422E-3
807.022476E-3
806.407356E-3
805.974770E-3
805.439186E-3
804.962540E-3
804.591751E-3
804.407501E-3
804.045296E-3
803.788376E-3
803.567505E-3
803.539467E-3
803.341484E-3
803.232193E-3
803.297997E-3
803.140068E-3
803.196716E-3
803.045654E-3
803.115463E-3
803.202438E-3
803.136635E-3
803.167534E-3
803.130341E-3
803.236771E-3
803.145790E-3
802.934074E-3
802.854538E-3
802.706909E-3
802.548409E-3
802.322388E-3
802.103806E-3
801.974487E-3
801.494980E-3
801.607704E-3
801.614571E-3
801.363945E-3
801.128769E-3
800.933647E-3
800.570297E-3
800.270462E-3
799.856186E-3
799.714851E-3
799.248505E-3
798.862267E-3
798.665428E-3
798.351288E-3
798.037148E-3
797.984505E-3
797.918129E-3
797.971344E-3
798.229980E-3
798.721504E-3
799.514580E-3
801.642609E-3
804.795456E-3
808.659554E-3
813.053513E-3
817.251778E-3
820.885277E-3
823.891640E-3
825.310707E-3
825.811386E-3
825.453186E-3
824.454117E-3
822.916031E-3
821.218300E-3
819.583511E-3
818.125534E-3
817.105293E-3
816.189766E-3
815.539742E-3
815.476799E-3
815.524292E-3
815.876198E-3
816.249275E-3
816.603470E-3
816.896439E-3
816.765404E-3
816.177750E-3
815.453339E-3
814.365578E-3
813.412285E-3
812.457848E-3
812.088203E-3
812.092209E-3
812.211227E-3
812.623787E-3
813.239479E-3
813.692093E-3
814.145279E-3
814.454269E-3
814.546967E-3
814.324379E-3
813.634300E-3
813.199997E-3
812.627220E-3
812.005806E-3
811.216164E-3
810.589027E-3
809.921837E-3
809.224892E-3
808.695030E-3
808.192635E-3
807.817268E-3
807.348061E-3
806.931496E-3
806.701469E-3
806.360435E-3
806.146431E-3
806.022263E-3
805.713272E-3
805.743027E-3
805.539322E-3
805.344200E-3
805.424309E-3
805.200577E-3
805.130196E-3
804.990578E-3
804.931068E-3
804.839516E-3
804.810333E-3
804.735947E-3
804.410362E-3
804.402924E-3
804.288483E-3
804.107094E-3
803.913689E-3
803.688240E-3
803.392982E-3
802.977562E-3
802.812767E-3
802.726936E-3
802.586746E-3
802.448273E-3
802.241135E-3
802.044296E-3
801.814270E-3
801.511002E-3
801.303864E-3
801.032066E-3
800.660706E-3
800.351715E-3
800.020409E-3
799.762344E-3
799.456787E-3
799.188423E-3
798.927498E-3
798.975563E-3
798.758125E-3
798.827934E-3
798.850250E-3
799.369812E-3
800.757408E-3
803.078842E-3
806.438828E-3
810.397339E-3
814.695740E-3
818.400764E-3
821.639442E-3
823.881912E-3
824.902725E-3
825.075531E-3
824.237251E-3
822.867393E-3
821.334457E-3
819.524574E-3
817.928696E-3
816.583443E-3
815.549469E-3
814.829063E-3
814.407349E-3
814.251137E-3
814.388466E-3
814.817619E-3
815.166664E-3
815.441322E-3
815.390968E-3
815.035629E-3
814.261436E-3
813.339043E-3
812.295914E-3
811.760902E-3
811.037064E-3
810.921478E-3
811.106300E-3
811.487961E-3
812.143135E-3
812.721634E-3
813.274956E-3
813.574791E-3
813.764191E-3
813.514137E-3
813.090134E-3
812.487602E-3
811.871910E-3
810.932922E-3
810.207367E-3
809.440613E-3
808.677864E-3
808.149147E-3
807.364655E-3
806.903458E-3
806.379890E-3
806.056023E-3
805.732155E-3
805.426025E-3
805.198860E-3
804.947090E-3
804.386330E-3
804.481888E-3
804.121971E-3
804.216385E-3
804.113960E-3
804.114532E-3
804.207802E-3
804.225540E-3
804.325676E-3
804.047012E-3
804.084206E-3
804.176331E-3
804.112816E-3
804.089355E-3
803.947449E-3
803.854179E-3
803.825569E-3
803.810692E-3
803.800392E-3
803.720856E-3
803.718567E-3
803.697395E-3
803.467941E-3
803.410149E-3
803.128624E-3
802.898026E-3
802.646828E-3
802.091217E-3
802.034569E-3
801.715279E-3
801.450348E-3
801.294708E-3
801.039505E-3
800.806046E-3
800.612640E-3
800.576019E-3
800.422096E-3
800.411797E-3
800.435829E-3
800.798607E-3
801.751900E-3
803.675652E-3
806.338120E-3
809.862328E-3
813.749886E-3
817.757607E-3
821.255493E-3
823.994637E-3
825.554466E-3
826.052284E-3
825.643730E-3
824.590874E-3
823.109436E-3
821.346474E-3
819.729424E-3
818.233109E-3
817.022324E-3
815.941429E-3
815.384674E-3
815.118027E-3
815.020180E-3
815.035057E-3
815.159225E-3
815.177536E-3
815.017891E-3
814.371872E-3
813.544464E-3
812.600899E-3
811.847305E-3
811.377525E-3
811.254501E-3
811.564636E-3
812.042427E-3
812.787437E-3
813.566780E-3
814.262581E-3
814.908600E-3
815.295410E-3
815.334892E-3
815.045357E-3
814.527512E-3
813.827705E-3
813.125610E-3
812.322235E-3
811.473656E-3
810.796165E-3
810.144424E-3
809.399414E-3
808.695602E-3
808.396339E-3
807.831001E-3
807.453346E-3
807.226181E-3
807.102013E-3
806.709480E-3
806.446838E-3
806.350136E-3
806.080627E-3
806.058884E-3
806.000519E-3
806.176758E-3
806.181908E-3
806.151009E-3
806.144142E-3
806.123543E-3
806.175613E-3
805.872917E-3
805.982208E-3
806.021118E-3
805.888367E-3
805.819702E-3
805.783653E-3
805.803108E-3
805.724716E-3
805.616570E-3
805.260658E-3
805.361938E-3
805.346489E-3
805.280685E-3
805.113029E-3
804.821205E-3
804.847527E-3
804.657555E-3
804.436684E-3
804.273033E-3
804.033279E-3
803.770638E-3
803.305435E-3
802.955246E-3
802.673149E-3
802.365303E-3
802.085495E-3
801.955032E-3
801.949310E-3
801.918411E-3
802.148437E-3
802.962112E-3
804.349136E-3
806.936646E-3
810.298347E-3
814.213371E-3
818.503761E-3
822.437096E-3
825.696373E-3
827.922821E-3
829.107285E-3
829.172516E-3
828.520775E-3
827.228165E-3
825.626564E-3
823.765755E-3
822.117805E-3
820.630074E-3
819.584656E-3
818.931770E-3
818.528366E-3
818.611336E-3
818.734360E-3
819.240189E-3
819.475365E-3
819.872475E-3
820.080757E-3
819.711685E-3
818.840218E-3
817.887497E-3
816.944504E-3
816.156578E-3
815.374947E-3
815.183830E-3
815.403557E-3
815.700531E-3
816.168594E-3
816.740227E-3
817.413712E-3
817.772484E-3
817.722702E-3
817.884636E-3
817.490959E-3
816.847229E-3
816.104507E-3
815.595818E-3
814.958382E-3
814.094925E-3
813.412285E-3
812.907028E-3
812.733078E-3
811.884499E-3
811.201859E-3
810.835075E-3
810.450554E-3
809.981918E-3
809.691811E-3
809.599686E-3
809.316444E-3
808.997726E-3
808.962822E-3
808.986282E-3
808.784866E-3
808.740807E-3
808.612061E-3
808.530807E-3
808.444977E-3
808.204079E-3
808.214378E-3
808.196640E-3
808.015823E-3
808.016968E-3
807.883072E-3
807.857895E-3
807.776070E-3
807.490540E-3
807.295418E-3
807.291412E-3
806.812477E-3
806.512070E-3
806.322670E-3
806.039429E-3
805.786514E-3
805.657196E-3
805.419159E-3
805.175400E-3
804.990578E-3
804.566002E-3
804.154587E-3
803.762627E-3
803.362656E-3
802.989006E-3
802.560425E-3
802.296066E-3
801.889801E-3
801.642609E-3
801.687241E-3
801.664352E-3
801.612854E-3
801.888657E-3
802.964973E-3
804.899025E-3
807.848167E-3
811.400986E-3
815.398979E-3
819.287682E-3
822.657967E-3
825.492096E-3
827.261353E-3
827.562904E-3
826.916885E-3
825.900078E-3
824.428940E-3
822.534370E-3
820.622063E-3
819.323730E-3
818.300629E-3
817.326164E-3
816.922188E-3
816.939354E-3
817.178535E-3
817.255211E-3
817.575073E-3
817.995644E-3
818.112373E-3
817.607117E-3
817.029762E-3
816.031837E-3
814.971542E-3
814.295197E-3
813.531303E-3
813.361931E-3
813.479805E-3
813.942146E-3
814.619064E-3
815.226173E-3
815.760612E-3
815.895081E-3
816.228676E-3
816.139412E-3
815.735435E-3
815.230179E-3
814.620781E-3
814.091492E-3
813.293839E-3
812.733078E-3
811.997795E-3
811.606979E-3
810.935783E-3
810.302925E-3
809.844017E-3
809.516144E-3
809.023476E-3
808.848381E-3
808.650398E-3
808.508492E-3
808.625221E-3
808.182335E-3
807.955742E-3
807.694817E-3
807.607841E-3
807.620430E-3
807.420731E-3
807.398987E-3
807.434464E-3
807.514000E-3
807.486534E-3
807.423019E-3
807.493401E-3
807.431030E-3
807.195282E-3
807.171822E-3
807.286263E-3
807.019615E-3
806.730080E-3
806.826782E-3
806.949234E-3
806.552124E-3
806.494331E-3
806.564140E-3
806.459427E-3
806.132698E-3
805.647469E-3
805.620575E-3
805.244637E-3
804.563141E-3
804.329681E-3
804.271317E-3
803.980637E-3
803.439903E-3
803.570938E-3
803.779221E-3
803.514862E-3
803.370667E-3
803.596115E-3
804.203224E-3
805.203438E-3
807.059097E-3
810.119820E-3
813.994217E-3
817.340469E-3
820.976257E-3
824.182320E-3
826.684570E-3
827.767754E-3
827.769470E-3
827.290535E-3
826.052284E-3
824.493599E-3
822.770691E-3
821.338463E-3
819.999504E-3
818.752098E-3
818.070030E-3
817.819977E-3
817.579079E-3
817.609978E-3
817.506981E-3
817.825127E-3
817.485809E-3
817.073822E-3
816.418076E-3
815.481949E-3
814.558983E-3
813.937569E-3
813.851738E-3
813.959885E-3
814.217949E-3
815.025330E-3
815.928841E-3
816.750526E-3
817.236900E-3
817.573929E-3
817.874336E-3
817.823982E-3
817.352486E-3
816.799164E-3
816.295052E-3
815.614128E-3
814.765549E-3
814.117813E-3
813.499832E-3
812.713623E-3
812.122536E-3
811.694527E-3
811.101723E-3
810.655403E-3
810.290337E-3
810.190201E-3
809.970474E-3
809.714127E-3
809.765625E-3
809.793091E-3
809.438896E-3
809.318733E-3
809.338760E-3
809.354210E-3
809.032059E-3
808.981705E-3
809.193993E-3
809.123039E-3
808.926201E-3
809.277534E-3
809.366226E-3
809.216881E-3
808.987999E-3
809.036064E-3
808.975983E-3
808.790588E-3
808.613777E-3
808.545113E-3
808.525658E-3
808.237267E-3
808.094788E-3
808.168602E-3
808.082199E-3
807.850456E-3
807.491684E-3
807.612991E-3
807.252502E-3
806.689453E-3
806.308937E-3
805.969620E-3
805.705833E-3
805.357361E-3
805.159378E-3
805.061531E-3
805.059814E-3
804.983139E-3
805.083275E-3
805.328178E-3
805.912971E-3
807.442474E-3
810.142708E-3
813.707542E-3
817.597961E-3
821.734428E-3
825.603676E-3
828.758240E-3
830.841637E-3
831.717110E-3
831.828690E-3
830.972672E-3
829.562759E-3
827.895927E-3
826.524925E-3
824.969673E-3
823.579216E-3
822.846222E-3
822.450829E-3
822.366142E-3
822.518349E-3
822.848511E-3
823.274231E-3
823.776627E-3
823.726845E-3
823.726273E-3
823.100853E-3
822.172737E-3
821.005440E-3
819.957161E-3
819.270515E-3
818.818474E-3
818.633080E-3
818.996429E-3
819.415283E-3
819.843292E-3
820.437813E-3
820.883560E-3
821.046638E-3
821.069527E-3
821.089554E-3
820.490456E-3
819.744873E-3
819.299126E-3
818.852234E-3
818.053436E-3
817.188835E-3
816.677856E-3
816.175461E-3
815.334320E-3
814.889717E-3
814.566422E-3
814.238548E-3
813.689232E-3
813.365936E-3
813.547325E-3
813.402557E-3
813.075256E-3
813.014603E-3
813.060379E-3
813.011169E-3
812.599182E-3
812.606049E-3
812.897301E-3
812.662697E-3
812.402916E-3
812.410927E-3
812.665558E-3
812.495041E-3
812.091637E-3
812.351418E-3
812.255859E-3
811.971474E-3
811.691093E-3
811.663628E-3
811.359215E-3
811.085129E-3
810.926056E-3
810.875702E-3
810.848808E-3
810.645103E-3
810.379601E-3
810.317802E-3
810.148430E-3
809.408569E-3
809.202576E-3
808.803749E-3
808.497047E-3
808.010101E-3
807.473373E-3
807.180405E-3
806.762123E-3
806.448555E-3
806.329536E-3
806.189919E-3
806.104088E-3
806.058311E-3
806.241417E-3
806.867981E-3
808.258438E-3
810.684586E-3
813.959885E-3
817.913818E-3
821.812248E-3
825.395966E-3
828.406334E-3
830.385017E-3
831.230164E-3
831.037903E-3
830.019951E-3
828.691292E-3
827.106285E-3
825.414276E-3
824.142265E-3
823.073387E-3
822.478867E-3
822.033691E-3
822.076035E-3
822.388458E-3
822.671700E-3
823.088837E-3
823.350334E-3
823.406410E-3
823.153496E-3
822.429657E-3
821.406555E-3
820.164299E-3
819.258499E-3
818.533516E-3
818.033981E-3
818.066025E-3
818.421936E-3
819.008446E-3
819.537163E-3
819.907951E-3
820.245552E-3
820.315933E-3
820.120239E-3
819.850159E-3
819.125748E-3
818.495178E-3
817.704391E-3
817.020035E-3
816.303062E-3
815.680504E-3
814.949799E-3
814.351845E-3
813.829422E-3
813.412857E-3
812.999725E-3
812.762833E-3
812.501335E-3
812.301636E-3
812.137985E-3
812.020111E-3
811.889648E-3
811.681366E-3
811.563492E-3
811.503983E-3
811.430168E-3
811.458206E-3
811.414146E-3
811.332893E-3
811.624146E-3
811.552048E-3
811.573792E-3
811.584091E-3
811.654472E-3
811.561775E-3
811.414719E-3
