Notes :


2023-11-10 ¿ÀÈÄ 11:43:43
Volts
Ch : LED 2,
793.806839E-3
793.648338E-3
793.528748E-3
793.392563E-3
793.131065E-3
792.913055E-3
792.959404E-3
792.446136E-3
792.537117E-3
792.347717E-3
792.107964E-3
792.074776E-3
791.832733E-3
791.499710E-3
791.082001E-3
790.734100E-3
790.416527E-3
789.984512E-3
789.705849E-3
789.423752E-3
789.123917E-3
788.999748E-3
788.799477E-3
788.878441E-3
789.291573E-3
790.813065E-3
793.453217E-3
797.046089E-3
801.506996E-3
805.985069E-3
810.301781E-3
813.992500E-3
816.790009E-3
818.736076E-3
819.209290E-3
819.006157E-3
818.030548E-3
816.559982E-3
814.930344E-3
813.096428E-3
811.605263E-3
810.190201E-3
809.049225E-3
808.352280E-3
807.737160E-3
807.519722E-3
807.579231E-3
807.514572E-3
807.587814E-3
807.467079E-3
807.213020E-3
806.497765E-3
805.307007E-3
804.084206E-3
802.969551E-3
802.243996E-3
801.833153E-3
801.517296E-3
801.710129E-3
802.199936E-3
802.598763E-3
803.184700E-3
803.645325E-3
804.220390E-3
804.436111E-3
804.505348E-3
804.531670E-3
804.291344E-3
803.998947E-3
803.516006E-3
803.070259E-3
802.452278E-3
801.800537E-3
801.139069E-3
800.466728E-3
799.986076E-3
799.444199E-3
798.953247E-3
798.530388E-3
798.030281E-3
797.673225E-3
797.485542E-3
797.075844E-3
796.869850E-3
796.559715E-3
796.243858E-3
796.047592E-3
795.564651E-3
795.389557E-3
795.105171E-3
794.919205E-3
794.635391E-3
794.334412E-3
794.348717E-3
794.104385E-3
793.965912E-3
793.853760E-3
793.611145E-3
793.639755E-3
793.342209E-3
793.261528E-3
793.172264E-3
792.887306E-3
792.747116E-3
792.509651E-3
792.273903E-3
792.275047E-3
791.988945E-3
791.939163E-3
791.822433E-3
791.784096E-3
791.649055E-3
791.542625E-3
791.483688E-3
791.217613E-3
791.209030E-3
791.069984E-3
790.848541E-3
790.862846E-3
790.542412E-3
790.390205E-3
790.053177E-3
789.614868E-3
789.436913E-3
789.004898E-3
788.646126E-3
788.475037E-3
788.460159E-3
788.792038E-3
789.492989E-3
790.974426E-3
793.919563E-3
797.836304E-3
802.415657E-3
807.140923E-3
811.570930E-3
815.535736E-3
818.460274E-3
820.359993E-3
821.170235E-3
820.991135E-3
820.175743E-3
818.701744E-3
817.131042E-3
815.578651E-3
813.894653E-3
812.643242E-3
811.528015E-3
810.932922E-3
810.601044E-3
810.474586E-3
810.665703E-3
810.927773E-3
811.307716E-3
811.348343E-3
811.312866E-3
811.049080E-3
810.031128E-3
808.811188E-3
807.440758E-3
806.363297E-3
805.721283E-3
805.350494E-3
805.309296E-3
805.579376E-3
805.795670E-3
806.361008E-3
806.905174E-3
807.361221E-3
807.530022E-3
807.706261E-3
807.740593E-3
807.540894E-3
807.323456E-3
806.803322E-3
806.233406E-3
805.764198E-3
805.084991E-3
804.620934E-3
803.907394E-3
803.382683E-3
803.007317E-3
802.631378E-3
802.195358E-3
801.922989E-3
801.498985E-3
801.220322E-3
800.962257E-3
800.590324E-3
800.226974E-3
799.929428E-3
799.623871E-3
799.214745E-3
798.946381E-3
798.773003E-3
798.537254E-3
798.197937E-3
797.828865E-3
797.635460E-3
797.359085E-3
797.115326E-3
797.108459E-3
796.785736E-3
796.792603E-3
796.641541E-3
796.295357E-3
796.234703E-3
796.108818E-3
795.977783E-3
795.790100E-3
795.522881E-3
795.473671E-3
795.281982E-3
795.170403E-3
795.094299E-3
794.986153E-3
794.842529E-3
794.556427E-3
794.473457E-3
794.294357E-3
794.163322E-3
794.009399E-3
793.676376E-3
793.630600E-3
793.219185E-3
792.873573E-3
792.525673E-3
792.038727E-3
791.738892E-3
791.519737E-3
791.281700E-3
791.150665E-3
791.160393E-3
791.250801E-3
791.813278E-3
793.321609E-3
796.230125E-3
799.915695E-3
804.185486E-3
808.620644E-3
812.859535E-3
816.366577E-3
818.805313E-3
820.370293E-3
821.196556E-3
820.668411E-3
819.746017E-3
818.277740E-3
816.687012E-3
815.096855E-3
813.427162E-3
812.305641E-3
811.164093E-3
810.411644E-3
810.042000E-3
809.822273E-3
809.964752E-3
809.976768E-3
810.021973E-3
809.793091E-3
809.177971E-3
808.248138E-3
807.127190E-3
805.991364E-3
805.190277E-3
804.673576E-3
804.727936E-3
804.762840E-3
805.238914E-3
805.792809E-3
806.310081E-3
807.164955E-3
807.620430E-3
807.940292E-3
808.074188E-3
807.991791E-3
807.876778E-3
807.514572E-3
807.217598E-3
806.673431E-3
806.065750E-3
805.529594E-3
804.707336E-3
804.023552E-3
803.561783E-3
803.039932E-3
802.659416E-3
802.201653E-3
801.905251E-3
801.651192E-3
801.343346E-3
801.060677E-3
800.718498E-3
800.564003E-3
800.336838E-3
800.016403E-3
799.710846E-3
799.331474E-3
799.245071E-3
799.199295E-3
798.904610E-3
798.797607E-3
798.571587E-3
798.536682E-3
798.391914E-3
798.270035E-3
798.130989E-3
797.904396E-3
797.788239E-3
797.696686E-3
797.537613E-3
797.430611E-3
797.242928E-3
797.178841E-3
796.971130E-3
796.824074E-3
796.726799E-3
796.625519E-3
796.374893E-3
796.247864E-3
796.014404E-3
796.006393E-3
795.735741E-3
795.570946E-3
795.229340E-3
794.792175E-3
794.475174E-3
794.118690E-3
793.944168E-3
793.584251E-3
793.218613E-3
793.304443E-3
793.092155E-3
793.191147E-3
793.792534E-3
795.101166E-3
797.803116E-3
801.397705E-3
805.787659E-3
810.352707E-3
814.659691E-3
818.593025E-3
821.565056E-3
823.438454E-3
824.131393E-3
823.878479E-3
823.021889E-3
821.691513E-3
819.992638E-3
818.522072E-3
816.818047E-3
815.633011E-3
814.580727E-3
813.902664E-3
813.619995E-3
813.413429E-3
813.473511E-3
813.608551E-3
813.613701E-3
813.568497E-3
813.146210E-3
812.559128E-3
811.418152E-3
810.084915E-3
808.921623E-3
807.892227E-3
807.528877E-3
807.285690E-3
807.550049E-3
807.992935E-3
808.435822E-3
809.161377E-3
809.588242E-3
810.039139E-3
810.376167E-3
810.204506E-3
810.082626E-3
809.794807E-3
809.504700E-3
809.021187E-3
808.300781E-3
807.840729E-3
807.187271E-3
806.436539E-3
805.884933E-3
805.225754E-3
804.854393E-3
804.405785E-3
804.143715E-3
803.901100E-3
803.368950E-3
803.218460E-3
802.970123E-3
802.534676E-3
802.443123E-3
801.838303E-3
801.644325E-3
801.383400E-3
801.111031E-3
800.823212E-3
800.478172E-3
800.391197E-3
800.136566E-3
799.788094E-3
799.641609E-3
799.433327E-3
799.298286E-3
799.083138E-3
798.975563E-3
798.890877E-3
798.481750E-3
798.519516E-3
798.191071E-3
797.897530E-3
797.849464E-3
797.591400E-3
797.559929E-3
797.349930E-3
797.187996E-3
797.209167E-3
797.039795E-3
797.007179E-3
796.727371E-3
796.615219E-3
796.496201E-3
796.187782E-3
796.008682E-3
795.829582E-3
795.450783E-3
795.161247E-3
794.740105E-3
794.515228E-3
794.074631E-3
793.578529E-3
793.367958E-3
793.195724E-3
793.207169E-3
793.462944E-3
794.193649E-3
796.161461E-3
799.254227E-3
803.586960E-3
808.073616E-3
812.818909E-3
817.384529E-3
821.163368E-3
824.059296E-3
825.782776E-3
826.241112E-3
826.076317E-3
824.998856E-3
823.649025E-3
822.180176E-3
820.496178E-3
819.142342E-3
818.119240E-3
817.378807E-3
816.956520E-3
816.708755E-3
816.844940E-3
817.213440E-3
817.536736E-3
817.857170E-3
817.896652E-3
817.763329E-3
816.827774E-3
815.896797E-3
814.322090E-3
812.937355E-3
811.790657E-3
810.913467E-3
810.650253E-3
810.721207E-3
810.877419E-3
811.374664E-3
811.770630E-3
812.310219E-3
812.768555E-3
812.937355E-3
813.104439E-3
812.788010E-3
812.795448E-3
812.432098E-3
811.751747E-3
811.296844E-3
810.595894E-3
810.066605E-3
809.430885E-3
808.801460E-3
808.358574E-3
808.032990E-3
807.503128E-3
807.035637E-3
806.509781E-3
806.322098E-3
805.783653E-3
805.441475E-3
805.053520E-3
804.587173E-3
804.332542E-3
803.926277E-3
803.746033E-3
803.446770E-3
803.023338E-3
802.784729E-3
802.535248E-3
802.246857E-3
802.024269E-3
801.499557E-3
801.481247E-3
801.254082E-3
801.111603E-3
800.880432E-3
800.720215E-3
800.668716E-3
800.455856E-3
800.353432E-3
800.039864E-3
799.815559E-3
799.738312E-3
799.388123E-3
799.283409E-3
799.069977E-3
798.738670E-3
798.706627E-3
798.366165E-3
798.354721E-3
798.070908E-3
797.846603E-3
797.831154E-3
797.634888E-3
797.467804E-3
797.211456E-3
796.791458E-3
796.647835E-3
796.136284E-3
795.837593E-3
795.422745E-3
795.084572E-3
794.708633E-3
794.379044E-3
794.309807E-3
794.408798E-3
794.227982E-3
794.501495E-3
795.176697E-3
797.113037E-3
800.031281E-3
803.855896E-3
808.637810E-3
813.024902E-3
817.163658E-3
820.603180E-3
823.066521E-3
824.577713E-3
824.713898E-3
824.158287E-3
823.092270E-3
821.464348E-3
819.923401E-3
818.357849E-3
816.914177E-3
815.719414E-3
814.823914E-3
814.377022E-3
814.105225E-3
814.138985E-3
814.437103E-3
814.616776E-3
814.743805E-3
814.544106E-3
813.880348E-3
812.778854E-3
811.389542E-3
810.303497E-3
809.306717E-3
808.803177E-3
808.746529E-3
808.904457E-3
809.330177E-3
809.714127E-3
810.325813E-3
811.017036E-3
811.356354E-3
811.648750E-3
811.588669E-3
811.574364E-3
811.416435E-3
810.957527E-3
810.617638E-3
810.011673E-3
809.383965E-3
808.691025E-3
808.005524E-3
807.453918E-3
806.831932E-3
806.408501E-3
806.059456E-3
805.732155E-3
805.443764E-3
805.030632E-3
804.873276E-3
804.596901E-3
804.323387E-3
804.122543E-3
803.874779E-3
803.591537E-3
803.337479E-3
803.097153E-3
802.876854E-3
802.649117E-3
802.425957E-3
802.308083E-3
801.980209E-3
801.758194E-3
801.648331E-3
801.371384E-3
801.465225E-3
801.142502E-3
801.213455E-3
800.820923E-3
800.638962E-3
800.646973E-3
800.295639E-3
800.399780E-3
800.152588E-3
800.078773E-3
799.923706E-3
799.762917E-3
799.698257E-3
799.519157E-3
799.492264E-3
799.357224E-3
799.087715E-3
798.943520E-3
798.814201E-3
798.629951E-3
798.474312E-3
798.255730E-3
797.875786E-3
797.423744E-3
796.951675E-3
796.682739E-3
796.205521E-3
795.883942E-3
795.652771E-3
795.756340E-3
795.758629E-3
796.096230E-3
797.335625E-3
799.699402E-3
803.037643E-3
807.342339E-3
811.905098E-3
816.419792E-3
820.480156E-3
823.795509E-3
826.137543E-3
827.086830E-3
827.308846E-3
826.558685E-3
825.407410E-3
823.889351E-3
822.315788E-3
820.813751E-3
819.495392E-3
818.672562E-3
817.848587E-3
817.395401E-3
817.306709E-3
817.433167E-3
817.636871E-3
817.959595E-3
818.091774E-3
817.845154E-3
817.263794E-3
816.213799E-3
814.856529E-3
813.387108E-3
812.353134E-3
811.590958E-3
811.149216E-3
811.252785E-3
811.303711E-3
811.828995E-3
812.397766E-3
812.980843E-3
813.485527E-3
813.673782E-3
813.821411E-3
813.898659E-3
813.517570E-3
813.217735E-3
812.837219E-3
812.272453E-3
811.606979E-3
810.853386E-3
810.316658E-3
809.509850E-3
809.001732E-3
808.568001E-3
808.127403E-3
807.579231E-3
807.164383E-3
806.949234E-3
806.502914E-3
806.118965E-3
805.914116E-3
805.356216E-3
805.095863E-3
804.800034E-3
804.350853E-3
804.099083E-3
803.749466E-3
803.531456E-3
803.315163E-3
802.997017E-3
802.828217E-3
802.407074E-3
802.337265E-3
801.907539E-3
801.715279E-3
801.613998E-3
801.391983E-3
801.358223E-3
801.087570E-3
800.869560E-3
800.675583E-3
800.413513E-3
800.375175E-3
800.180054E-3
799.950600E-3
799.747467E-3
799.487114E-3
799.415016E-3
799.191856E-3
798.977852E-3
798.887444E-3
798.744392E-3
798.732948E-3
798.529816E-3
798.346138E-3
798.243713E-3
797.987366E-3
797.990227E-3
797.721291E-3
797.367668E-3
797.271538E-3
796.770859E-3
796.619225E-3
796.136284E-3
795.684814E-3
795.526886E-3
795.141792E-3
795.086288E-3
795.006752E-3
795.181847E-3
796.265030E-3
798.187637E-3
801.546478E-3
805.888367E-3
810.646820E-3
815.613556E-3
819.928551E-3
823.817825E-3
826.716614E-3
828.354263E-3
828.867531E-3
828.301620E-3
827.309990E-3
825.786781E-3
824.082184E-3
822.420502E-3
820.897865E-3
819.960022E-3
819.194412E-3
818.657684E-3
818.650818E-3
818.542099E-3
818.804741E-3
818.966675E-3
819.136620E-3
819.322014E-3
818.934631E-3
818.343544E-3
817.243195E-3
815.734863E-3
814.459991E-3
813.189697E-3
812.468147E-3
812.041855E-3
811.869049E-3
812.075615E-3
812.548828E-3
812.860680E-3
813.434601E-3
813.684082E-3
814.083481E-3
813.885498E-3
814.041710E-3
813.690376E-3
813.305283E-3
812.979698E-3
812.362289E-3
811.769485E-3
811.227608E-3
810.471153E-3
810.015106E-3
809.317589E-3
808.810616E-3
808.429527E-3
807.886505E-3
807.711411E-3
807.232475E-3
806.893730E-3
806.419945E-3
806.170464E-3
805.903244E-3
805.426598E-3
805.082703E-3
804.867554E-3
804.461861E-3
804.306221E-3
803.895378E-3
803.618431E-3
803.372955E-3
803.116035E-3
803.085709E-3
802.697754E-3
802.561569E-3
802.403069E-3
802.178192E-3
802.124977E-3
801.884651E-3
801.697540E-3
801.607132E-3
801.298141E-3
801.178551E-3
800.737953E-3
800.518799E-3
800.320816E-3
800.126839E-3
799.938011E-3
799.584961E-3
799.458504E-3
799.320030E-3
799.144936E-3
798.990440E-3
798.652840E-3
798.575020E-3
798.311806E-3
798.137283E-3
798.001671E-3
797.776794E-3
797.642899E-3
797.476959E-3
797.192001E-3
796.958542E-3
796.511650E-3
796.093369E-3
795.811272E-3
795.414162E-3
795.175552E-3
794.804192E-3
794.657707E-3
794.670868E-3
794.639397E-3
794.852257E-3
795.793533E-3
797.703552E-3
801.091003E-3
805.001450E-3
809.531593E-3
814.002228E-3
818.180466E-3
821.522141E-3
823.903084E-3
825.127029E-3
825.238037E-3
824.662399E-3
823.483086E-3
821.812820E-3
820.292473E-3
818.483734E-3
817.132759E-3
815.970612E-3
814.921188E-3
814.282036E-3
813.918114E-3
813.835144E-3
814.151573E-3
814.335823E-3
814.446831E-3
814.173889E-3
813.790512E-3
812.801170E-3
811.536026E-3
810.501480E-3
809.485817E-3
808.778572E-3
808.637238E-3
808.503342E-3
809.018326E-3
809.403992E-3
809.974480E-3
810.351562E-3
810.671425E-3
811.000443E-3
811.160088E-3
811.233330E-3
811.126328E-3
810.702896E-3
810.215378E-3
809.571075E-3
808.943367E-3
808.402634E-3
807.560349E-3
807.081985E-3
806.505203E-3
806.010246E-3
805.643463E-3
805.141068E-3
804.794884E-3
804.524231E-3
804.151154E-3
803.894234E-3
803.532028E-3
803.325462E-3
802.973557E-3
802.597618E-3
802.403069E-3
802.022552E-3
801.714706E-3
801.353073E-3
801.001740E-3
800.829506E-3
800.578880E-3
800.502777E-3
800.179482E-3
800.091362E-3
799.992943E-3
799.893951E-3
799.830437E-3
799.658775E-3
799.584961E-3
799.397850E-3
799.147797E-3
799.256516E-3
799.187279E-3
798.945808E-3
798.953819E-3
798.798752E-3
798.673439E-3
798.592758E-3
798.398781E-3
798.276901E-3
798.137856E-3
798.078346E-3
797.817421E-3
797.603416E-3
797.531319E-3
797.276115E-3
797.212601E-3
796.928787E-3
796.648407E-3
796.490479E-3
795.964050E-3
795.630455E-3
795.335770E-3
795.213890E-3
795.111465E-3
794.958687E-3
795.161247E-3
795.530319E-3
796.694756E-3
799.119186E-3
802.536392E-3
806.919479E-3
811.390686E-3
815.769196E-3
819.954300E-3
823.120308E-3
825.387955E-3
826.441383E-3
826.392174E-3
825.726700E-3
824.336815E-3
822.805595E-3
821.072960E-3
819.344330E-3
817.905235E-3
816.779137E-3
815.973473E-3
815.358353E-3
814.923477E-3
814.906311E-3
814.894867E-3
815.208435E-3
815.122032E-3
814.972115E-3
814.611626E-3
813.318443E-3
812.188339E-3
810.930061E-3
810.052872E-3
809.451485E-3
809.233475E-3
809.301567E-3
809.702682E-3
810.066605E-3
810.715485E-3
811.181831E-3
811.671638E-3
812.034988E-3
812.067604E-3
812.099648E-3
811.768341E-3
811.474228E-3
811.260223E-3
810.451698E-3
809.914398E-3
809.185410E-3
808.660698E-3
808.076477E-3
