Notes :


2023-11-04 ¿ÀÈÄ 6:53:36
Volts
Ch : LED 2,
412.168121E-3
411.630821E-3
411.206245E-3
410.888100E-3
410.755348E-3
410.399437E-3
410.058403E-3
409.832954E-3
409.616661E-3
409.536552E-3
409.492493E-3
409.416962E-3
409.223557E-3
408.876228E-3
408.584404E-3
408.282280E-3
407.966995E-3
407.714081E-3
407.677460E-3
407.419968E-3
407.244873E-3
406.932449E-3
406.815720E-3
406.782532E-3
406.524467E-3
406.278419E-3
406.372261E-3
406.998825E-3
408.610725E-3
411.102676E-3
414.337349E-3
418.023491E-3
421.799469E-3
425.378036E-3
428.253365E-3
430.292702E-3
431.358147E-3
431.246567E-3
430.307007E-3
428.861046E-3
427.183914E-3
425.396347E-3
423.660278E-3
421.892166E-3
420.929146E-3
420.141792E-3
419.875717E-3
419.720078E-3
419.755554E-3
419.890594E-3
419.974136E-3
420.220184E-3
420.158958E-3
419.948959E-3
419.335556E-3
418.633461E-3
417.898178E-3
417.388344E-3
417.106247E-3
417.212105E-3
417.644119E-3
418.092155E-3
418.472672E-3
418.710136E-3
419.031143E-3
419.001389E-3
418.879509E-3
418.674660E-3
418.224335E-3
417.764854E-3
417.218399E-3
416.666222E-3
416.103172E-3
415.391922E-3
414.611435E-3
413.704491E-3
412.996101E-3
412.601280E-3
411.927223E-3
411.407661E-3
411.068916E-3
410.841179E-3
410.731888E-3
410.541344E-3
410.559654E-3
410.547066E-3
410.646057E-3
410.469818E-3
410.265541E-3
410.269547E-3
410.079575E-3
409.985733E-3
409.937668E-3
409.883881E-3
409.985161E-3
409.974861E-3
409.982300E-3
410.118484E-3
410.252380E-3
410.234070E-3
410.116196E-3
409.880447E-3
409.792900E-3
409.614372E-3
409.506798E-3
409.482193E-3
409.399796E-3
409.426117E-3
409.300804E-3
409.337425E-3
409.358597E-3
409.270477E-3
409.099960E-3
408.693695E-3
408.527184E-3
408.221626E-3
407.903481E-3
407.456589E-3
407.200813E-3
407.034302E-3
406.769943E-3
406.719017E-3
406.838036E-3
406.800270E-3
406.900406E-3
407.053185E-3
407.633400E-3
409.056473E-3
411.392212E-3
414.674377E-3
418.077850E-3
421.694183E-3
425.200081E-3
428.137207E-3
430.357933E-3
431.439972E-3
431.421661E-3
430.615425E-3
429.349136E-3
427.667427E-3
425.970840E-3
424.336624E-3
423.070908E-3
421.899033E-3
421.186638E-3
420.803261E-3
420.594978E-3
420.384407E-3
420.430183E-3
420.798683E-3
420.988655E-3
421.051025E-3
420.809555E-3
420.237350E-3
419.640541E-3
419.290924E-3
419.138145E-3
419.080353E-3
419.043159E-3
419.297218E-3
419.804192E-3
420.278549E-3
420.841026E-3
421.310234E-3
421.539688E-3
421.577454E-3
421.554565E-3
421.403503E-3
421.136856E-3
420.454788E-3
419.701767E-3
418.829155E-3
418.070412E-3
417.075920E-3
416.239357E-3
415.618515E-3
415.148163E-3
414.771652E-3
414.494705E-3
414.506149E-3
414.566803E-3
414.413452E-3
414.249229E-3
413.961411E-3
413.865280E-3
413.787460E-3
413.779449E-3
413.926506E-3
414.024925E-3
414.057541E-3
414.180565E-3
414.377403E-3
414.491844E-3
414.387131E-3
414.145088E-3
414.023209E-3
413.828659E-3
413.635826E-3
413.498497E-3
413.620377E-3
413.437271E-3
413.331413E-3
413.223839E-3
413.235283E-3
413.132858E-3
412.870216E-3
412.489700E-3
412.244225E-3
411.855698E-3
411.762428E-3
411.693192E-3
411.622238E-3
411.583328E-3
411.483192E-3
411.393929E-3
411.355591E-3
411.127281E-3
410.721016E-3
410.262108E-3
409.992599E-3
409.569740E-3
409.271622E-3
409.216690E-3
409.375763E-3
409.867287E-3
410.675240E-3
412.498283E-3
415.626526E-3
419.011116E-3
422.771072E-3
426.387978E-3
429.908180E-3
432.727432E-3
434.724426E-3
435.780144E-3
435.925484E-3
435.348701E-3
434.296989E-3
432.748604E-3
431.228256E-3
429.530525E-3
427.976418E-3
426.829147E-3
425.896454E-3
425.301361E-3
425.129128E-3
425.351143E-3
425.769997E-3
426.200867E-3
426.734161E-3
427.169609E-3
427.377319E-3
427.099800E-3
426.158524E-3
425.083923E-3
424.206161E-3
423.534966E-3
423.198509E-3
423.139000E-3
423.399925E-3
423.672867E-3
424.103165E-3
424.596405E-3
424.916267E-3
425.098228E-3
424.984932E-3
424.574661E-3
424.242210E-3
423.682022E-3
422.981071E-3
422.302437E-3
421.540260E-3
420.685959E-3
419.955826E-3
419.211960E-3
418.806267E-3
418.346786E-3
417.889023E-3
417.422676E-3
416.934586E-3
416.638184E-3
416.349220E-3
416.180420E-3
415.910912E-3
415.682602E-3
415.501785E-3
415.457726E-3
415.469742E-3
415.430832E-3
415.266037E-3
415.104103E-3
414.967918E-3
414.831734E-3
414.719009E-3
414.589119E-3
414.339638E-3
414.286995E-3
414.316177E-3
414.252090E-3
414.162254E-3
413.984871E-3
413.645554E-3
413.338852E-3
413.124275E-3
412.584686E-3
412.407303E-3
412.223625E-3
411.915207E-3
411.668587E-3
411.587334E-3
411.499214E-3
411.388779E-3
411.017418E-3
410.527039E-3
410.189438E-3
409.889603E-3
409.501076E-3
409.257889E-3
408.841324E-3
408.612442E-3
408.308601E-3
408.049965E-3
408.078003E-3
408.127213E-3
408.158684E-3
408.415604E-3
409.322548E-3
411.225700E-3
413.809204E-3
417.380333E-3
421.255302E-3
425.032997E-3
428.506279E-3
431.159592E-3
432.794380E-3
433.585167E-3
433.356857E-3
432.328033E-3
430.569649E-3
428.778648E-3
427.155304E-3
425.455856E-3
424.081421E-3
422.989655E-3
422.336769E-3
421.972275E-3
421.894455E-3
422.109604E-3
422.499275E-3
423.044014E-3
423.231697E-3
423.187637E-3
422.809982E-3
422.056961E-3
420.980644E-3
419.898605E-3
419.285202E-3
419.148445E-3
419.171906E-3
419.574738E-3
420.132065E-3
420.632744E-3
421.182632E-3
421.121407E-3
421.049881E-3
420.893669E-3
420.414734E-3
419.831085E-3
419.251442E-3
418.632889E-3
417.937660E-3
417.382050E-3
416.771507E-3
416.211319E-3
415.750122E-3
415.205383E-3
414.527893E-3
414.036369E-3
413.583755E-3
413.303375E-3
412.905121E-3
412.766647E-3
412.553215E-3
412.518311E-3
412.552643E-3
412.687683E-3
412.764931E-3
412.755203E-3
412.712288E-3
412.697411E-3
412.633896E-3
412.536621E-3
412.448502E-3
412.446785E-3
412.394714E-3
412.458229E-3
412.478256E-3
412.608147E-3
412.475967E-3
412.648201E-3
412.653923E-3
412.616158E-3
412.425613E-3
412.219048E-3
412.031937E-3
411.829948E-3
411.704063E-3
411.585045E-3
411.320686E-3
411.180496E-3
411.032867E-3
410.919571E-3
410.862923E-3
410.632324E-3
410.576820E-3
410.002899E-3
409.593201E-3
409.206963E-3
409.027290E-3
408.918571E-3
408.968353E-3
409.102249E-3
409.739113E-3
411.073494E-3
413.515663E-3
416.817856E-3
420.298004E-3
424.080276E-3
427.647972E-3
430.685806E-3
433.055305E-3
434.322166E-3
434.844589E-3
434.426880E-3
433.431816E-3
432.093430E-3
430.558777E-3
429.109383E-3
427.585030E-3
426.394272E-3
425.449562E-3
424.943161E-3
424.435043E-3
424.261665E-3
424.360085E-3
424.781227E-3
425.072479E-3
425.458717E-3
425.591469E-3
425.117683E-3
424.405861E-3
423.488617E-3
422.700119E-3
422.269821E-3
421.970558E-3
422.045517E-3
422.415161E-3
423.145294E-3
423.618507E-3
424.058533E-3
424.591827E-3
424.695969E-3
424.567223E-3
424.253654E-3
423.688889E-3
423.101234E-3
422.282982E-3
421.667862E-3
420.941734E-3
420.304871E-3
419.736099E-3
419.034576E-3
418.673515E-3
418.323898E-3
418.036652E-3
417.878151E-3
417.565155E-3
417.119408E-3
416.995239E-3
416.706276E-3
416.536331E-3
416.364670E-3
416.301155E-3
416.363525E-3
416.417885E-3
416.637039E-3
416.682243E-3
416.861916E-3
416.833878E-3
416.682243E-3
416.556358E-3
416.394424E-3
416.266251E-3
416.142654E-3
416.024208E-3
415.947533E-3
415.798759E-3
415.742683E-3
415.651131E-3
415.544701E-3
415.598488E-3
415.542984E-3
415.399933E-3
415.090370E-3
414.769936E-3
414.668655E-3
414.380836E-3
414.163971E-3
413.888168E-3
413.799477E-3
413.586044E-3
413.391495E-3
413.231277E-3
413.167191E-3
413.142586E-3
412.858200E-3
412.376404E-3
412.046242E-3
411.752701E-3
411.566734E-3
411.578751E-3
412.095451E-3
413.655281E-3
416.106033E-3
419.554138E-3
423.670006E-3
427.877426E-3
432.089424E-3
435.368156E-3
437.745094E-3
439.212227E-3
439.494896E-3
438.977051E-3
437.827492E-3
436.275101E-3
434.587097E-3
432.660484E-3
431.477737E-3
430.535889E-3
429.879570E-3
429.525948E-3
429.248428E-3
429.274178E-3
429.377747E-3
429.520798E-3
429.749107E-3
430.039787E-3
430.198288E-3
429.887009E-3
429.299927E-3
428.587532E-3
427.853966E-3
427.296638E-3
426.861763E-3
426.548195E-3
426.481819E-3
426.597404E-3
426.849747E-3
427.028847E-3
427.178764E-3
427.209663E-3
427.217674E-3
427.075768E-3
426.735306E-3
426.366234E-3
425.970840E-3
425.531387E-3
424.713707E-3
423.814201E-3
422.941017E-3
422.249222E-3
421.410370E-3
420.727158E-3
420.236778E-3
419.879150E-3
419.597626E-3
419.410515E-3
419.351578E-3
419.253731E-3
418.989944E-3
418.962479E-3
418.756485E-3
418.521309E-3
418.299866E-3
418.212891E-3
418.084145E-3
417.925644E-3
417.901039E-3
417.828941E-3
417.663002E-3
417.721367E-3
417.525101E-3
417.413521E-3
417.206955E-3
417.013550E-3
416.803551E-3
416.496277E-3
416.028786E-3
415.814781E-3
415.766144E-3
415.464592E-3
415.312386E-3
415.216255E-3
415.142441E-3
415.096664E-3
414.845467E-3
414.400864E-3
414.173126E-3
413.932228E-3
413.584328E-3
413.320541E-3
413.146019E-3
412.870216E-3
412.541199E-3
412.277412E-3
412.021637E-3
411.555862E-3
411.194229E-3
411.112404E-3
411.054039E-3
411.030579E-3
411.252022E-3
412.249374E-3
414.135361E-3
416.967201E-3
420.605278E-3
424.449921E-3
428.399849E-3
431.823349E-3
434.496117E-3
436.294556E-3
436.939430E-3
436.471367E-3
435.404205E-3
433.871841E-3
432.147789E-3
430.322456E-3
428.671074E-3
427.403641E-3
426.397705E-3
425.970268E-3
425.328827E-3
425.193214E-3
425.187492E-3
425.405502E-3
425.824928E-3
426.151085E-3
426.305008E-3
426.183128E-3
425.491333E-3
424.705696E-3
423.797607E-3
423.014832E-3
422.533035E-3
422.458649E-3
422.694397E-3
423.165321E-3
423.558426E-3
423.981857E-3
424.310303E-3
424.589539E-3
424.546051E-3
424.302864E-3
423.808479E-3
423.085213E-3
422.110748E-3
421.443558E-3
420.760345E-3
419.975281E-3
419.028854E-3
418.409157E-3
417.850685E-3
417.382622E-3
417.147446E-3
417.136574E-3
416.872787E-3
416.613579E-3
416.354370E-3
416.223907E-3
416.002464E-3
415.966415E-3
415.816498E-3
415.851402E-3
415.780449E-3
415.922356E-3
416.051674E-3
416.236496E-3
416.219902E-3
416.071129E-3
415.938950E-3
415.881157E-3
415.780449E-3
415.580750E-3
415.525818E-3
415.413666E-3
415.389633E-3
415.344429E-3
415.367317E-3
415.409660E-3
415.238571E-3
415.013695E-3
414.896393E-3
414.561653E-3
414.324760E-3
414.143944E-3
413.909340E-3
413.670731E-3
413.414955E-3
413.220406E-3
412.970352E-3
412.727165E-3
412.579536E-3
412.314034E-3
412.102890E-3
411.958122E-3
412.067413E-3
412.201881E-3
413.294792E-3
414.987373E-3
417.668724E-3
421.150017E-3
425.101662E-3
429.216385E-3
433.107376E-3
435.871124E-3
437.702751E-3
438.580513E-3
438.376808E-3
437.531090E-3
435.920334E-3
434.253502E-3
432.465363E-3
430.904961E-3
429.636383E-3
428.653336E-3
427.907181E-3
427.556992E-3
427.412796E-3
427.438545E-3
427.494621E-3
427.762985E-3
427.957535E-3
428.037643E-3
427.659988E-3
426.964760E-3
426.121902E-3
425.547409E-3
425.170898E-3
425.099373E-3
425.167465E-3
425.465584E-3
425.820351E-3
426.198578E-3
426.808548E-3
426.978493E-3
427.033997E-3
426.947594E-3
426.733017E-3
426.492119E-3
426.077843E-3
425.655556E-3
425.057602E-3
424.289131E-3
423.396492E-3
422.634315E-3
421.844673E-3
421.178627E-3
420.495415E-3
420.104599E-3
419.642258E-3
419.549561E-3
419.396782E-3
419.380760E-3
419.381332E-3
419.119263E-3
418.936729E-3
418.828011E-3
418.912125E-3
418.771935E-3
418.574524E-3
418.559647E-3
418.577957E-3
418.502998E-3
418.636322E-3
418.807983E-3
418.824577E-3
418.737602E-3
418.785667E-3
418.611145E-3
418.449783E-3
418.102455E-3
417.990303E-3
417.834091E-3
417.687607E-3
417.608643E-3
417.601204E-3
417.881584E-3
417.609787E-3
417.431259E-3
416.970062E-3
416.662216E-3
416.486549E-3
416.260529E-3
415.885162E-3
415.439415E-3
415.393066E-3
415.028000E-3
414.620590E-3
414.417458E-3
414.309311E-3
414.325905E-3
414.330482E-3
414.649773E-3
415.484047E-3
417.324829E-3
420.333481E-3
423.991013E-3
428.118324E-3
432.433319E-3
436.242485E-3
439.474297E-3
441.792297E-3
443.116951E-3
443.229675E-3
442.457199E-3
441.145134E-3
439.466858E-3
437.547684E-3
435.857964E-3
434.359360E-3
433.432388E-3
432.756042E-3
432.374954E-3
432.530594E-3
432.945442E-3
433.313370E-3
433.604622E-3
433.897591E-3
434.123611E-3
433.707619E-3
433.288193E-3
432.285690E-3
431.274605E-3
430.399132E-3
429.744530E-3
429.630089E-3
429.755974E-3
430.072403E-3
430.607414E-3
430.781364E-3
431.064034E-3
431.130409E-3
431.120682E-3
431.011963E-3
430.643463E-3
430.272675E-3
429.798317E-3
429.322243E-3
428.724861E-3
427.967834E-3
427.321815E-3
426.495552E-3
425.497627E-3
424.705696E-3
424.108315E-3
423.554420E-3
423.143578E-3
422.850609E-3
422.733879E-3
422.575378E-3
422.534180E-3
422.392845E-3
422.301865E-3
421.965981E-3
421.715927E-3
421.612358E-3
421.577454E-3
421.383476E-3
421.294785E-3
421.172333E-3
421.139145E-3
420.987511E-3
420.968056E-3
420.993233E-3
420.887947E-3
420.796394E-3
420.741463E-3
420.595551E-3
420.412445E-3
420.027924E-3
419.733238E-3
419.646263E-3
419.487190E-3
419.412804E-3
419.169044E-3
419.131279E-3
418.992233E-3
418.715858E-3
418.338203E-3
417.839241E-3
417.715645E-3
417.151451E-3
416.724014E-3
416.379547E-3
416.051674E-3
415.736389E-3
415.381622E-3
415.159607E-3
415.308380E-3
415.449142E-3
415.475464E-3
415.945816E-3
417.478752E-3
420.236206E-3
423.605347E-3
427.552414E-3
431.509209E-3
435.384750E-3
438.699532E-3
441.036415E-3
442.279816E-3
442.619705E-3
441.919899E-3
440.490532E-3
438.621140E-3
436.441612E-3
434.730721E-3
433.251572E-3
432.023621E-3
431.161880E-3
430.687523E-3
430.528450E-3
430.677795E-3
431.039429E-3
431.637955E-3
432.038498E-3
432.143211E-3
431.751823E-3
431.058311E-3
430.073547E-3
429.164886E-3
428.216743E-3
427.770996E-3
427.601051E-3
427.954674E-3
428.540039E-3
429.164886E-3
429.829788E-3
430.298996E-3
430.427742E-3
430.210876E-3
429.898453E-3
429.061317E-3
428.716278E-3
427.985001E-3
427.334976E-3
426.591682E-3
425.824356E-3
425.193787E-3
424.519730E-3
423.913765E-3
423.447990E-3
422.854042E-3
422.333336E-3
422.014618E-3
421.684456E-3
421.338844E-3
421.121979E-3
420.854759E-3
420.988083E-3
421.060753E-3
421.334839E-3
421.397781E-3
421.276474E-3
421.112251E-3
421.088791E-3
421.103096E-3
420.953178E-3
421.032715E-3
421.075058E-3
421.164894E-3
421.188354E-3
421.239281E-3
421.386337E-3
421.411514E-3
421.280479E-3
421.263885E-3
421.202660E-3
421.047020E-3
420.936584E-3
420.673370E-3
420.374680E-3
420.013046E-3
419.848824E-3
419.638252E-3
419.615364E-3
419.354439E-3
419.198227E-3
418.738747E-3
418.137360E-3
417.743111E-3
417.534256E-3
417.435837E-3
417.384911E-3
417.292786E-3
417.968559E-3
419.466591E-3
421.784592E-3
425.181770E-3
429.111671E-3
433.316231E-3
437.230110E-3
440.837860E-3
443.637657E-3
445.354271E-3
445.791435E-3
445.491600E-3
444.237328E-3
442.657471E-3
440.852165E-3
439.069748E-3
437.677574E-3
436.305428E-3
435.266304E-3
