Notes :


2023-11-04 ¿ÀÈÄ 9:17:09
Volts
Ch : LED 2,
753.009224E-3
752.726555E-3
752.510262E-3
752.285385E-3
752.106857E-3
751.939201E-3
751.774406E-3
751.674271E-3
751.272011E-3
751.368713E-3
751.363564E-3
751.021385E-3
750.759888E-3
750.299835E-3
749.835205E-3
749.414062E-3
748.924255E-3
748.751450E-3
748.548889E-3
748.397827E-3
748.647881E-3
749.182892E-3
750.728416E-3
753.227234E-3
756.432152E-3
760.029602E-3
763.239670E-3
766.524696E-3
769.153404E-3
770.751572E-3
771.524620E-3
771.419907E-3
770.706367E-3
769.404602E-3
767.850494E-3
766.088104E-3
764.401245E-3
763.078880E-3
761.996841E-3
761.270142E-3
760.823822E-3
760.525131E-3
760.584068E-3
760.666466E-3
760.640717E-3
760.621834E-3
760.336304E-3
760.003281E-3
759.262276E-3
758.620834E-3
758.157349E-3
758.023453E-3
757.883835E-3
757.887268E-3
758.141899E-3
758.623123E-3
758.956718E-3
759.458542E-3
759.645081E-3
759.811592E-3
759.708023E-3
759.528923E-3
759.291458E-3
758.802795E-3
758.377075E-3
757.931900E-3
757.281876E-3
756.822968E-3
756.283379E-3
756.043625E-3
755.510330E-3
754.932976E-3
754.570198E-3
754.327583E-3
754.114723E-3
753.981400E-3
753.684425E-3
753.532791E-3
753.489876E-3
753.188324E-3
753.087044E-3
752.763176E-3
752.691650E-3
752.529716E-3
752.463913E-3
752.477646E-3
752.319717E-3
752.414131E-3
752.271652E-3
752.098274E-3
752.023888E-3
751.815605E-3
751.700020E-3
751.436234E-3
751.285744E-3
751.146698E-3
750.819969E-3
750.723267E-3
750.683784E-3
750.602531E-3
750.531578E-3
750.275230E-3
750.152779E-3
749.843216E-3
749.666405E-3
749.654961E-3
749.453545E-3
749.422646E-3
749.190331E-3
749.051285E-3
748.946571E-3
748.621559E-3
748.227882E-3
748.040771E-3
747.666550E-3
747.430229E-3
747.168159E-3
747.189331E-3
747.265434E-3
747.838211E-3
749.434662E-3
751.825333E-3
755.363846E-3
759.017372E-3
762.810516E-3
766.375923E-3
769.201469E-3
771.377563E-3
772.399521E-3
772.571754E-3
771.733475E-3
770.711517E-3
769.232941E-3
767.532349E-3
765.885544E-3
764.472198E-3
763.264275E-3
762.376785E-3
761.848640E-3
761.347389E-3
761.424065E-3
761.517334E-3
761.822891E-3
761.899567E-3
761.960793E-3
761.820602E-3
761.331367E-3
760.673332E-3
759.797859E-3
759.247971E-3
758.939552E-3
758.636284E-3
758.686066E-3
758.892632E-3
759.143257E-3
759.666824E-3
759.776115E-3
759.984970E-3
760.067940E-3
759.919739E-3
759.822464E-3
759.364128E-3
759.027100E-3
758.478355E-3
758.043480E-3
757.615471E-3
756.983185E-3
756.612396E-3
756.257057E-3
755.776978E-3
755.417633E-3
754.954720E-3
754.769325E-3
754.255486E-3
754.068375E-3
753.788567E-3
753.609467E-3
753.634071E-3
753.641510E-3
753.464699E-3
753.519630E-3
753.426361E-3
753.263855E-3
753.349113E-3
753.215790E-3
753.251266E-3
752.878189E-3
752.696800E-3
752.594376E-3
752.504539E-3
752.617264E-3
752.367210E-3
752.342606E-3
752.316856E-3
752.025604E-3
751.919746E-3
751.643944E-3
751.413345E-3
751.152420E-3
750.969887E-3
750.871468E-3
750.648880E-3
750.599670E-3
750.433159E-3
750.309563E-3
750.200272E-3
750.040054E-3
750.085831E-3
749.914169E-3
749.677849E-3
749.521637E-3
749.210358E-3
749.010658E-3
748.721123E-3
748.417282E-3
748.296547E-3
748.052216E-3
748.030472E-3
748.038483E-3
748.310280E-3
749.276733E-3
751.254845E-3
754.214287E-3
757.669258E-3
761.457825E-3
765.311050E-3
768.412399E-3
770.853996E-3
772.507668E-3
773.012352E-3
772.844696E-3
771.913719E-3
770.627975E-3
768.997765E-3
767.258263E-3
765.474129E-3
763.994980E-3
763.005638E-3
762.377930E-3
761.894417E-3
761.808586E-3
761.667824E-3
761.738777E-3
762.087822E-3
761.933327E-3
761.669540E-3
761.154556E-3
760.424995E-3
759.811592E-3
759.245110E-3
759.193039E-3
759.240532E-3
759.476280E-3
759.881401E-3
760.204697E-3
760.673904E-3
760.894203E-3
761.103630E-3
761.243248E-3
760.823822E-3
760.802078E-3
760.638428E-3
760.231018E-3
759.856796E-3
759.291458E-3
758.735847E-3
758.046913E-3
757.343102E-3
757.047844E-3
756.294250E-3
755.798149E-3
755.246544E-3
754.890060E-3
754.681206E-3
754.443169E-3
754.537582E-3
754.322433E-3
754.490089E-3
754.193687E-3
753.786850E-3
753.754807E-3
753.594017E-3
753.533363E-3
753.298187E-3
753.154564E-3
753.095627E-3
753.218651E-3
752.986908E-3
752.839851E-3
752.604103E-3
752.526283E-3
752.212143E-3
752.104568E-3
751.867676E-3
751.509476E-3
751.098061E-3
750.950432E-3
750.742722E-3
750.686073E-3
750.434875E-3
750.197983E-3
749.915886E-3
749.684715E-3
749.554253E-3
749.166870E-3
749.027252E-3
748.651314E-3
748.350334E-3
748.054504E-3
747.593880E-3
747.397041E-3
746.886063E-3
746.724129E-3
746.676064E-3
746.610832E-3
746.722412E-3
747.240829E-3
748.547745E-3
750.945282E-3
753.960228E-3
757.537079E-3
761.202049E-3
764.630127E-3
767.405891E-3
769.333076E-3
770.448875E-3
770.305824E-3
769.470978E-3
767.992401E-3
766.103554E-3
764.371490E-3
762.543297E-3
760.926247E-3
759.745789E-3
758.705521E-3
758.086395E-3
757.528496E-3
757.235527E-3
757.010651E-3
757.053566E-3
757.042122E-3
756.854439E-3
756.426430E-3
755.972099E-3
755.338097E-3
755.141258E-3
754.971886E-3
755.138397E-3
755.506897E-3
755.747223E-3
756.457901E-3
757.077026E-3
757.642937E-3
758.138466E-3
758.223152E-3
758.359337E-3
758.027458E-3
757.735634E-3
757.369423E-3
756.916237E-3
756.456757E-3
755.861664E-3
755.184746E-3
754.808807E-3
754.004860E-3
753.278732E-3
752.678490E-3
752.047920E-3
751.601601E-3
751.096916E-3
750.864601E-3
750.527573E-3
750.437164E-3
750.345612E-3
750.088692E-3
749.971390E-3
749.812317E-3
749.672699E-3
749.653816E-3
749.420929E-3
749.301338E-3
749.254417E-3
749.072456E-3
748.964310E-3
748.809814E-3
748.707962E-3
748.541451E-3
748.424149E-3
748.353195E-3
748.016739E-3
747.953796E-3
747.518349E-3
747.218513E-3
747.080040E-3
746.792793E-3
746.634293E-3
746.343613E-3
746.212006E-3
746.058655E-3
745.905876E-3
745.800018E-3
745.534515E-3
745.354843E-3
745.157433E-3
744.798660E-3
744.694519E-3
744.331741E-3
743.969536E-3
743.716621E-3
743.308067E-3
743.068886E-3
742.887497E-3
742.909241E-3
743.242836E-3
744.259644E-3
746.253204E-3
749.127960E-3
752.629280E-3
756.558609E-3
760.193253E-3
763.598442E-3
766.167068E-3
767.999268E-3
768.695641E-3
768.362617E-3
767.710876E-3
766.397095E-3
764.554024E-3
762.876892E-3
761.108780E-3
759.677696E-3
758.356476E-3
757.546806E-3
757.198334E-3
756.947708E-3
757.065010E-3
757.262993E-3
757.451820E-3
757.738495E-3
757.555389E-3
757.374001E-3
756.796074E-3
756.075096E-3
755.412483E-3
754.769325E-3
754.493523E-3
754.450035E-3
754.557037E-3
754.821396E-3
755.061150E-3
755.297470E-3
755.578423E-3
755.515480E-3
755.470848E-3
755.247116E-3
754.933548E-3
754.538727E-3
753.977966E-3
753.545952E-3
752.896500E-3
752.142334E-3
751.880836E-3
751.229095E-3
750.732994E-3
750.338745E-3
749.901009E-3
749.420929E-3
749.018097E-3
748.745728E-3
748.483086E-3
748.252487E-3
748.138046E-3
748.035049E-3
747.898293E-3
747.727776E-3
747.722054E-3
747.394180E-3
747.394180E-3
747.445107E-3
747.403908E-3
747.317505E-3
747.057152E-3
746.855164E-3
746.792793E-3
746.655464E-3
746.736145E-3
746.569633E-3
746.402550E-3
746.433449E-3
746.241188E-3
746.115303E-3
745.945930E-3
745.807457E-3
745.651817E-3
745.406914E-3
745.247269E-3
745.064163E-3
745.008659E-3
745.013809E-3
744.850159E-3
744.855309E-3
744.765472E-3
744.681931E-3
744.345474E-3
744.199562E-3
744.078827E-3
743.705177E-3
743.337250E-3
743.063164E-3
742.684937E-3
742.692375E-3
742.635727E-3
742.601967E-3
743.503761E-3
745.108795E-3
747.756958E-3
751.238823E-3
754.835701E-3
758.638000E-3
761.898422E-3
764.563751E-3
766.663170E-3
767.344093E-3
767.473412E-3
766.645432E-3
765.357399E-3
763.856506E-3
762.052917E-3
760.395241E-3
758.921814E-3
757.692719E-3
756.818962E-3
756.177521E-3
755.969238E-3
755.727196E-3
755.844498E-3
755.989265E-3
756.122589E-3
756.226730E-3
755.827332E-3
755.286598E-3
754.614830E-3
753.988838E-3
753.687286E-3
753.527641E-3
753.583145E-3
753.893280E-3
754.310417E-3
754.808807E-3
755.077744E-3
755.390167E-3
755.506897E-3
755.528641E-3
755.471420E-3
755.165863E-3
754.977608E-3
754.444313E-3
753.747368E-3
753.232384E-3
752.524567E-3
751.900864E-3
751.478004E-3
750.940132E-3
750.656319E-3
750.321579E-3
750.040054E-3
749.762535E-3
749.399757E-3
749.186897E-3
749.027824E-3
748.768044E-3
748.633575E-3
748.349762E-3
748.398399E-3
748.294258E-3
748.162079E-3
748.167801E-3
747.982979E-3
747.935486E-3
747.811890E-3
747.695732E-3
747.508049E-3
747.301483E-3
747.132683E-3
746.831703E-3
746.744156E-3
746.604538E-3
746.514130E-3
746.378517E-3
746.368790E-3
746.146202E-3
745.894432E-3
745.545959E-3
745.349693E-3
745.111656E-3
744.949722E-3
744.681931E-3
744.456482E-3
744.271088E-3
744.212723E-3
744.174957E-3
743.960381E-3
743.577003E-3
743.326950E-3
742.938995E-3
742.690086E-3
742.491531E-3
742.595673E-3
742.458916E-3
742.432022E-3
742.865753E-3
744.283104E-3
746.500397E-3
749.681854E-3
753.112793E-3
756.653595E-3
760.109711E-3
762.491798E-3
764.278221E-3
765.140533E-3
765.186882E-3
764.378357E-3
762.962151E-3
761.422920E-3
759.594727E-3
758.064079E-3
756.404686E-3
755.033112E-3
754.125595E-3
753.526497E-3
753.247261E-3
753.075027E-3
752.965736E-3
753.088760E-3
752.783203E-3
752.609825E-3
752.121735E-3
751.403618E-3
750.739288E-3
750.282669E-3
750.081253E-3
750.201988E-3
750.278091E-3
750.653458E-3
751.036835E-3
751.454544E-3
751.877975E-3
751.912308E-3
752.024460E-3
751.900864E-3
751.394463E-3
751.138115E-3
750.749588E-3
750.259209E-3
749.604034E-3
748.967743E-3
748.432159E-3
747.754669E-3
747.260284E-3
746.948433E-3
746.432304E-3
745.963097E-3
745.400047E-3
745.089340E-3
744.830132E-3
744.643021E-3
744.502258E-3
744.207001E-3
744.296837E-3
744.122314E-3
744.015884E-3
744.089699E-3
744.002724E-3
743.982697E-3
744.062233E-3
743.999290E-3
743.907166E-3
743.797302E-3
743.617058E-3
743.398476E-3
743.210220E-3
743.198204E-3
743.095779E-3
742.929840E-3
742.839432E-3
742.773628E-3
742.690659E-3
742.451477E-3
742.359352E-3
742.115021E-3
741.795731E-3
741.561127E-3
741.212654E-3
741.017532E-3
740.820122E-3
740.886497E-3
740.754318E-3
740.594673E-3
740.421867E-3
740.092850E-3
739.773560E-3
739.488029E-3
739.152145E-3
738.855171E-3
738.602829E-3
738.610268E-3
738.849449E-3
739.536095E-3
741.201210E-3
743.914604E-3
747.231102E-3
751.314926E-3
754.905510E-3
758.230019E-3
760.907936E-3
762.589645E-3
763.459969E-3
763.370705E-3
762.721825E-3
761.460686E-3
759.957504E-3
758.372498E-3
756.756020E-3
755.394745E-3
754.311562E-3
753.472710E-3
753.169441E-3
753.002357E-3
753.063011E-3
753.207779E-3
753.259850E-3
753.493881E-3
753.399467E-3
753.170013E-3
752.648163E-3
751.919174E-3
751.242256E-3
750.621414E-3
750.361633E-3
750.189972E-3
750.207710E-3
750.542450E-3
750.769043E-3
751.199913E-3
751.443100E-3
751.550674E-3
751.604462E-3
751.253700E-3
751.092911E-3
750.774765E-3
750.361633E-3
749.843788E-3
749.228668E-3
748.721123E-3
748.119164E-3
747.605324E-3
746.979332E-3
746.505547E-3
746.208000E-3
745.849800E-3
745.524788E-3
745.374298E-3
745.052147E-3
744.867897E-3
744.708824E-3
744.309998E-3
744.340324E-3
744.198418E-3
744.174957E-3
744.151497E-3
744.006157E-3
744.021034E-3
743.871689E-3
743.835640E-3
743.787003E-3
743.521500E-3
743.360138E-3
743.189049E-3
742.998505E-3
742.885208E-3
742.769623E-3
742.485809E-3
742.395401E-3
742.298698E-3
742.134476E-3
742.027473E-3
741.834641E-3
741.503334E-3
741.304207E-3
741.102219E-3
740.916252E-3
740.864182E-3
740.582657E-3
740.495682E-3
740.427589E-3
740.299416E-3
740.217590E-3
739.930916E-3
739.786148E-3
739.638519E-3
739.141273E-3
738.914680E-3
738.623428E-3
738.506699E-3
738.545036E-3
739.056015E-3
740.372658E-3
742.576790E-3
745.642090E-3
749.180603E-3
752.976036E-3
756.550026E-3
759.351540E-3
761.458397E-3
762.645721E-3
762.880325E-3
762.515831E-3
761.158562E-3
760.024452E-3
758.569336E-3
756.929970E-3
755.434799E-3
754.250908E-3
753.299332E-3
752.705383E-3
752.351189E-3
752.528572E-3
752.603531E-3
752.812386E-3
752.942276E-3
753.027534E-3
752.893639E-3
752.220726E-3
751.400185E-3
750.724983E-3
750.309563E-3
750.136185E-3
750.044632E-3
750.387955E-3
750.759888E-3
751.027107E-3
751.384735E-3
751.562691E-3
751.845932E-3
751.811028E-3
751.523209E-3
751.321793E-3
750.837708E-3
750.373077E-3
749.920464E-3
749.439240E-3
749.095345E-3
748.352051E-3
747.837067E-3
747.451401E-3
746.953583E-3
746.529579E-3
746.119881E-3
745.859528E-3
745.486450E-3
745.351982E-3
745.104218E-3
744.984627E-3
744.904518E-3
744.742012E-3
744.580650E-3
744.517708E-3
744.430161E-3
744.425583E-3
744.433594E-3
744.303703E-3
744.198990E-3
744.023895E-3
743.837929E-3
743.843079E-3
743.627930E-3
743.590736E-3
743.399048E-3
743.334389E-3
743.166161E-3
743.021965E-3
742.930984E-3
742.764473E-3
742.541885E-3
742.368507E-3
742.077255E-3
741.895866E-3
741.608620E-3
741.543388E-3
741.505051E-3
741.230392E-3
741.198349E-3
740.884209E-3
740.689087E-3
740.168953E-3
739.986992E-3
739.845085E-3
739.520645E-3
739.405060E-3
739.288330E-3
739.231682E-3
739.536667E-3
740.185547E-3
741.666985E-3
744.490242E-3
747.786140E-3
751.405334E-3
754.888916E-3
757.847214E-3
760.153198E-3
761.320496E-3
761.832047E-3
761.405754E-3
760.337448E-3
758.811951E-3
757.067299E-3
755.356407E-3
753.650665E-3
752.338028E-3
751.440811E-3
750.545883E-3
750.066948E-3
749.974251E-3
750.010300E-3
750.143623E-3
750.155067E-3
750.153351E-3
749.627495E-3
749.078178E-3
748.471069E-3
748.157501E-3
747.876549E-3
747.795868E-3
748.020172E-3
748.493958E-3
748.955727E-3
749.553108E-3
749.914742E-3
750.204849E-3
750.316429E-3
750.086403E-3
749.907303E-3
749.538803E-3
749.097633E-3
748.699951E-3
748.131180E-3
747.611046E-3
747.019386E-3
746.383667E-3
745.836639E-3
745.180893E-3
744.558907E-3
743.962097E-3
743.700027E-3
743.436813E-3
743.197060E-3
743.170738E-3
742.996788E-3
742.876053E-3
742.829132E-3
742.633438E-3
742.458916E-3
742.304993E-3
742.056084E-3
741.812897E-3
741.742516E-3
741.846085E-3
741.813469E-3
741.727638E-3
741.676712E-3
741.456985E-3
741.357422E-3
741.225243E-3
741.282463E-3
741.071320E-3
740.761757E-3
740.704536E-3
740.480232E-3
740.291977E-3
740.198708E-3
739.978981E-3
739.869118E-3
739.744949E-3
739.567566E-3
739.326096E-3
739.190483E-3
739.069748E-3
738.788223E-3
738.457489E-3
738.216591E-3
737.934494E-3
737.666702E-3
737.365150E-3
737.347412E-3
737.369728E-3
737.605476E-3
738.584518E-3
740.536308E-3
743.428230E-3
746.905518E-3
750.629997E-3
754.396820E-3
757.516479E-3
760.049057E-3
761.719894E-3
762.252045E-3
762.207413E-3
761.299324E-3
759.811020E-3
758.458328E-3
756.605530E-3
755.182457E-3
753.807449E-3
752.810669E-3
752.194405E-3
751.773262E-3
751.723480E-3
751.709747E-3
751.944923E-3
752.178383E-3
752.055931E-3
752.002144E-3
751.529503E-3
750.932121E-3
