Notes :


2023-10-24 ¿ÀÈÄ 9:52:18
Volts
Ch : LED 2,
305.535507E-3
305.885124E-3
305.592728E-3
305.338097E-3
304.588509E-3
303.388596E-3
302.401543E-3
300.890923E-3
299.740791E-3
298.448181E-3
297.597885E-3
297.403336E-3
296.070099E-3
296.896362E-3
297.180748E-3
297.350121E-3
298.219299E-3
298.360062E-3
298.851585E-3
298.908234E-3
298.847580E-3
299.089622E-3
298.752022E-3
299.129677E-3
299.131393E-3
298.881912E-3
298.942566E-3
298.833847E-3
299.114799E-3
299.229813E-3
299.380302E-3
300.011444E-3
300.088692E-3
300.276375E-3
300.210571E-3
300.049210E-3
300.209999E-3
299.978828E-3
299.989700E-3
299.835777E-3
299.428368E-3
299.555969E-3
299.349403E-3
299.602890E-3
299.537086E-3
299.589729E-3
299.865532E-3
300.061798E-3
300.235748E-3
300.377083E-3
300.477791E-3
300.881767E-3
300.036621E-3
300.887489E-3
301.071739E-3
301.158142E-3
301.412773E-3
301.413918E-3
301.724625E-3
301.683998E-3
301.378441E-3
301.669121E-3
301.754379E-3
302.118874E-3
302.178383E-3
301.787567E-3
301.932335E-3
302.053070E-3
302.296257E-3
302.208710E-3
302.234459E-3
302.316856E-3
302.082253E-3
302.624702E-3
302.657890E-3
302.637291E-3
302.907372E-3
302.807808E-3
303.229523E-3
303.128815E-3
302.826118E-3
302.959442E-3
303.027534E-3
303.531647E-3
303.695297E-3
303.568840E-3
303.950500E-3
302.674484E-3
303.983688E-3
304.418564E-3
304.209137E-3
304.642868E-3
304.508400E-3
304.773903E-3
304.411697E-3
303.837204E-3
303.384590E-3
302.332306E-3
301.385880E-3
300.169373E-3
298.820114E-3
298.097992E-3
297.253418E-3
297.117805E-3
296.737289E-3
296.495247E-3
296.926689E-3
296.880341E-3
297.453117E-3
297.795296E-3
297.906876E-3
298.602676E-3
298.439026E-3
298.671341E-3
298.583794E-3
298.200417E-3
298.018456E-3
296.824837E-3
297.691727E-3
297.762108E-3
297.767258E-3
298.200417E-3
298.526001E-3
298.750877E-3
298.817825E-3
298.669052E-3
298.732567E-3
298.473930E-3
298.639297E-3
298.433876E-3
298.251915E-3
298.321152E-3
298.309708E-3
298.513412E-3
298.447609E-3
298.093414E-3
298.592377E-3
298.249054E-3
299.023247E-3
299.310493E-3
299.153709E-3
299.573135E-3
299.639511E-3
299.927330E-3
300.073814E-3
300.030899E-3
300.012589E-3
300.281525E-3
300.751305E-3
300.656319E-3
300.564766E-3
300.973892E-3
300.961876E-3
301.171875E-3
301.268005E-3
300.968170E-3
301.144409E-3
301.066017E-3
301.469994E-3
301.397324E-3
301.034546E-3
301.304626E-3
301.343536E-3
301.422501E-3
301.255989E-3
301.004791E-3
300.824547E-3
300.948715E-3
300.962448E-3
300.769043E-3
300.605965E-3
300.790787E-3
300.598526E-3
300.773048E-3
300.933838E-3
300.854874E-3
301.083183E-3
300.895500E-3
301.151848E-3
301.202202E-3
301.060295E-3
301.461411E-3
301.669693E-3
301.872826E-3
302.071381E-3
301.433372E-3
300.822830E-3
299.265289E-3
297.712898E-3
296.105003E-3
294.676208E-3
293.694305E-3
291.524506E-3
292.151642E-3
292.458916E-3
292.577362E-3
292.914391E-3
292.937279E-3
293.419075E-3
293.720627E-3
293.542671E-3
293.873978E-3
293.619919E-3
293.646240E-3
293.620491E-3
293.182755E-3
293.165016E-3
291.901588E-3
292.350769E-3
292.711830E-3
292.728424E-3
293.075180E-3
293.205643E-3
293.523216E-3
293.904877E-3
293.634224E-3
293.956947E-3
293.635368E-3
293.669701E-3
293.660545E-3
293.374443E-3
293.218231E-3
293.025398E-3
293.153000E-3
293.349838E-3
293.048859E-3
293.528366E-3
293.499184E-3
293.818474E-3
294.198418E-3
294.116020E-3
294.378662E-3
294.552612E-3
294.853592E-3
295.054436E-3
294.979477E-3
295.318222E-3
295.293617E-3
295.451546E-3
295.436668E-3
295.319939E-3
295.593452E-3
295.162582E-3
295.560837E-3
295.759964E-3
295.611191E-3
295.805168E-3
295.599747E-3
295.587158E-3
295.558548E-3
295.338249E-3
295.085907E-3
295.497322E-3
295.703316E-3
296.011162E-3
295.829773E-3
296.051788E-3
296.016312E-3
296.133041E-3
296.302986E-3
295.948792E-3
295.935631E-3
296.257782E-3
296.589661E-3
296.928978E-3
296.575928E-3
296.681786E-3
297.128677E-3
297.501183E-3
297.907448E-3
297.821045E-3
297.994423E-3
297.891998E-3
298.261642E-3
298.377228E-3
297.906876E-3
297.793579E-3
296.869469E-3
295.754814E-3
294.471931E-3
292.816544E-3
291.645813E-3
290.390396E-3
289.922905E-3
289.544106E-3
289.055443E-3
289.476585E-3
289.469147E-3
290.002441E-3
290.552330E-3
290.786362E-3
291.128540E-3
291.337967E-3
291.576576E-3
291.682434E-3
291.410637E-3
291.458702E-3
291.306496E-3
291.411781E-3
291.383743E-3
291.345978E-3
291.911316E-3
292.134476E-3
292.475510E-3
292.829132E-3
292.702675E-3
292.754173E-3
292.680931E-3
292.521858E-3
292.585373E-3
292.161942E-3
292.284393E-3
292.091560E-3
292.317581E-3
292.403984E-3
292.398834E-3
292.649460E-3
292.708969E-3
293.049431E-3
293.325233E-3
293.121529E-3
293.633652E-3
293.766975E-3
294.041634E-3
294.354057E-3
294.177818E-3
294.347191E-3
294.360352E-3
294.451332E-3
294.789505E-3
294.588661E-3
294.831276E-3
294.815826E-3
295.080757E-3
295.287895E-3
294.831848E-3
295.125389E-3
295.070457E-3
295.227814E-3
295.363426E-3
294.701958E-3
295.136833E-3
295.323944E-3
295.305061E-3
295.583725E-3
295.097923E-3
295.292473E-3
295.417213E-3
295.420074E-3
295.432663E-3
294.962883E-3
295.262146E-3
295.524216E-3
295.622063E-3
295.915031E-3
295.810318E-3
296.084404E-3
296.197128E-3
296.287537E-3
296.609688E-3
296.413994E-3
296.741867E-3
296.770477E-3
296.618271E-3
296.361351E-3
295.337677E-3
294.312859E-3
292.790222E-3
291.099358E-3
290.093422E-3
288.731575E-3
288.328743E-3
287.992859E-3
287.789726E-3
288.058662E-3
288.086128E-3
288.817978E-3
289.260292E-3
289.603043E-3
290.157509E-3
290.207863E-3
290.354919E-3
290.549469E-3
290.473366E-3
290.484238E-3
290.285110E-3
290.099144E-3
290.538025E-3
290.676498E-3
291.271019E-3
291.371727E-3
291.874695E-3
291.977119E-3
291.987419E-3
292.155647E-3
291.077042E-3
291.394615E-3
291.349411E-3
291.371155E-3
291.337395E-3
290.954590E-3
291.200066E-3
291.129684E-3
291.352272E-3
291.547394E-3
291.464424E-3
291.984558E-3
292.030907E-3
292.247200E-3
292.627716E-3
292.651749E-3
293.007660E-3
293.156433E-3
293.425941E-3
293.469429E-3
293.323517E-3
293.654251E-3
293.643379E-3
293.694878E-3
293.793297E-3
293.649673E-3
294.061089E-3
294.083977E-3
294.089127E-3
294.114876E-3
293.935204E-3
294.205856E-3
294.271660E-3
294.197845E-3
294.463348E-3
293.388748E-3
294.283104E-3
294.477081E-3
294.455338E-3
294.641304E-3
294.251060E-3
294.593811E-3
294.582939E-3
294.452477E-3
294.821548E-3
294.501686E-3
294.450760E-3
294.881058E-3
295.006371E-3
295.468712E-3
294.762039E-3
295.684433E-3
295.862389E-3
296.003723E-3
296.305847E-3
296.122742E-3
296.191978E-3
295.445824E-3
294.446182E-3
293.170738E-3
291.196060E-3
289.767838E-3
288.202286E-3
287.121964E-3
286.499405E-3
286.156654E-3
286.231041E-3
286.426163E-3
286.623001E-3
287.346840E-3
287.051010E-3
287.939072E-3
288.248062E-3
288.482094E-3
288.969040E-3
288.700676E-3
288.300705E-3
288.432884E-3
288.328171E-3
288.286972E-3
288.115883E-3
288.477516E-3
288.685226E-3
289.005661E-3
289.482880E-3
289.524651E-3
289.935493E-3
289.980125E-3
289.788437E-3
289.758682E-3
288.760757E-3
289.000511E-3
289.200783E-3
289.296913E-3
289.438820E-3
288.749313E-3
289.124680E-3
289.263153E-3
289.661980E-3
290.012169E-3
289.968681E-3
290.636444E-3
290.759468E-3
290.905380E-3
291.153145E-3
290.927696E-3
291.483307E-3
291.551971E-3
291.641808E-3
292.012024E-3
291.862106E-3
292.303848E-3
292.395973E-3
292.258072E-3
292.441177E-3
292.387390E-3
292.803955E-3
292.669487E-3
292.600822E-3
292.852020E-3
292.358780E-3
293.245125E-3
293.067169E-3
292.870331E-3
292.995644E-3
292.869759E-3
293.433952E-3
293.376160E-3
293.329239E-3
293.549538E-3
293.304634E-3
293.883705E-3
293.674278E-3
293.594742E-3
293.734360E-3
292.419434E-3
293.672562E-3
293.729782E-3
293.995857E-3
294.252777E-3
294.266510E-3
294.918251E-3
294.865608E-3
294.759750E-3
295.173454E-3
295.166588E-3
295.747948E-3
295.485306E-3
295.230675E-3
295.033836E-3
292.881775E-3
292.553902E-3
290.979767E-3
289.113808E-3
287.480164E-3
286.158943E-3
285.943794E-3
285.259438E-3
285.149002E-3
285.331535E-3
284.525299E-3
286.306572E-3
286.761475E-3
287.128258E-3
287.639809E-3
287.734795E-3
288.441467E-3
288.300133E-3
288.183403E-3
288.097572E-3
287.878418E-3
288.279533E-3
287.989998E-3
287.808037E-3
288.098717E-3
288.306427E-3
289.220238E-3
289.414215E-3
289.289474E-3
289.786148E-3
289.628792E-3
289.847374E-3
289.473724E-3
289.193916E-3
289.417648E-3
289.174461E-3
289.632225E-3
289.298630E-3
289.124107E-3
289.426231E-3
289.443398E-3
290.183258E-3
289.956665E-3
289.787865E-3
290.441322E-3
290.386391E-3
291.117668E-3
291.042137E-3
290.955734E-3
291.356850E-3
291.450119E-3
292.062378E-3
291.891289E-3
291.715622E-3
292.101288E-3
291.997719E-3
292.460060E-3
292.387390E-3
292.323303E-3
292.640305E-3
292.611694E-3
293.035126E-3
292.707253E-3
292.674637E-3
292.857742E-3
292.696381E-3
293.222809E-3
293.037987E-3
292.768478E-3
293.115807E-3
293.088341E-3
293.468285E-3
293.319511E-3
293.050575E-3
293.518639E-3
292.869759E-3
293.461990E-3
293.461990E-3
293.317795E-3
293.947220E-3
293.868828E-3
294.359779E-3
294.345474E-3
294.207001E-3
294.594383E-3
294.739151E-3
295.115662E-3
294.936562E-3
294.805527E-3
294.968605E-3
294.772911E-3
294.537735E-3
293.288612E-3
291.878700E-3
290.611267E-3
288.869476E-3
287.697601E-3
286.463356E-3
285.514641E-3
285.488892E-3
284.386253E-3
285.537529E-3
285.886002E-3
286.357498E-3
287.202072E-3
287.615204E-3
288.252068E-3
288.299561E-3
288.314438E-3
288.719559E-3
288.737869E-3
288.728714E-3
288.416862E-3
288.385391E-3
288.677216E-3
288.815689E-3
289.429092E-3
289.378738E-3
289.584160E-3
289.831924E-3
289.726067E-3
289.797592E-3
289.584160E-3
289.284897E-3
289.337540E-3
289.011955E-3
289.120102E-3
288.842583E-3
288.828278E-3
288.843155E-3
288.835716E-3
289.365005E-3
289.457130E-3
289.450264E-3
289.993858E-3
290.131187E-3
290.746307E-3
290.661621E-3
290.643883E-3
291.001511E-3
291.222382E-3
291.633224E-3
291.452980E-3
291.418076E-3
291.922188E-3
291.827202E-3
292.230606E-3
292.168808E-3
291.856956E-3
292.147636E-3
290.868187E-3
291.907883E-3
292.169380E-3
291.998863E-3
292.167091E-3
292.202568E-3
292.525864E-3
292.498970E-3
292.382240E-3
292.650032E-3
292.613983E-3
292.751884E-3
292.742157E-3
292.530441E-3
292.812538E-3
292.763901E-3
292.993355E-3
293.004227E-3
292.865181E-3
293.276024E-3
293.373299E-3
293.896866E-3
293.910599E-3
293.948936E-3
294.033623E-3
294.287682E-3
294.711113E-3
294.814110E-3
294.716835E-3
294.742584E-3
294.685936E-3
294.145203E-3
292.992783E-3
291.160011E-3
289.520073E-3
287.753105E-3
286.302567E-3
285.118103E-3
284.248924E-3
284.120178E-3
284.072113E-3
284.426308E-3
284.874916E-3
285.135269E-3
285.914612E-3
286.281395E-3
286.878204E-3
287.158012E-3
287.225533E-3
287.607765E-3
287.487030E-3
287.512207E-3
287.314796E-3
287.182045E-3
286.990356E-3
287.151146E-3
287.731934E-3
288.004303E-3
288.242912E-3
288.658333E-3
288.059235E-3
288.882637E-3
288.860321E-3
288.677216E-3
288.611412E-3
288.453484E-3
288.592529E-3
288.356781E-3
288.126755E-3
288.369370E-3
288.372231E-3
288.806534E-3
288.987350E-3
288.814545E-3
289.023399E-3
289.387894E-3
289.861679E-3
290.079689E-3
290.098572E-3
290.726280E-3
290.844727E-3
291.084480E-3
291.228104E-3
291.170883E-3
291.558266E-3
291.559982E-3
291.876984E-3
291.837502E-3
291.738510E-3
291.791153E-3
291.491890E-3
291.983986E-3
292.067528E-3
291.935921E-3
292.358780E-3
290.864182E-3
292.116737E-3
292.411995E-3
292.274094E-3
292.603111E-3
291.572571E-3
292.474937E-3
292.581940E-3
292.374229E-3
292.630577E-3
292.632294E-3
293.027687E-3
292.929268E-3
292.845726E-3
292.947578E-3
293.004227E-3
293.218231E-3
293.295479E-3
293.167877E-3
293.611336E-3
293.062019E-3
293.750954E-3
294.009018E-3
294.136620E-3
294.603539E-3
294.642448E-3
294.898796E-3
294.863892E-3
294.660187E-3
294.424438E-3
292.445183E-3
291.858101E-3
290.299988E-3
288.363647E-3
286.992073E-3
285.587883E-3
284.642601E-3
284.069252E-3
283.731651E-3
283.962250E-3
283.276176E-3
284.635162E-3
285.321808E-3
285.770416E-3
286.411285E-3
286.822701E-3
287.107658E-3
287.247849E-3
287.109947E-3
287.275314E-3
287.140846E-3
287.100792E-3
286.958885E-3
286.787796E-3
287.120247E-3
287.482452E-3
287.885284E-3
288.166809E-3
288.182259E-3
288.130760E-3
288.373375E-3
288.613701E-3
288.461494E-3
288.179398E-3
288.205719E-3
288.054657E-3
288.128471E-3
288.143921E-3
288.072968E-3
288.148499E-3
288.332176E-3
288.677216E-3
288.741302E-3
288.640594E-3
289.103508E-3
288.935852E-3
289.343834E-3
289.533234E-3
289.426231E-3
289.881134E-3
289.947510E-3
290.295982E-3
290.468216E-3
290.398979E-3
290.846443E-3
290.871620E-3
291.053009E-3
291.141129E-3
290.945435E-3
291.283607E-3
291.088486E-3
291.293335E-3
291.439819E-3
291.289330E-3
291.532516E-3
291.513062E-3
291.621780E-3
291.748238E-3
291.668701E-3
291.933060E-3
291.749382E-3
291.993141E-3
292.096138E-3
291.897583E-3
292.274666E-3
292.219734E-3
292.361069E-3
292.528152E-3
292.314148E-3
292.392540E-3
292.389679E-3
292.661476E-3
292.963600E-3
292.884064E-3
293.290329E-3
293.207359E-3
293.452263E-3
293.698883E-3
293.838501E-3
294.230461E-3
294.198418E-3
294.389534E-3
294.505692E-3
294.242477E-3
294.362068E-3
293.376732E-3
292.812538E-3
291.406059E-3
289.770126E-3
288.039780E-3
286.414719E-3
285.405350E-3
284.827423E-3
284.242058E-3
284.489822E-3
284.534454E-3
284.995079E-3
285.664558E-3
285.983276E-3
286.677933E-3
286.842155E-3
287.400055E-3
287.818336E-3
287.630653E-3
287.858963E-3
287.797737E-3
287.763405E-3
287.869263E-3
287.631798E-3
287.976265E-3
288.169670E-3
288.546753E-3
288.958168E-3
288.862038E-3
289.061737E-3
288.951302E-3
288.972473E-3
288.769913E-3
288.367081E-3
288.381386E-3
288.241196E-3
288.184547E-3
288.332748E-3
288.052940E-3
288.383675E-3
288.483810E-3
288.713837E-3
288.979912E-3
288.807106E-3
289.394760E-3
289.746094E-3
289.946365E-3
290.233612E-3
290.233612E-3
290.536308E-3
290.575790E-3
290.644455E-3
291.037560E-3
290.822983E-3
291.079330E-3
291.034698E-3
291.300201E-3
291.458702E-3
291.054153E-3
291.466713E-3
291.363144E-3
291.574287E-3
291.569710E-3
291.358566E-3
291.514778E-3
291.477585E-3
291.550255E-3
291.843224E-3
291.605186E-3
291.883278E-3
291.746521E-3
291.737938E-3
291.824341E-3
291.685295E-3
291.947365E-3
291.867828E-3
291.836929E-3
292.104149E-3
291.802025E-3
292.131615E-3
292.119026E-3
292.495537E-3
292.818832E-3
292.649460E-3
293.050575E-3
292.944145E-3
293.327522E-3
293.483162E-3
293.486595E-3
293.538666E-3
293.494034E-3
293.243408E-3
292.658043E-3
291.007233E-3
289.546394E-3
287.517929E-3
286.138344E-3
284.809685E-3
283.555984E-3
283.192635E-3
282.909393E-3
283.161736E-3
283.733368E-3
283.931923E-3
284.664917E-3
284.920120E-3
285.631371E-3
286.222458E-3
286.100006E-3
