Notes :


2023-10-30 ¿ÀÈÄ 11:22:09
Volts
Ch : LED 2,
474.581337E-3
469.004631E-3
465.440941E-3
462.499809E-3
461.944771E-3
461.964226E-3
462.429428E-3
464.805222E-3
466.433144E-3
468.768311E-3
470.911789E-3
472.305107E-3
474.488640E-3
474.761009E-3
475.587845E-3
475.773239E-3
475.190163E-3
475.698280E-3
474.742126E-3
474.715233E-3
474.981880E-3
475.168419E-3
476.928520E-3
477.642059E-3
478.813934E-3
479.680252E-3
479.523468E-3
480.487633E-3
479.643631E-3
479.666519E-3
479.140663E-3
478.325272E-3
478.899765E-3
478.055763E-3
478.461456E-3
478.982735E-3
478.790474E-3
480.204964E-3
480.289078E-3
481.298447E-3
482.167053E-3
482.710648E-3
484.324837E-3
484.562302E-3
485.241508E-3
486.139870E-3
486.493492E-3
487.734032E-3
487.572098E-3
488.083649E-3
488.702774E-3
488.454437E-3
489.270973E-3
488.858414E-3
489.115906E-3
489.525604E-3
488.727951E-3
490.045166E-3
489.601135E-3
490.049744E-3
490.628242E-3
490.033150E-3
491.092300E-3
490.457153E-3
490.766144E-3
490.989304E-3
490.908623E-3
492.023277E-3
491.536331E-3
491.629028E-3
492.169762E-3
491.788101E-3
492.905617E-3
492.423248E-3
492.665863E-3
493.328476E-3
493.191719E-3
494.199944E-3
493.809128E-3
494.586754E-3
495.276260E-3
495.158958E-3
496.372604E-3
496.055031E-3
496.853256E-3
497.546768E-3
497.373962E-3
497.950172E-3
496.334267E-3
494.223404E-3
490.738106E-3
485.206032E-3
480.132294E-3
473.415184E-3
468.984604E-3
465.329933E-3
462.507248E-3
462.293816E-3
461.924171E-3
463.267136E-3
465.165138E-3
466.724968E-3
469.462395E-3
470.919800E-3
472.635269E-3
473.977661E-3
474.261475E-3
475.580406E-3
475.008202E-3
475.095749E-3
475.012779E-3
474.406242E-3
474.874878E-3
474.583054E-3
475.301170E-3
476.499939E-3
477.194023E-3
478.839111E-3
478.951836E-3
478.979874E-3
479.184151E-3
478.799629E-3
479.226494E-3
478.226852E-3
477.803421E-3
477.826309E-3
477.342796E-3
478.088379E-3
477.864075E-3
478.411674E-3
479.277420E-3
479.719162E-3
481.171417E-3
481.484985E-3
482.321548E-3
483.340645E-3
483.658218E-3
484.814072E-3
484.601212E-3
485.017776E-3
485.905266E-3
485.884666E-3
486.946106E-3
486.694336E-3
486.838531E-3
487.360954E-3
487.054253E-3
487.905121E-3
487.822723E-3
487.942314E-3
488.329124E-3
487.957191E-3
488.657570E-3
488.409805E-3
488.378334E-3
489.035225E-3
488.746262E-3
489.436913E-3
489.218903E-3
489.222336E-3
489.507294E-3
489.370537E-3
490.112686E-3
490.017700E-3
489.884377E-3
490.486908E-3
489.573097E-3
490.977287E-3
491.028214E-3
491.496849E-3
492.354584E-3
492.045021E-3
493.150520E-3
493.133354E-3
493.547058E-3
494.454575E-3
494.301796E-3
495.226479E-3
495.070839E-3
494.890594E-3
494.836807E-3
492.705917E-3
490.282059E-3
485.114479E-3
479.749489E-3
474.636269E-3
468.344879E-3
465.295029E-3
462.775612E-3
461.698723E-3
462.253761E-3
462.535858E-3
464.761162E-3
466.812515E-3
468.832397E-3
471.422768E-3
472.421837E-3
474.324989E-3
475.320625E-3
475.680542E-3
476.450729E-3
475.588989E-3
475.690269E-3
475.557518E-3
475.444794E-3
476.602364E-3
476.908493E-3
478.489494E-3
479.263687E-3
479.526901E-3
480.036163E-3
479.305458E-3
479.348373E-3
478.401947E-3
477.517891E-3
477.573967E-3
476.408386E-3
476.800346E-3
476.931953E-3
477.182007E-3
477.805138E-3
477.775383E-3
479.195595E-3
479.780960E-3
480.373192E-3
481.731033E-3
481.809998E-3
483.174133E-3
483.904839E-3
484.075928E-3
485.081863E-3
485.099030E-3
486.112976E-3
486.230850E-3
486.281776E-3
486.792183E-3
486.195374E-3
487.251091E-3
487.271690E-3
486.946678E-3
487.399292E-3
486.868858E-3
487.859917E-3
487.909126E-3
487.597847E-3
488.133430E-3
487.700272E-3
488.558578E-3
488.504219E-3
488.195229E-3
488.836670E-3
488.189507E-3
489.192581E-3
489.027214E-3
489.058113E-3
489.672661E-3
489.273262E-3
490.381622E-3
490.647697E-3
490.568733E-3
491.658211E-3
491.693115E-3
492.874718E-3
493.343925E-3
493.576813E-3
494.403648E-3
494.299507E-3
494.955826E-3
494.581032E-3
492.969704E-3
490.784454E-3
486.051178E-3
481.535339E-3
475.618744E-3
469.933891E-3
465.720749E-3
462.561607E-3
461.678696E-3
461.095619E-3
461.524200E-3
462.895775E-3
464.162636E-3
466.848564E-3
468.794632E-3
470.222855E-3
472.073364E-3
472.580910E-3
473.832321E-3
474.090385E-3
473.782539E-3
473.925018E-3
473.309898E-3
473.844337E-3
473.689270E-3
474.000549E-3
475.473976E-3
476.173782E-3
477.555084E-3
478.302383E-3
478.077507E-3
478.448296E-3
477.671242E-3
477.696419E-3
477.289581E-3
476.477051E-3
476.588058E-3
476.024437E-3
476.743126E-3
477.041245E-3
477.006912E-3
478.026581E-3
478.441429E-3
479.759789E-3
480.620384E-3
481.011200E-3
482.318115E-3
482.599068E-3
483.456802E-3
484.130859E-3
484.462738E-3
485.321045E-3
485.446358E-3
486.071205E-3
486.591911E-3
486.340714E-3
487.071991E-3
486.838531E-3
487.414742E-3
487.655067E-3
486.709785E-3
487.561226E-3
487.410736E-3
487.691116E-3
488.166618E-3
487.454224E-3
488.405800E-3
488.183784E-3
488.927078E-3
488.983154E-3
488.755989E-3
489.236641E-3
488.896179E-3
489.602280E-3
489.696693E-3
489.385414E-3
490.149307E-3
490.202522E-3
490.629387E-3
491.293716E-3
491.218185E-3
492.422676E-3
492.458725E-3
493.429184E-3
493.595123E-3
493.516731E-3
494.798470E-3
494.587898E-3
494.869423E-3
494.449425E-3
492.268753E-3
489.677238E-3
484.449005E-3
479.195023E-3
473.683548E-3
468.137169E-3
464.902496E-3
461.286736E-3
460.202980E-3
460.118294E-3
460.658455E-3
462.715530E-3
464.095688E-3
466.263771E-3
468.233299E-3
469.449234E-3
471.247101E-3
471.515465E-3
471.920013E-3
472.344017E-3
471.871948E-3
472.210693E-3
471.239662E-3
471.449661E-3
471.667099E-3
471.842766E-3
473.845482E-3
474.462891E-3
475.623894E-3
476.782036E-3
476.965141E-3
477.788544E-3
476.768875E-3
476.340866E-3
476.515961E-3
475.566101E-3
476.237297E-3
475.517464E-3
475.766945E-3
476.538849E-3
476.503372E-3
477.852058E-3
477.900696E-3
478.634262E-3
479.534912E-3
479.936028E-3
481.285286E-3
481.377411E-3
482.287788E-3
482.873154E-3
483.183861E-3
484.459305E-3
484.232140E-3
484.608078E-3
485.202599E-3
484.934235E-3
486.139297E-3
485.386848E-3
485.721588E-3
485.884094E-3
485.841751E-3
486.668015E-3
485.824013E-3
486.204529E-3
486.600494E-3
486.153030E-3
487.142944E-3
486.577606E-3
486.771584E-3
487.123489E-3
487.076569E-3
488.013840E-3
487.455940E-3
487.669945E-3
488.282776E-3
487.830734E-3
488.738251E-3
488.281059E-3
488.754845E-3
489.456367E-3
489.668655E-3
490.813637E-3
490.506363E-3
491.011620E-3
491.674232E-3
491.506004E-3
492.844391E-3
492.577744E-3
492.992020E-3
493.415451E-3
492.602348E-3
492.166328E-3
488.955116E-3
485.046387E-3
480.024147E-3
474.064064E-3
469.525337E-3
464.747429E-3
461.880684E-3
460.581207E-3
459.911728E-3
461.267281E-3
462.245178E-3
464.272499E-3
466.552734E-3
468.286514E-3
470.552444E-3
471.298027E-3
472.469330E-3
473.202324E-3
472.871017E-3
473.628616E-3
472.766876E-3
472.484779E-3
472.959137E-3
472.952843E-3
474.407387E-3
475.074005E-3
476.275063E-3
477.219772E-3
477.100754E-3
477.807426E-3
476.833534E-3
476.273918E-3
476.063919E-3
475.087166E-3
475.290298E-3
474.769592E-3
474.751282E-3
475.288582E-3
474.783325E-3
476.581192E-3
476.946831E-3
477.691269E-3
478.949547E-3
479.134369E-3
480.551147E-3
480.919075E-3
481.494141E-3
482.460022E-3
481.853485E-3
483.370399E-3
483.477974E-3
483.860779E-3
484.415817E-3
483.324051E-3
484.503937E-3
484.456444E-3
484.342003E-3
484.874725E-3
484.628105E-3
485.454941E-3
485.060120E-3
485.253525E-3
485.810280E-3
485.414886E-3
486.201096E-3
486.098099E-3
485.920143E-3
486.445427E-3
485.930443E-3
486.613655E-3
486.533546E-3
486.780739E-3
487.245941E-3
486.783600E-3
487.656212E-3
487.834740E-3
488.101387E-3
489.175415E-3
488.813210E-3
489.857483E-3
490.093231E-3
490.402222E-3
491.176414E-3
490.993309E-3
492.024422E-3
491.970634E-3
491.643333E-3
491.336060E-3
488.926506E-3
486.161041E-3
481.242371E-3
475.895691E-3
470.784760E-3
465.366554E-3
462.404823E-3
460.246468E-3
459.257698E-3
459.659386E-3
460.166359E-3
462.353897E-3
464.214134E-3
466.071510E-3
468.085670E-3
469.079018E-3
470.975304E-3
471.479416E-3
471.513176E-3
471.754646E-3
471.081161E-3
471.625900E-3
471.391869E-3
471.307755E-3
472.160912E-3
472.465324E-3
474.573326E-3
475.331497E-3
475.828743E-3
476.653290E-3
476.224136E-3
476.447868E-3
475.553513E-3
474.599648E-3
474.676323E-3
473.729897E-3
474.267769E-3
474.158478E-3
474.353600E-3
475.313187E-3
475.540352E-3
477.113914E-3
477.736473E-3
477.989960E-3
479.418182E-3
479.731750E-3
481.167984E-3
481.626320E-3
481.800842E-3
482.863426E-3
482.529259E-3
483.982086E-3
484.007263E-3
484.045029E-3
484.716225E-3
484.569168E-3
485.210037E-3
485.219765E-3
484.883881E-3
485.206604E-3
484.895325E-3
485.708427E-3
485.980225E-3
485.401726E-3
485.885239E-3
485.861778E-3
486.720657E-3
486.860275E-3
486.876297E-3
487.307739E-3
487.135506E-3
487.616158E-3
487.749481E-3
487.548065E-3
487.986374E-3
487.895966E-3
488.643837E-3
488.868141E-3
488.757706E-3
489.672089E-3
489.627457E-3
490.728378E-3
491.141510E-3
491.131210E-3
492.107964E-3
492.114830E-3
493.119621E-3
493.180275E-3
492.961121E-3
492.689323E-3
490.791321E-3
488.183784E-3
483.485413E-3
477.921867E-3
472.769165E-3
467.012215E-3
463.338661E-3
460.382652E-3
458.490372E-3
458.536148E-3
458.526421E-3
460.312843E-3
462.403107E-3
463.822174E-3
465.499878E-3
466.837120E-3
468.601227E-3
469.208336E-3
469.244957E-3
469.850922E-3
468.941116E-3
468.989754E-3
468.810081E-3
468.455315E-3
469.013214E-3
469.121933E-3
470.703506E-3
472.122574E-3
472.705078E-3
474.266052E-3
474.354172E-3
474.954414E-3
475.151825E-3
474.283218E-3
474.280357E-3
473.448372E-3
473.746490E-3
473.661232E-3
473.377991E-3
474.145889E-3
474.319839E-3
475.405884E-3
476.344872E-3
476.640129E-3
478.005981E-3
478.278923E-3
479.279709E-3
480.027580E-3
480.306244E-3
481.656075E-3
481.452370E-3
482.151604E-3
482.575607E-3
482.263184E-3
483.465958E-3
483.205032E-3
483.559227E-3
483.744621E-3
482.831955E-3
484.346581E-3
484.150314E-3
484.887314E-3
484.857559E-3
484.452438E-3
485.413742E-3
484.966278E-3
485.331345E-3
485.699844E-3
485.350227E-3
486.322403E-3
485.822296E-3
486.165619E-3
486.816788E-3
486.673164E-3
487.487984E-3
487.137794E-3
487.387276E-3
487.576675E-3
487.438202E-3
488.672447E-3
488.133430E-3
488.545418E-3
489.352798E-3
489.163971E-3
490.512657E-3
490.305519E-3
490.726089E-3
491.511154E-3
491.568947E-3
492.530823E-3
491.781807E-3
492.117119E-3
492.011261E-3
490.256882E-3
488.538551E-3
483.702850E-3
478.737259E-3
473.701286E-3
468.129158E-3
464.626694E-3
460.856438E-3
459.223938E-3
459.172440E-3
459.467697E-3
461.440086E-3
462.388229E-3
464.561462E-3
466.734695E-3
467.987823E-3
470.132446E-3
470.249748E-3
471.200180E-3
471.364403E-3
471.031952E-3
471.307755E-3
470.368195E-3
470.273209E-3
470.973587E-3
471.337509E-3
473.026085E-3
473.500443E-3
474.643135E-3
475.359535E-3
475.302315E-3
475.847626E-3
474.858856E-3
474.273491E-3
474.034309E-3
473.337364E-3
473.650932E-3
473.094177E-3
473.255539E-3
473.950768E-3
474.401093E-3
475.824165E-3
476.225853E-3
476.984596E-3
478.071785E-3
478.460884E-3
479.775238E-3
479.831886E-3
480.465317E-3
481.375122E-3
480.895615E-3
482.094955E-3
482.065773E-3
482.362175E-3
483.120918E-3
482.213402E-3
483.569527E-3
483.253098E-3
483.326912E-3
483.892250E-3
483.508301E-3
484.342003E-3
483.733177E-3
483.949471E-3
484.253883E-3
483.959770E-3
484.917068E-3
484.621811E-3
484.815216E-3
485.022926E-3
484.872437E-3
485.689545E-3
485.231209E-3
485.342789E-3
485.931587E-3
485.253525E-3
486.532974E-3
486.419678E-3
486.681747E-3
487.386131E-3
486.682892E-3
488.201523E-3
488.461304E-3
488.785172E-3
489.417458E-3
489.377403E-3
490.589905E-3
490.481758E-3
490.577888E-3
491.007042E-3
490.047455E-3
489.803123E-3
486.839676E-3
482.690048E-3
478.125572E-3
472.044754E-3
467.606735E-3
462.627983E-3
459.909439E-3
458.680916E-3
457.915306E-3
459.064865E-3
459.954643E-3
461.355400E-3
463.829613E-3
465.161705E-3
467.288017E-3
468.202972E-3
469.200325E-3
470.064354E-3
468.889046E-3
469.709015E-3
469.369698E-3
469.069862E-3
469.586563E-3
469.403458E-3
470.767021E-3
471.734619E-3
472.770309E-3
474.367905E-3
474.227715E-3
474.995041E-3
474.599648E-3
473.835182E-3
473.925591E-3
472.558022E-3
472.711372E-3
472.465897E-3
472.089386E-3
472.766304E-3
472.809219E-3
474.100685E-3
474.631119E-3
475.050545E-3
476.264763E-3
476.696777E-3
478.122139E-3
478.767014E-3
479.319191E-3
480.378342E-3
480.362320E-3
481.558800E-3
481.776810E-3
482.084656E-3
482.801628E-3
482.679176E-3
483.330345E-3
483.338928E-3
483.137512E-3
483.528900E-3
483.225632E-3
483.989525E-3
483.944893E-3
483.923149E-3
484.521103E-3
484.014702E-3
484.911919E-3
485.068130E-3
485.108757E-3
485.575104E-3
485.054398E-3
486.124992E-3
486.114120E-3
486.094093E-3
486.801338E-3
486.333275E-3
487.132645E-3
487.199020E-3
487.130928E-3
487.833595E-3
487.398720E-3
488.243294E-3
488.416672E-3
488.556290E-3
489.368248E-3
488.909912E-3
490.097237E-3
490.409660E-3
490.645409E-3
491.619301E-3
491.172409E-3
492.424393E-3
492.703629E-3
492.282486E-3
492.157173E-3
489.253235E-3
486.128998E-3
480.998039E-3
474.987030E-3
469.655800E-3
464.109421E-3
460.932541E-3
458.700943E-3
457.324219E-3
457.264709E-3
458.074379E-3
460.316849E-3
461.808586E-3
463.295174E-3
465.495872E-3
466.319275E-3
467.904854E-3
468.426704E-3
468.278503E-3
468.457603E-3
467.573547E-3
467.773247E-3
467.670822E-3
467.241096E-3
467.276573E-3
467.847061E-3
469.815445E-3
471.077156E-3
471.850777E-3
473.133659E-3
473.234940E-3
473.771667E-3
473.431206E-3
473.020935E-3
473.175430E-3
472.254753E-3
472.495079E-3
472.811508E-3
472.503662E-3
473.269272E-3
473.048973E-3
474.089813E-3
475.041962E-3
475.515175E-3
476.720810E-3
476.947975E-3
478.174210E-3
478.962708E-3
478.875732E-3
480.154037E-3
480.244446E-3
481.199455E-3
481.738472E-3
481.736183E-3
482.432556E-3
482.179642E-3
482.922363E-3
483.322906E-3
482.688904E-3
483.606148E-3
483.384705E-3
483.951187E-3
484.217834E-3
483.956909E-3
484.552002E-3
484.386063E-3
484.866714E-3
484.964561E-3
484.743118E-3
485.492706E-3
485.207748E-3
485.601997E-3
486.079216E-3
485.811424E-3
486.664581E-3
486.494637E-3
487.201881E-3
487.235641E-3
487.008476E-3
487.592697E-3
487.167549E-3
487.939453E-3
488.313103E-3
488.432121E-3
489.252663E-3
489.014053E-3
490.021133E-3
490.244865E-3
489.854622E-3
491.102600E-3
491.173553E-3
491.970634E-3
491.879082E-3
491.457367E-3
491.696548E-3
490.089226E-3
487.859344E-3
483.485413E-3
477.858353E-3
473.134232E-3
467.413902E-3
463.349533E-3
460.188675E-3
458.143616E-3
458.309555E-3
458.250618E-3
459.638214E-3
461.310196E-3
462.751007E-3
465.315628E-3
466.438866E-3
467.942619E-3
468.819237E-3
468.915939E-3
469.947052E-3
469.132233E-3
469.397163E-3
