Notes :


2023-10-22 ¿ÀÀü 9:50:43
Volts
Ch : LED 2,
242.844200E-3
237.482071E-3
241.155624E-3
240.705299E-3
239.180946E-3
244.030380E-3
238.143539E-3
241.635704E-3
239.949417E-3
234.956360E-3
239.994049E-3
233.140182E-3
234.777832E-3
232.600021E-3
229.216576E-3
233.151627E-3
225.972748E-3
229.293251E-3
227.995491E-3
226.519203E-3
231.864166E-3
226.463127E-3
230.907440E-3
230.248260E-3
229.195404E-3
234.041977E-3
228.939056E-3
232.810020E-3
231.999207E-3
230.386734E-3
235.398102E-3
229.367638E-3
233.414268E-3
233.267212E-3
231.540298E-3
236.596870E-3
231.186676E-3
235.765457E-3
235.346031E-3
233.344460E-3
237.471771E-3
231.810379E-3
234.786415E-3
233.784485E-3
232.041550E-3
236.590004E-3
230.543518E-3
234.094048E-3
233.525276E-3
231.872749E-3
236.910439E-3
231.212997E-3
235.193253E-3
234.909439E-3
233.346748E-3
238.198471E-3
232.685852E-3
236.706161E-3
236.148834E-3
234.875107E-3
239.793777E-3
234.536362E-3
238.237953E-3
237.244606E-3
235.681915E-3
240.170288E-3
234.308052E-3
238.265419E-3
237.650299E-3
236.325073E-3
241.597939E-3
235.630417E-3
238.965225E-3
238.343811E-3
237.062645E-3
242.129517E-3
235.696220E-3
238.990974E-3
238.823891E-3
237.361336E-3
242.076874E-3
236.107063E-3
239.297676E-3
238.627625E-3
237.287521E-3
242.106628E-3
236.083603E-3
240.285301E-3
239.161491E-3
237.995911E-3
242.880821E-3
237.478065E-3
241.311264E-3
241.066933E-3
239.583206E-3
244.719315E-3
239.021873E-3
242.558098E-3
240.951347E-3
239.255905E-3
242.789268E-3
235.782051E-3
236.278725E-3
234.214783E-3
231.410980E-3
233.967018E-3
227.178383E-3
229.732132E-3
228.481293E-3
226.551247E-3
231.410980E-3
226.132965E-3
229.627991E-3
230.161285E-3
229.254913E-3
234.843636E-3
229.424286E-3
232.541656E-3
232.606888E-3
230.932045E-3
235.738564E-3
230.399323E-3
233.827972E-3
232.752800E-3
232.030678E-3
236.527634E-3
230.917740E-3
235.529709E-3
235.162926E-3
233.695221E-3
238.391876E-3
233.225441E-3
236.385155E-3
234.807014E-3
232.237816E-3
237.568474E-3
231.805801E-3
235.704231E-3
234.139824E-3
231.936264E-3
236.818886E-3
231.532288E-3
234.593010E-3
234.059143E-3
232.762527E-3
238.053703E-3
232.800865E-3
236.196899E-3
236.026955E-3
234.461975E-3
239.028168E-3
233.742142E-3
238.292885E-3
237.630844E-3
235.749435E-3
240.840340E-3
235.248184E-3
238.965225E-3
238.538933E-3
236.794853E-3
241.754150E-3
235.804939E-3
239.394379E-3
238.722038E-3
236.917877E-3
241.393089E-3
236.610603E-3
240.030670E-3
239.368057E-3
237.472343E-3
242.067719E-3
236.672401E-3
239.968872E-3
239.640999E-3
237.761307E-3
242.679977E-3
237.343025E-3
240.040970E-3
239.686203E-3
238.059425E-3
243.162918E-3
237.765312E-3
240.974808E-3
239.951706E-3
236.985397E-3
242.837334E-3
238.410187E-3
241.167641E-3
240.852356E-3
237.771034E-3
243.331718E-3
236.807442E-3
239.095688E-3
236.801147E-3
233.341026E-3
236.527061E-3
229.111290E-3
230.353546E-3
229.100990E-3
226.667976E-3
231.414413E-3
226.227379E-3
229.515266E-3
229.210281E-3
228.372574E-3
233.266068E-3
228.619766E-3
231.679344E-3
231.768036E-3
228.798294E-3
235.328293E-3
230.347824E-3
233.763313E-3
232.743073E-3
231.588364E-3
236.604881E-3
231.461906E-3
235.069656E-3
234.794426E-3
233.538437E-3
238.436508E-3
233.616829E-3
236.338806E-3
235.340309E-3
233.185387E-3
237.606239E-3
232.018089E-3
234.634781E-3
233.560181E-3
231.611252E-3
236.265564E-3
231.576347E-3
234.118652E-3
233.736420E-3
232.252693E-3
237.673187E-3
232.868958E-3
236.454391E-3
236.090469E-3
231.889343E-3
239.181519E-3
234.420776E-3
237.629128E-3
237.215996E-3
235.807800E-3
240.895844E-3
235.747147E-3
239.084816E-3
239.194107E-3
237.560463E-3
242.810440E-3
237.037468E-3
239.943123E-3
238.817024E-3
237.817955E-3
242.514038E-3
237.199974E-3
240.079880E-3
239.397240E-3
236.218071E-3
241.913795E-3
237.066650E-3
240.468979E-3
239.536285E-3
237.848282E-3
243.073654E-3
237.545013E-3
240.973663E-3
240.275002E-3
238.453674E-3
243.517113E-3
238.601303E-3
242.090034E-3
241.426849E-3
240.186310E-3
244.517899E-3
239.369202E-3
241.252327E-3
239.779472E-3
236.585426E-3
239.230156E-3
232.027245E-3
233.373642E-3
231.099701E-3
228.263283E-3
232.406616E-3
226.322365E-3
228.548241E-3
228.514481E-3
227.439308E-3
233.207703E-3
228.171158E-3
231.385231E-3
231.908798E-3
230.165291E-3
236.197472E-3
230.688858E-3
233.414841E-3
232.965660E-3
231.212997E-3
236.615753E-3
231.548309E-3
234.309769E-3
234.272575E-3
232.762527E-3
239.416695E-3
233.759880E-3
236.654091E-3
236.315346E-3
233.695793E-3
238.989258E-3
233.196259E-3
235.389519E-3
234.134102E-3
232.456970E-3
237.214279E-3
231.479645E-3
234.446526E-3
234.213638E-3
232.394028E-3
237.789345E-3
232.541084E-3
234.748077E-3
235.506248E-3
233.766174E-3
239.428711E-3
234.368706E-3
236.971092E-3
237.192535E-3
235.479927E-3
241.203117E-3
235.675621E-3
238.935471E-3
238.725471E-3
236.846352E-3
242.012215E-3
236.619186E-3
239.827538E-3
239.659309E-3
237.566185E-3
242.499161E-3
237.475204E-3
239.819527E-3
239.468193E-3
235.672188E-3
241.806221E-3
236.740494E-3
239.373779E-3
239.578056E-3
237.727547E-3
243.154335E-3
237.807083E-3
240.365410E-3
240.601158E-3
238.303757E-3
243.226433E-3
238.088608E-3
241.098404E-3
241.404533E-3
239.013863E-3
244.394302E-3
239.392090E-3
242.135239E-3
241.811371E-3
240.103912E-3
245.213127E-3
238.898277E-3
240.118217E-3
238.741493E-3
234.272575E-3
237.513542E-3
229.888916E-3
230.730057E-3
229.514694E-3
226.811600E-3
231.362343E-3
225.429726E-3
228.501892E-3
228.457260E-3
226.946068E-3
232.597733E-3
227.976036E-3
231.422424E-3
232.023811E-3
229.886627E-3
235.737991E-3
230.213928E-3
233.030891E-3
232.426071E-3
230.752373E-3
235.963440E-3
230.528069E-3
233.247185E-3
233.834839E-3
232.791138E-3
238.700294E-3
232.609749E-3
235.715103E-3
235.757446E-3
233.567047E-3
238.315201E-3
232.309914E-3
234.548378E-3
234.544945E-3
231.865883E-3
237.685776E-3
232.033539E-3
234.529495E-3
233.492661E-3
231.803513E-3
237.001419E-3
231.750298E-3
234.114075E-3
234.995842E-3
233.489799E-3
238.996124E-3
234.484291E-3
236.663818E-3
237.267494E-3
235.041046E-3
240.151978E-3
234.732628E-3
237.698936E-3
237.773895E-3
235.706520E-3
240.872955E-3
236.569405E-3
239.499092E-3
238.854790E-3
236.034393E-3
241.481209E-3
236.172867E-3
238.455391E-3
238.759804E-3
236.362839E-3
242.116356E-3
237.559319E-3
239.786911E-3
239.631844E-3
237.611961E-3
242.935753E-3
238.390732E-3
240.202332E-3
240.946770E-3
238.023376E-3
243.153191E-3
238.632774E-3
241.085815E-3
241.868591E-3
239.065933E-3
243.380928E-3
239.284515E-3
241.977310E-3
242.576981E-3
240.371704E-3
245.068932E-3
240.404892E-3
242.880249E-3
243.186951E-3
239.260483E-3
242.666817E-3
236.893845E-3
236.491013E-3
235.854721E-3
230.900574E-3
234.136963E-3
228.431511E-3
229.380226E-3
229.774475E-3
227.729416E-3
232.622910E-3
228.608894E-3
230.600166E-3
231.801224E-3
230.331230E-3
235.618401E-3
231.753159E-3
233.888626E-3
233.680916E-3
232.385445E-3
237.684631E-3
232.818031E-3
234.960937E-3
235.311699E-3
233.436584E-3
238.311768E-3
233.902359E-3
236.127090E-3
237.286949E-3
235.177231E-3
239.776039E-3
234.865379E-3
236.401749E-3
236.537361E-3
233.886909E-3
238.035965E-3
233.108711E-3
234.354401E-3
234.727478E-3
232.472992E-3
237.480927E-3
233.002281E-3
234.935760E-3
236.616898E-3
234.366417E-3
239.531708E-3
234.498596E-3
236.817741E-3
237.720680E-3
235.513115E-3
240.703011E-3
236.736488E-3
238.208199E-3
239.329720E-3
236.861229E-3
241.860008E-3
237.313843E-3
239.185524E-3
240.137672E-3
237.604523E-3
242.329788E-3
238.013077E-3
240.463829E-3
240.983963E-3
238.488007E-3
243.284225E-3
239.326286E-3
240.617752E-3
241.176796E-3
238.882828E-3
243.391228E-3
239.212990E-3
240.981674E-3
241.434860E-3
239.246178E-3
244.275856E-3
239.500237E-3
240.838051E-3
241.860008E-3
238.407326E-3
244.381142E-3
240.161705E-3
242.287445E-3
243.702507E-3
241.274071E-3
246.184731E-3
241.821098E-3
244.136810E-3
243.908501E-3
241.486931E-3
244.702148E-3
238.394165E-3
237.543297E-3
236.382294E-3
231.983185E-3
235.177231E-3
229.294968E-3
229.989052E-3
230.150414E-3
228.419495E-3
233.121872E-3
229.530716E-3
231.719398E-3
232.991982E-3
231.024170E-3
236.300468E-3
232.180595E-3
234.462547E-3
236.373138E-3
233.941269E-3
238.726616E-3
235.214424E-3
236.697006E-3
238.190460E-3
235.454750E-3
240.993118E-3
237.279510E-3
238.905144E-3
239.728546E-3
236.976814E-3
241.321564E-3
236.905861E-3
237.941551E-3
238.190460E-3
235.618973E-3
239.728546E-3
235.667038E-3
236.800575E-3
237.248611E-3
233.276939E-3
238.633919E-3
235.206985E-3
237.650871E-3
238.726616E-3
235.945702E-3
241.617966E-3
237.999916E-3
239.686203E-3
241.509247E-3
236.564827E-3
242.485428E-3
239.166641E-3
241.193390E-3
242.551804E-3
239.793205E-3
244.557381E-3
240.541077E-3
242.160988E-3
243.018723E-3
240.503311E-3
245.191383E-3
241.308403E-3
242.861938E-3
244.201469E-3
240.696716E-3
245.904922E-3
242.278862E-3
243.486786E-3
244.863510E-3
240.971947E-3
245.912933E-3
241.691780E-3
243.762589E-3
244.647789E-3
241.327286E-3
246.809006E-3
242.991829E-3
244.279861E-3
244.964790E-3
242.538071E-3
247.723389E-3
243.881607E-3
245.684624E-3
245.763588E-3
242.187881E-3
245.654869E-3
240.167427E-3
239.274788E-3
237.775612E-3
232.190323E-3
235.578918E-3
230.508614E-3
230.817032E-3
231.492233E-3
228.073883E-3
233.001709E-3
229.675484E-3
231.823540E-3
233.143616E-3
229.566765E-3
236.671829E-3
233.122444E-3
235.157204E-3
236.411476E-3
233.461761E-3
238.676834E-3
235.318565E-3
237.395668E-3
237.985039E-3
235.062790E-3
240.547371E-3
236.936188E-3
238.505745E-3
239.591217E-3
236.444664E-3
241.461182E-3
237.973595E-3
238.772392E-3
239.559174E-3
235.689926E-3
240.312767E-3
236.398888E-3
236.791992E-3
237.780190E-3
233.201981E-3
238.982391E-3
236.231232E-3
237.482643E-3
238.053703E-3
235.136604E-3
240.934753E-3
237.731552E-3
238.643074E-3
240.158272E-3
237.123299E-3
242.230797E-3
239.606094E-3
240.854645E-3
242.175865E-3
238.703728E-3
243.721390E-3
241.224289E-3
242.016220E-3
242.945480E-3
239.517403E-3
244.618034E-3
241.829681E-3
243.010712E-3
243.879318E-3
240.728760E-3
245.924950E-3
242.495155E-3
243.712807E-3
244.126511E-3
239.526558E-3
245.166206E-3
242.885971E-3
243.487358E-3
244.263840E-3
239.321136E-3
245.153046E-3
243.149185E-3
244.339943E-3
245.531273E-3
242.163849E-3
247.237015E-3
244.334793E-3
245.139313E-3
246.001625E-3
242.291451E-3
246.312332E-3
241.474342E-3
239.721107E-3
238.754082E-3
233.184814E-3
236.282730E-3
231.294823E-3
231.146622E-3
231.184959E-3
227.386093E-3
232.662392E-3
229.847717E-3
231.668472E-3
233.177948E-3
230.022812E-3
235.262489E-3
232.764244E-3
234.274864E-3
235.692787E-3
232.311058E-3
238.154984E-3
235.140610E-3
236.683273E-3
237.205124E-3
234.148979E-3
239.543724E-3
236.953354E-3
238.112068E-3
239.565468E-3
236.287308E-3
240.863228E-3
238.257980E-3
239.277077E-3
239.493942E-3
234.720039E-3
239.723396E-3
236.481285E-3
237.077522E-3
237.568474E-3
233.770752E-3
238.833046E-3
235.940552E-3
236.850929E-3
238.133240E-3
234.863091E-3
240.013504E-3
237.399673E-3
238.530922E-3
239.654160E-3
236.862373E-3
242.393875E-3
239.184952E-3
240.396309E-3
241.417122E-3
238.473701E-3
243.687057E-3
240.705299E-3
241.304970E-3
242.665100E-3
239.759445E-3
244.830894E-3
241.412544E-3
242.038536E-3
243.156624E-3
240.119934E-3
244.525337E-3
241.801071E-3
242.847633E-3
243.636131E-3
240.384293E-3
245.419693E-3
242.232513E-3
243.398094E-3
244.184875E-3
240.515900E-3
246.012497E-3
242.464828E-3
243.514252E-3
244.144249E-3
241.320992E-3
246.207047E-3
243.792343E-3
244.391441E-3
245.842552E-3
242.789268E-3
246.699715E-3
242.555809E-3
241.176224E-3
240.122795E-3
235.079956E-3
237.891769E-3
233.052063E-3
232.099342E-3
231.234169E-3
227.408409E-3
232.277298E-3
228.776550E-3
229.918098E-3
231.727982E-3
229.023170E-3
235.243607E-3
231.978035E-3
233.131027E-3
234.978676E-3
232.166862E-3
238.227081E-3
235.128021E-3
236.694145E-3
237.892342E-3
234.584999E-3
240.774536E-3
237.482643E-3
238.473701E-3
239.709091E-3
236.671829E-3
241.656303E-3
238.145828E-3
238.209915E-3
239.474487E-3
234.940910E-3
239.832687E-3
235.695648E-3
235.957718E-3
237.291527E-3
232.927895E-3
238.841629E-3
234.695435E-3
235.065079E-3
236.727333E-3
233.642006E-3
239.675903E-3
236.488152E-3
237.595367E-3
238.459396E-3
235.406685E-3
242.119789E-3
238.861656E-3
239.245605E-3
240.114784E-3
236.736488E-3
243.372917E-3
239.724541E-3
240.562248E-3
241.716385E-3
237.694359E-3
244.077301E-3
240.805435E-3
241.301537E-3
242.105484E-3
238.553238E-3
244.352531E-3
241.479492E-3
241.196251E-3
241.821098E-3
237.642288E-3
244.283867E-3
241.159058E-3
241.316414E-3
242.733192E-3
238.877106E-3
244.660950E-3
241.945839E-3
242.095757E-3
243.203545E-3
239.575768E-3
245.626831E-3
242.625046E-3
241.767311E-3
241.615677E-3
236.371422E-3
240.382576E-3
234.478569E-3
232.078743E-3
232.353973E-3
227.588654E-3
232.882690E-3
229.317284E-3
228.999138E-3
230.199051E-3
226.946068E-3
233.431435E-3
230.982399E-3
231.273079E-3
233.378220E-3
230.211067E-3
236.446953E-3
234.415627E-3
234.734917E-3
236.674690E-3
232.695007E-3
239.475632E-3
236.310768E-3
236.701012E-3
239.194107E-3
236.155701E-3
242.035675E-3
238.601303E-3
238.560677E-3
238.980675E-3
235.911369E-3
240.821457E-3
236.944199E-3
235.384941E-3
235.920525E-3
232.668114E-3
238.476562E-3
235.388374E-3
234.223938E-3
236.065865E-3
232.454681E-3
238.656807E-3
235.447884E-3
235.329437E-3
237.398529E-3
234.734344E-3
240.658379E-3
237.912369E-3
237.844849E-3
239.954567E-3
237.027740E-3
242.612457E-3
239.420700E-3
239.356041E-3
240.775108E-3
237.662315E-3
243.386650E-3
240.928459E-3
240.903282E-3
242.243958E-3
239.075089E-3
244.583130E-3
241.747856E-3
241.260338E-3
243.058777E-3
239.372635E-3
244.639206E-3
241.909218E-3
241.187668E-3
242.872238E-3
239.903069E-3
245.689201E-3
242.647362E-3
241.968155E-3
243.189812E-3
239.164352E-3
242.821884E-3
237.620544E-3
234.532928E-3
234.238243E-3
229.599953E-3
233.852005E-3
230.285454E-3
228.893852E-3
230.104065E-3
227.269363E-3
232.985687E-3
230.245972E-3
230.570412E-3
233.147049E-3
231.174088E-3
237.339592E-3
235.026169E-3
235.297394E-3
236.606026E-3
233.719826E-3
240.042686E-3
237.234306E-3
237.391090E-3
238.843918E-3
236.248970E-3
242.370987E-3
238.898849E-3
238.493156E-3
239.965439E-3
236.495590E-3
241.949844E-3
237.589073E-3
237.293816E-3
238.104057E-3
234.182167E-3
238.763809E-3
234.952354E-3
234.526634E-3
236.702728E-3
233.775330E-3
239.103699E-3
237.051201E-3
236.426353E-3
238.265991E-3
235.243607E-3
240.972519E-3
239.063644E-3
239.063072E-3
240.669250E-3
237.270927E-3
243.312836E-3
241.013718E-3
239.346313E-3
241.898346E-3
239.070511E-3
244.677544E-3
242.124367E-3
241.488647E-3
242.757225E-3
