Notes :


2023-11-04 ¿ÀÈÄ 10:09:58
Volts
Ch : LED 2,
457.655525E-3
457.556534E-3
457.414055E-3
457.353973E-3
457.224655E-3
457.015228E-3
456.926537E-3
456.884766E-3
456.594086E-3
456.373787E-3
456.261635E-3
456.099701E-3
455.973244E-3
455.926323E-3
455.813599E-3
455.723763E-3
455.831909E-3
455.557251E-3
455.416489E-3
455.164719E-3
454.955864E-3
454.773331E-3
454.586220E-3
454.360199E-3
454.133606E-3
453.885841E-3
453.715897E-3
453.432083E-3
453.322792E-3
453.404617E-3
453.777122E-3
454.873466E-3
456.708527E-3
459.515190E-3
462.726402E-3
465.934181E-3
468.981171E-3
471.353531E-3
473.182297E-3
474.138451E-3
474.207687E-3
473.949051E-3
473.029518E-3
471.718597E-3
470.522118E-3
469.364548E-3
468.415833E-3
467.645073E-3
467.186737E-3
466.811943E-3
466.917801E-3
466.766739E-3
466.751289E-3
466.985893E-3
467.224503E-3
467.309189E-3
467.299461E-3
466.957283E-3
466.381645E-3
465.486717E-3
464.853859E-3
464.219284E-3
463.880539E-3
463.617325E-3
463.672829E-3
463.804436E-3
463.888550E-3
463.985252E-3
464.190102E-3
464.223289E-3
464.227295E-3
464.058495E-3
463.723183E-3
463.381577E-3
462.951851E-3
462.499809E-3
462.043190E-3
461.881256E-3
461.262703E-3
460.884476E-3
460.482788E-3
460.132599E-3
459.975243E-3
459.701729E-3
459.445953E-3
459.191322E-3
459.178162E-3
458.858299E-3
458.655739E-3
458.515549E-3
458.353615E-3
458.161926E-3
458.091545E-3
458.030891E-3
457.916451E-3
457.804298E-3
457.616615E-3
457.519913E-3
457.438087E-3
457.355690E-3
457.170296E-3
457.037544E-3
456.731987E-3
456.720543E-3
456.637001E-3
456.516266E-3
456.428146E-3
456.307983E-3
456.278229E-3
456.064796E-3
455.887413E-3
455.783272E-3
455.630493E-3
455.390739E-3
455.011940E-3
454.743004E-3
454.460907E-3
454.161072E-3
453.923607E-3
453.706169E-3
453.574562E-3
453.380013E-3
453.263283E-3
453.515625E-3
454.403114E-3
456.148338E-3
458.639145E-3
461.620903E-3
464.652443E-3
467.254829E-3
469.700432E-3
471.413612E-3
472.338867E-3
472.556877E-3
472.146606E-3
471.294022E-3
470.157051E-3
468.851280E-3
467.835617E-3
466.666603E-3
465.800858E-3
465.077019E-3
464.694786E-3
464.444160E-3
464.448166E-3
464.495659E-3
464.519691E-3
464.800644E-3
464.598083E-3
464.341164E-3
463.830185E-3
463.099480E-3
462.371635E-3
461.771965E-3
461.367416E-3
461.218643E-3
461.333084E-3
461.405754E-3
461.544800E-3
461.643219E-3
461.773682E-3
461.833763E-3
461.829185E-3
461.444092E-3
461.227226E-3
460.995483E-3
460.686493E-3
460.260201E-3
459.898567E-3
459.497452E-3
458.992195E-3
458.535576E-3
457.876968E-3
457.609177E-3
457.332802E-3
457.003784E-3
456.748009E-3
456.516838E-3
456.235886E-3
456.250191E-3
456.149483E-3
456.215286E-3
455.997849E-3
455.750656E-3
455.744934E-3
455.495453E-3
455.304337E-3
455.233383E-3
455.154991E-3
455.060577E-3
454.985046E-3
454.938126E-3
454.897499E-3
454.765320E-3
454.724693E-3
454.638290E-3
454.548454E-3
454.381371E-3
454.166222E-3
454.108429E-3
453.959084E-3
453.841209E-3
453.661537E-3
453.528786E-3
453.420067E-3
453.323936E-3
453.204918E-3
453.001785E-3
452.549744E-3
452.422714E-3
452.260780E-3
452.079391E-3
451.785851E-3
451.433945E-3
451.104927E-3
450.861168E-3
450.780487E-3
450.699234E-3
451.001358E-3
452.142334E-3
454.068375E-3
456.725121E-3
459.947777E-3
463.236237E-3
466.412544E-3
468.965721E-3
470.839691E-3
471.831322E-3
472.097969E-3
471.821022E-3
470.985603E-3
469.941330E-3
468.771744E-3
467.808151E-3
466.735268E-3
465.917015E-3
465.399742E-3
465.163994E-3
465.109634E-3
465.156555E-3
465.300751E-3
465.435791E-3
465.723038E-3
465.889549E-3
465.901566E-3
465.726471E-3
465.272141E-3
464.508820E-3
463.775253E-3
463.154984E-3
462.653160E-3
462.270355E-3
462.157631E-3
461.767387E-3
461.988258E-3
462.130737E-3
462.241745E-3
462.314415E-3
462.205696E-3
462.256050E-3
461.932182E-3
461.651230E-3
461.273575E-3
460.883331E-3
460.440445E-3
460.022736E-3
459.543228E-3
459.207344E-3
458.819389E-3
458.710670E-3
458.315277E-3
458.047485E-3
457.700729E-3
457.520485E-3
457.336235E-3
457.078171E-3
456.945419E-3
456.785774E-3
456.465912E-3
456.404686E-3
456.217575E-3
456.169510E-3
456.031609E-3
455.850220E-3
455.675125E-3
455.641937E-3
455.644226E-3
455.502319E-3
455.345535E-3
455.188179E-3
455.186462E-3
455.033112E-3
454.915810E-3
454.896927E-3
454.735565E-3
454.493523E-3
454.301262E-3
454.157066E-3
454.075813E-3
453.866386E-3
453.741646E-3
453.694725E-3
453.490448E-3
453.436089E-3
453.231239E-3
453.056145E-3
452.751160E-3
452.576065E-3
452.262497E-3
451.959801E-3
451.675415E-3
451.313782E-3
451.152420E-3
450.790787E-3
450.663757E-3
450.739861E-3
451.307487E-3
452.609825E-3
454.807091E-3
457.674980E-3
460.859299E-3
464.031601E-3
466.862297E-3
469.052124E-3
470.473480E-3
471.027374E-3
470.907211E-3
470.147324E-3
468.982315E-3
467.567825E-3
466.084099E-3
464.650726E-3
463.393593E-3
462.352753E-3
461.518478E-3
461.046982E-3
460.651588E-3
460.460472E-3
460.445023E-3
460.643578E-3
460.899353E-3
461.018944E-3
460.958290E-3
460.558891E-3
459.881973E-3
459.087181E-3
458.426857E-3
457.783127E-3
457.445526E-3
457.356834E-3
457.495880E-3
457.610321E-3
457.831192E-3
457.975388E-3
458.062935E-3
458.264923E-3
458.099556E-3
457.979965E-3
457.723045E-3
457.394028E-3
456.984329E-3
456.631851E-3
456.222153E-3
455.746078E-3
455.624199E-3
455.098915E-3
454.672050E-3
454.326439E-3
454.084396E-3
453.816032E-3
453.545380E-3
453.259277E-3
453.041267E-3
452.619553E-3
452.621841E-3
452.582359E-3
452.411842E-3
452.336311E-3
452.248192E-3
452.089691E-3
451.976967E-3
451.840782E-3
451.970100E-3
451.727486E-3
451.593018E-3
451.478004E-3
451.371002E-3
451.301765E-3
451.171875E-3
451.138115E-3
451.011086E-3
451.015663E-3
450.817680E-3
450.707817E-3
450.469208E-3
450.477219E-3
450.305557E-3
450.165367E-3
450.105858E-3
449.885559E-3
449.785423E-3
449.610901E-3
449.464989E-3
449.341393E-3
449.149704E-3
448.900223E-3
448.652458E-3
448.459053E-3
448.182106E-3
447.835922E-3
447.680855E-3
447.590446E-3
447.590446E-3
447.809029E-3
448.698807E-3
450.395393E-3
453.076172E-3
455.930901E-3
458.997917E-3
461.931610E-3
464.326859E-3
466.142464E-3
467.149544E-3
467.387009E-3
466.982460E-3
466.045189E-3
464.880180E-3
463.709450E-3
462.336159E-3
461.232948E-3
460.216713E-3
459.413910E-3
459.025383E-3
458.818245E-3
459.029388E-3
458.938408E-3
459.011650E-3
459.089470E-3
459.129524E-3
459.001923E-3
458.690071E-3
458.038330E-3
457.466698E-3
457.033539E-3
456.706238E-3
456.503677E-3
456.554031E-3
456.644440E-3
456.845284E-3
457.122803E-3
457.410049E-3
457.540512E-3
457.288742E-3
457.293892E-3
457.131386E-3
456.813812E-3
456.406975E-3
455.996704E-3
455.470276E-3
455.009651E-3
454.518700E-3
454.182816E-3
453.830338E-3
453.477859E-3
453.156281E-3
452.901077E-3
452.530289E-3
452.239609E-3
452.118301E-3
451.809311E-3
451.564980E-3
451.377296E-3
451.250267E-3
451.210785E-3
451.019669E-3
450.983620E-3
450.853157E-3
450.967598E-3
450.708961E-3
450.484085E-3
450.246620E-3
450.114441E-3
450.017738E-3
449.973106E-3
449.935341E-3
449.687576E-3
449.839783E-3
449.677277E-3
449.605751E-3
449.657822E-3
449.665833E-3
449.449539E-3
449.407196E-3
449.190903E-3
449.038696E-3
449.090767E-3
448.744011E-3
448.438454E-3
448.308563E-3
448.087692E-3
447.902870E-3
447.653961E-3
447.476006E-3
447.307205E-3
447.281456E-3
447.114372E-3
447.294617E-3
447.954941E-3
449.472427E-3
451.882553E-3
454.847717E-3
458.032608E-3
461.104774E-3
463.905144E-3
465.876389E-3
467.215347E-3
467.715454E-3
467.602158E-3
466.877747E-3
465.893555E-3
464.794922E-3
463.609886E-3
462.505531E-3
461.672401E-3
461.033249E-3
460.587502E-3
460.402107E-3
460.470772E-3
460.504532E-3
460.684776E-3
460.844994E-3
461.096191E-3
460.994339E-3
460.879898E-3
460.398674E-3
459.745216E-3
459.084320E-3
458.468628E-3
458.179665E-3
457.935333E-3
457.860374E-3
457.898712E-3
458.035469E-3
458.180809E-3
458.241463E-3
458.326721E-3
458.253479E-3
458.413124E-3
458.085251E-3
457.708168E-3
457.396317E-3
457.034683E-3
456.656456E-3
456.247330E-3
455.897141E-3
455.412483E-3
455.068016E-3
454.670334E-3
454.336166E-3
454.138756E-3
453.829765E-3
453.632927E-3
453.398895E-3
453.197479E-3
453.017807E-3
452.875900E-3
452.835274E-3
452.820969E-3
452.739716E-3
452.612686E-3
452.475357E-3
452.334595E-3
452.150917E-3
452.157784E-3
451.864815E-3
451.830482E-3
451.732635E-3
451.614761E-3
451.595879E-3
451.506042E-3
451.372147E-3
451.216507E-3
451.144981E-3
451.155281E-3
451.004219E-3
450.893784E-3
450.762177E-3
450.656319E-3
450.527573E-3
450.319862E-3
450.199127E-3
450.095558E-3
450.216293E-3
449.948502E-3
449.681854E-3
449.466133E-3
449.228668E-3
449.073029E-3
448.841286E-3
448.550034E-3
448.298836E-3
448.158646E-3
448.145485E-3
448.402977E-3
449.328804E-3
450.970459E-3
453.568840E-3
456.622124E-3
459.939766E-3
463.120651E-3
465.756226E-3
467.749786E-3
468.935394E-3
469.358826E-3
469.097328E-3
468.348885E-3
467.432213E-3
466.024017E-3
464.960289E-3
464.041328E-3
463.245964E-3
462.633133E-3
462.385368E-3
462.224579E-3
462.130165E-3
462.329865E-3
462.677193E-3
462.816811E-3
462.754440E-3
462.760162E-3
462.613678E-3
462.215996E-3
461.495590E-3
460.711670E-3
460.137749E-3
459.729767E-3
459.425926E-3
459.324646E-3
459.297180E-3
459.459686E-3
459.581566E-3
459.615898E-3
459.705734E-3
459.741783E-3
459.697151E-3
459.500885E-3
459.169006E-3
458.904076E-3
458.539009E-3
458.040047E-3
457.660103E-3
457.229805E-3
456.843567E-3
456.730843E-3
456.311989E-3
456.038475E-3
455.761528E-3
455.501747E-3
455.231094E-3
455.084610E-3
454.924965E-3
454.745865E-3
454.658318E-3
454.464912E-3
454.360199E-3
454.219437E-3
454.097557E-3
454.051781E-3
453.887558E-3
453.771973E-3
453.657532E-3
453.576279E-3
453.463554E-3
453.323364E-3
453.154564E-3
453.174591E-3
453.139114E-3
452.997780E-3
452.875900E-3
452.724838E-3
452.678490E-3
452.403831E-3
452.315712E-3
452.110863E-3
452.106285E-3
452.026749E-3
451.891136E-3
451.853943E-3
451.706314E-3
451.654243E-3
451.419067E-3
451.270866E-3
451.092339E-3
450.879478E-3
450.643730E-3
450.421715E-3
450.259209E-3
450.157928E-3
449.979973E-3
449.751091E-3
449.649811E-3
449.657822E-3
449.892426E-3
450.743294E-3
452.408981E-3
455.040550E-3
458.007431E-3
461.224937E-3
464.216423E-3
466.823959E-3
468.809509E-3
469.980240E-3
470.249176E-3
469.928741E-3
469.262123E-3
468.107986E-3
466.918373E-3
465.708160E-3
464.704514E-3
463.802719E-3
463.186455E-3
462.702370E-3
462.502098E-3
462.434578E-3
462.560463E-3
462.842560E-3
462.940979E-3
463.016510E-3
463.015366E-3
462.749863E-3
462.304115E-3
461.659241E-3
460.988045E-3
460.481644E-3
460.182381E-3
460.168076E-3
460.185242E-3
460.320854E-3
460.498810E-3
460.828972E-3
460.901070E-3
460.862732E-3
460.742569E-3
460.622406E-3
460.262489E-3
459.900856E-3
459.506607E-3
459.108925E-3
458.839417E-3
458.322144E-3
457.827187E-3
457.448387E-3
457.123375E-3
456.808662E-3
456.492233E-3
456.247330E-3
455.976105E-3
455.646515E-3
455.533791E-3
455.438805E-3
455.299759E-3
455.185890E-3
455.047989E-3
454.954720E-3
454.787064E-3
454.664040E-3
454.474640E-3
454.369926E-3
454.220009E-3
454.196548E-3
454.105568E-3
454.043198E-3
453.834343E-3
453.659248E-3
453.541374E-3
453.337097E-3
453.357124E-3
453.264427E-3
453.177452E-3
453.043556E-3
452.929687E-3
452.755165E-3
452.635574E-3
452.617836E-3
452.581215E-3
452.360916E-3
452.114296E-3
451.898575E-3
451.641655E-3
451.433372E-3
451.256561E-3
450.985909E-3
450.773048E-3
450.354767E-3
450.406265E-3
450.183678E-3
450.184250E-3
450.609970E-3
451.876831E-3
453.866959E-3
456.564331E-3
459.493446E-3
462.547874E-3
465.205765E-3
467.402458E-3
468.860435E-3
469.580841E-3
469.587708E-3
468.973732E-3
468.029022E-3
466.932106E-3
465.792274E-3
464.895058E-3
463.963509E-3
463.172150E-3
462.727547E-3
462.409401E-3
462.344170E-3
462.186241E-3
462.401390E-3
462.553024E-3
462.680626E-3
462.751579E-3
462.495804E-3
462.142754E-3
461.454391E-3
460.812950E-3
460.257339E-3
459.962082E-3
459.863091E-3
459.879112E-3
459.938622E-3
460.019875E-3
460.222435E-3
460.385513E-3
460.463905E-3
460.529137E-3
460.491371E-3
460.219574E-3
460.042191E-3
459.731483E-3
459.265137E-3
458.805656E-3
458.266640E-3
457.856941E-3
457.464981E-3
457.056999E-3
456.737137E-3
456.414986E-3
456.144333E-3
455.930328E-3
455.754662E-3
455.455971E-3
455.172157E-3
455.234528E-3
454.953575E-3
454.861450E-3
454.753876E-3
454.652596E-3
454.481506E-3
454.267502E-3
454.199982E-3
454.117584E-3
454.074097E-3
453.925896E-3
453.930473E-3
453.808594E-3
453.565407E-3
453.483582E-3
453.324509E-3
453.204918E-3
453.129387E-3
453.263855E-3
452.941704E-3
452.796364E-3
452.723122E-3
452.577782E-3
452.477646E-3
452.435875E-3
452.318573E-3
452.211571E-3
452.128601E-3
452.004433E-3
451.936913E-3
451.737213E-3
451.619339E-3
451.432800E-3
451.231956E-3
451.035118E-3
450.759315E-3
450.570488E-3
450.386810E-3
450.290108E-3
450.224304E-3
450.594521E-3
451.469421E-3
453.234673E-3
455.657959E-3
458.869171E-3
461.956215E-3
465.020370E-3
467.641068E-3
469.504738E-3
470.666313E-3
471.074295E-3
470.917511E-3
470.309258E-3
469.182587E-3
467.986107E-3
466.931534E-3
465.994835E-3
465.244675E-3
464.676476E-3
464.464188E-3
464.329720E-3
464.589500E-3
464.624405E-3
464.732552E-3
464.915657E-3
465.056419E-3
465.114784E-3
464.950562E-3
464.488220E-3
463.912010E-3
463.242531E-3
462.447166E-3
461.940765E-3
461.599731E-3
461.472702E-3
461.474419E-3
461.496735E-3
461.643219E-3
461.882401E-3
461.921310E-3
461.889839E-3
461.874390E-3
461.707878E-3
461.454964E-3
461.240959E-3
460.894203E-3
460.589218E-3
460.263062E-3
459.696007E-3
459.339523E-3
458.956718E-3
458.702660E-3
458.388519E-3
458.101845E-3
457.802582E-3
457.653236E-3
457.462692E-3
457.282448E-3
457.139969E-3
457.023811E-3
456.848145E-3
456.702232E-3
456.493378E-3
456.389809E-3
456.479073E-3
456.188393E-3
456.076241E-3
455.931473E-3
455.821037E-3
455.645370E-3
455.548668E-3
455.379868E-3
455.331230E-3
455.346107E-3
455.179596E-3
454.879189E-3
454.769325E-3
454.611397E-3
454.539871E-3
454.414558E-3
454.328728E-3
454.220009E-3
454.150200E-3
453.943634E-3
453.802299E-3
453.743362E-3
453.643227E-3
453.493881E-3
453.278160E-3
453.182030E-3
452.882767E-3
452.507973E-3
452.358627E-3
452.290535E-3
452.049637E-3
451.929474E-3
451.677132E-3
451.611328E-3
451.900864E-3
452.569199E-3
454.280090E-3
456.563187E-3
459.508896E-3
462.665749E-3
465.747643E-3
468.204117E-3
470.084381E-3
471.348381E-3
471.817017E-3
471.363831E-3
470.737839E-3
469.785118E-3
468.628693E-3
467.483711E-3
466.614532E-3
465.711021E-3
465.085602E-3
464.812660E-3
464.689064E-3
464.560318E-3
464.595222E-3
464.752007E-3
464.956284E-3
465.102196E-3
465.094185E-3
464.876175E-3
464.271927E-3
463.554382E-3
462.754440E-3
462.157059E-3
