Notes :


2023-11-06 ¿ÀÈÄ 10:05:35
Volts
Ch : LED 2,
543.923378E-3
544.037247E-3
543.965149E-3
543.689919E-3
543.334007E-3
542.914581E-3
542.468834E-3
542.067719E-3
541.674042E-3
541.078377E-3
540.969658E-3
540.830040E-3
540.730476E-3
540.662956E-3
540.534782E-3
540.677261E-3
540.649223E-3
540.501022E-3
540.509605E-3
540.071869E-3
539.842415E-3
539.654732E-3
539.529419E-3
539.599800E-3
539.602089E-3
539.737701E-3
539.894485E-3
539.766312E-3
539.961433E-3
539.862442E-3
539.888763E-3
539.707375E-3
539.559746E-3
539.455605E-3
539.421844E-3
539.369774E-3
539.310265E-3
538.992691E-3
538.741493E-3
538.466263E-3
538.298607E-3
538.160706E-3
538.105202E-3
538.065147E-3
537.960434E-3
538.174438E-3
537.939835E-3
537.812233E-3
537.737846E-3
537.606239E-3
537.492371E-3
537.412262E-3
537.452316E-3
537.493515E-3
537.583923E-3
537.481499E-3
537.468910E-3
537.369347E-3
537.388802E-3
537.158775E-3
537.214279E-3
537.274361E-3
537.190819E-3
537.251472E-3
537.138176E-3
537.116432E-3
537.075806E-3
536.925888E-3
536.878395E-3
536.751366E-3
536.513901E-3
536.540222E-3
536.468697E-3
536.496735E-3
536.424637E-3
536.383438E-3
536.257553E-3
536.168289E-3
536.171150E-3
536.263275E-3
536.267853E-3
536.680412E-3
537.262917E-3
538.259697E-3
539.339447E-3
540.272141E-3
541.074944E-3
541.620255E-3
541.704941E-3
541.762161E-3
541.696930E-3
541.304970E-3
540.978241E-3
540.563393E-3
540.212631E-3
539.841270E-3
539.590073E-3
539.114571E-3
538.917160E-3
538.711166E-3
538.672256E-3
538.757515E-3
538.742065E-3
538.778114E-3
538.718033E-3
538.553238E-3
538.631630E-3
538.286018E-3
538.177872E-3
538.104630E-3
538.179016E-3
538.406181E-3
538.551521E-3
538.671684E-3
538.753510E-3
538.750648E-3
538.740349E-3
538.552666E-3
538.387299E-3
538.323212E-3
538.183594E-3
538.116074E-3
538.002205E-3
537.825966E-3
537.722969E-3
537.459183E-3
537.195396E-3
536.990547E-3
536.865234E-3
536.819458E-3
536.805725E-3
536.774254E-3
536.757660E-3
536.691284E-3
536.604309E-3
536.534500E-3
536.408615E-3
536.433220E-3
536.444092E-3
536.359406E-3
536.318207E-3
536.323929E-3
536.145401E-3
536.179161E-3
536.170578E-3
536.165428E-3
536.057854E-3
536.014938E-3
535.986900E-3
535.764885E-3
535.898781E-3
535.810661E-3
535.811234E-3
535.733414E-3
535.616684E-3
535.515976E-3
535.429573E-3
535.398102E-3
535.458183E-3
535.182953E-3
535.026169E-3
534.884834E-3
534.804153E-3
534.718323E-3
534.642220E-3
534.745216E-3
535.103989E-3
535.842133E-3
536.693001E-3
537.647438E-3
538.637924E-3
539.363480E-3
539.810371E-3
540.119362E-3
540.055847E-3
539.770889E-3
539.381218E-3
539.062500E-3
538.559532E-3
538.191032E-3
537.984467E-3
537.747574E-3
537.422562E-3
537.314987E-3
536.968231E-3
537.079811E-3
536.973381E-3
536.987686E-3
537.063789E-3
536.980247E-3
536.798859E-3
536.556816E-3
536.377144E-3
536.293030E-3
536.052704E-3
536.114502E-3
536.301041E-3
536.369705E-3
536.496735E-3
536.515045E-3
536.613464E-3
536.580276E-3
536.331367E-3
536.092186E-3
536.006927E-3
535.958862E-3
535.854149E-3
535.796928E-3
535.612106E-3
535.288811E-3
535.230446E-3
534.990120E-3
534.710884E-3
534.623337E-3
534.527779E-3
534.535789E-3
534.435654E-3
534.380722E-3
534.332085E-3
534.475136E-3
534.206200E-3
534.126091E-3
533.979034E-3
534.012222E-3
534.027672E-3
533.967018E-3
533.992767E-3
533.960152E-3
533.712959E-3
533.650589E-3
533.648872E-3
533.537292E-3
533.561325E-3
533.575058E-3
533.574486E-3
533.549309E-3
533.588219E-3
533.525848E-3
533.333588E-3
533.209419E-3
533.222008E-3
533.177948E-3
533.124733E-3
533.038330E-3
532.957649E-3
532.862663E-3
532.664680E-3
532.620621E-3
532.398033E-3
532.352829E-3
532.311058E-3
532.294464E-3
532.452393E-3
532.864952E-3
533.604813E-3
534.342957E-3
535.496521E-3
536.493301E-3
537.351608E-3
537.799072E-3
538.045120E-3
538.137817E-3
538.016510E-3
537.813377E-3
537.552452E-3
537.126732E-3
536.825752E-3
536.495590E-3
536.318207E-3
536.093903E-3
535.813522E-3
535.696793E-3
535.554886E-3
535.565758E-3
535.599518E-3
535.707664E-3
535.735703E-3
535.557175E-3
535.256195E-3
535.077667E-3
534.840202E-3
534.863091E-3
534.704018E-3
534.876251E-3
534.931755E-3
534.944344E-3
535.075378E-3
535.103989E-3
535.068512E-3
534.990120E-3
534.801865E-3
534.661102E-3
534.592438E-3
534.599304E-3
534.467125E-3
534.293175E-3
534.086037E-3
533.740425E-3
533.420563E-3
533.222008E-3
533.186531E-3
533.152771E-3
533.152199E-3
533.100700E-3
532.961655E-3
532.934761E-3
532.840919E-3
532.610893E-3
532.620049E-3
532.584572E-3
532.512474E-3
532.618332E-3
532.637215E-3
532.795715E-3
532.745934E-3
532.654381E-3
532.578850E-3
532.408905E-3
532.395172E-3
532.419777E-3
532.369995E-3
532.345390E-3
532.347107E-3
532.412338E-3
532.498741E-3
532.170868E-3
532.289886E-3
532.083321E-3
532.133675E-3
532.081604E-3
532.029533E-3
532.012939E-3
531.947708E-3
531.835556E-3
531.756020E-3
531.670189E-3
531.648445E-3
531.503105E-3
531.377220E-3
531.329727E-3
531.366348E-3
531.520271E-3
531.959724E-3
532.910156E-3
533.653450E-3
534.586143E-3
535.597229E-3
536.238670E-3
536.784554E-3
537.019730E-3
537.016869E-3
536.817741E-3
536.690140E-3
536.238098E-3
535.832405E-3
535.470200E-3
535.219574E-3
534.831619E-3
534.634781E-3
534.436798E-3
534.334373E-3
534.338951E-3
534.413910E-3
534.461403E-3
534.504890E-3
534.392738E-3
534.254837E-3
533.992195E-3
533.732986E-3
533.658600E-3
533.700371E-3
533.837128E-3
533.876610E-3
534.102058E-3
534.211922E-3
534.259987E-3
534.266281E-3
534.214783E-3
534.180450E-3
534.079170E-3
533.895493E-3
533.789635E-3
533.802795E-3
533.667183E-3
533.517838E-3
533.235168E-3
533.164787E-3
532.823753E-3
532.686996E-3
532.624054E-3
532.573128E-3
532.573700E-3
532.520485E-3
532.587433E-3
532.485008E-3
532.101631E-3
532.121086E-3
531.981468E-3
532.024384E-3
532.119370E-3
532.158279E-3
532.136536E-3
532.091331E-3
532.131958E-3
531.870461E-3
531.979179E-3
531.962013E-3
531.856155E-3
531.880188E-3
531.867599E-3
531.902504E-3
531.891060E-3
531.865883E-3
531.894493E-3
531.844139E-3
531.717110E-3
531.694794E-3
531.603813E-3
531.545448E-3
531.456184E-3
531.287384E-3
531.205559E-3
531.308556E-3
531.106567E-3
530.958939E-3
530.763817E-3
530.835915E-3
530.831337E-3
530.858231E-3
530.990410E-3
531.578636E-3
532.503319E-3
533.333015E-3
534.322929E-3
535.154915E-3
535.589790E-3
535.904503E-3
535.947418E-3
536.019516E-3
535.656166E-3
535.189247E-3
534.827614E-3
534.269714E-3
533.929253E-3
533.681488E-3
533.387375E-3
533.200264E-3
533.019447E-3
532.885551E-3
532.923889E-3
532.855225E-3
532.898140E-3
532.829475E-3
532.700157E-3
532.502174E-3
532.217789E-3
532.137680E-3
532.063866E-3
532.082748E-3
532.298470E-3
532.395744E-3
532.537079E-3
532.646942E-3
532.610321E-3
532.526207E-3
532.529068E-3
532.328224E-3
532.014084E-3
532.003212E-3
531.987190E-3
531.825829E-3
531.790924E-3
531.602097E-3
531.349754E-3
531.184959E-3
530.921173E-3
530.840492E-3
530.629349E-3
530.641937E-3
530.631638E-3
530.651665E-3
530.716896E-3
530.629349E-3
530.290604E-3
530.393600E-3
530.303192E-3
530.311203E-3
530.318069E-3
530.315781E-3
530.359840E-3
530.341530E-3
530.326653E-3
530.073166E-3
530.129242E-3
530.139542E-3
530.043983E-3
530.090904E-3
529.995918E-3
530.030823E-3
529.940987E-3
529.831123E-3
529.882050E-3
529.824829E-3
529.728127E-3
529.661179E-3
529.554176E-3
529.564476E-3
529.474068E-3
529.153061E-3
529.184532E-3
529.065514E-3
528.994560E-3
528.895569E-3
528.903580E-3
528.865242E-3
528.892136E-3
529.138756E-3
529.749298E-3
530.482864E-3
531.401825E-3
532.304192E-3
533.097839E-3
533.767319E-3
534.193611E-3
534.405899E-3
534.389305E-3
534.348106E-3
533.942986E-3
533.645439E-3
533.318710E-3
532.928467E-3
532.711601E-3
532.356262E-3
532.061577E-3
531.871605E-3
531.475067E-3
531.760597E-3
531.726837E-3
531.913948E-3
532.012939E-3
532.004929E-3
531.759453E-3
531.478500E-3
531.178665E-3
530.783844E-3
530.780411E-3
530.995560E-3
531.182098E-3
531.389236E-3
531.411552E-3
531.410408E-3
531.437302E-3
531.302261E-3
531.258202E-3
531.092834E-3
530.917740E-3
530.860519E-3
530.727768E-3
530.679703E-3
530.600166E-3
530.385590E-3
530.218506E-3
530.131531E-3
529.679489E-3
529.532433E-3
529.456902E-3
529.487228E-3
529.421425E-3
529.364204E-3
529.320717E-3
529.297256E-3
529.181671E-3
529.151917E-3
529.038048E-3
529.051208E-3
528.941345E-3
528.967667E-3
528.979111E-3
528.945351E-3
528.921890E-3
528.835487E-3
528.841782E-3
528.767395E-3
528.701019E-3
528.697014E-3
528.655815E-3
528.590012E-3
528.534508E-3
528.593445E-3
528.603172E-3
528.485298E-3
528.525925E-3
528.438950E-3
528.427505E-3
528.401756E-3
528.295898E-3
528.054428E-3
527.977753E-3
527.892494E-3
527.829552E-3
527.753448E-3
527.726555E-3
527.693939E-3
527.704239E-3
527.724838E-3
527.621841E-3
528.079033E-3
528.885841E-3
529.714966E-3
530.790138E-3
531.626701E-3
532.361412E-3
532.771111E-3
533.008003E-3
533.169365E-3
532.932472E-3
532.605743E-3
532.276726E-3
531.897354E-3
531.569481E-3
531.231880E-3
531.028748E-3
530.763245E-3
530.394173E-3
530.409622E-3
530.450821E-3
530.634499E-3
530.714035E-3
530.710030E-3
530.657387E-3
530.496597E-3
530.257416E-3
530.127525E-3
530.060005E-3
530.116653E-3
530.160713E-3
530.360413E-3
530.382729E-3
530.467415E-3
530.603027E-3
530.677986E-3
530.921173E-3
530.640221E-3
530.565834E-3
530.466270E-3
530.333519E-3
530.241966E-3
530.077744E-3
529.899788E-3
529.752159E-3
529.456329E-3
529.268074E-3
529.152489E-3
529.217148E-3
529.209709E-3
529.284668E-3
529.228020E-3
529.121590E-3
528.964233E-3
528.869247E-3
528.757668E-3
528.673553E-3
528.743935E-3
528.695869E-3
528.785706E-3
528.724480E-3
528.933334E-3
528.789139E-3
528.586578E-3
528.458405E-3
528.279877E-3
528.298759E-3
528.290749E-3
528.422928E-3
528.413200E-3
528.139687E-3
528.237534E-3
528.256989E-3
528.109932E-3
528.099060E-3
527.886772E-3
527.898788E-3
527.901077E-3
527.846718E-3
527.832985E-3
527.672195E-3
527.582932E-3
527.461624E-3
527.297401E-3
527.289963E-3
527.226448E-3
527.216148E-3
527.209854E-3
527.505684E-3
527.831841E-3
528.323364E-3
529.310989E-3
530.223083E-3
531.000710E-3
531.719398E-3
532.085609E-3
532.253838E-3
532.601166E-3
532.234955E-3
531.917381E-3
531.503105E-3
531.282806E-3
530.928040E-3
530.513191E-3
530.260849E-3
529.988480E-3
529.795074E-3
529.619980E-3
529.525566E-3
529.604530E-3
529.573631E-3
529.701233E-3
529.613113E-3
529.422569E-3
529.317856E-3
529.110718E-3
528.962517E-3
528.900146E-3
528.959084E-3
529.161644E-3
529.214287E-3
529.409981E-3
529.444313E-3
529.419708E-3
529.433441E-3
529.344177E-3
529.271507E-3
529.106712E-3
529.054642E-3
528.901291E-3
528.774261E-3
528.750801E-3
528.552818E-3
528.286171E-3
528.123093E-3
527.957153E-3
527.872467E-3
527.847862E-3
527.811813E-3
527.768326E-3
527.791786E-3
527.547455E-3
527.494240E-3
527.400398E-3
527.346039E-3
527.315712E-3
527.295113E-3
527.358627E-3
527.279663E-3
527.361488E-3
527.189255E-3
527.085114E-3
527.063942E-3
526.991272E-3
526.905441E-3
526.922607E-3
526.881409E-3
526.955795E-3
527.163506E-3
526.996994E-3
526.767540E-3
526.701736E-3
526.607323E-3
526.448250E-3
526.468849E-3
526.458549E-3
526.495743E-3
526.283455E-3
526.351547E-3
526.312637E-3
526.177597E-3
526.070595E-3
526.059723E-3
525.893784E-3
525.923538E-3
525.813675E-3
526.021957E-3
526.463699E-3
527.237892E-3
528.152275E-3
528.974533E-3
529.804802E-3
530.549240E-3
530.910301E-3
531.215286E-3
531.356049E-3
531.215858E-3
531.054497E-3
530.726624E-3
530.382156E-3
530.271149E-3
529.858589E-3
529.565620E-3
529.268074E-3
528.995705E-3
528.875542E-3
528.860664E-3
528.972816E-3
529.061508E-3
529.211998E-3
529.179955E-3
529.067802E-3
528.878403E-3
528.684425E-3
528.440666E-3
528.267860E-3
528.257561E-3
528.422356E-3
528.555679E-3
528.693008E-3
528.789139E-3
528.699303E-3
528.698730E-3
528.521347E-3
528.503609E-3
528.474998E-3
528.374290E-3
528.345680E-3
528.119659E-3
527.846146E-3
527.863312E-3
527.693367E-3
527.502823E-3
527.392960E-3
527.266502E-3
527.182388E-3
527.198982E-3
527.236176E-3
527.430725E-3
527.209854E-3
527.022171E-3
526.919174E-3
526.859665E-3
526.840782E-3
526.844788E-3
526.798439E-3
526.733780E-3
526.788712E-3
526.772118E-3
526.816177E-3
526.659966E-3
526.583862E-3
526.544380E-3
526.487732E-3
526.556969E-3
526.555252E-3
526.542091E-3
526.596451E-3
526.419640E-3
526.376724E-3
526.315498E-3
526.309204E-3
526.324081E-3
526.152992E-3
526.209641E-3
525.988770E-3
525.968170E-3
525.941849E-3
525.833702E-3
525.724411E-3
525.620842E-3
525.573349E-3
525.602531E-3
525.567627E-3
525.841141E-3
525.814819E-3
526.204491E-3
526.912880E-3
527.687073E-3
528.566551E-3
529.444885E-3
530.185890E-3
530.578423E-3
530.749512E-3
530.805588E-3
530.747795E-3
530.553818E-3
530.302620E-3
529.914665E-3
529.609108E-3
529.325867E-3
528.981972E-3
528.858376E-3
528.652954E-3
528.575706E-3
528.548241E-3
528.634071E-3
528.660965E-3
528.660393E-3
528.731346E-3
528.438377E-3
528.246117E-3
528.136826E-3
528.060150E-3
528.075600E-3
528.242111E-3
528.308487E-3
528.481293E-3
528.493881E-3
528.650093E-3
528.664398E-3
528.617477E-3
528.629494E-3
528.546524E-3
528.503609E-3
528.361130E-3
528.296471E-3
528.428650E-3
528.070450E-3
527.693367E-3
527.608681E-3
527.384377E-3
527.385521E-3
527.255058E-3
527.273941E-3
527.251053E-3
527.256203E-3
527.125168E-3
527.026176E-3
526.939201E-3
526.872826E-3
526.775551E-3
526.781845E-3
526.760674E-3
526.877975E-3
527.147484E-3
526.880836E-3
526.831055E-3
526.724052E-3
526.623917E-3
526.571846E-3
526.535797E-3
526.530075E-3
526.534653E-3
526.480293E-3
526.435661E-3
526.476288E-3
526.424789E-3
526.362419E-3
526.293182E-3
526.216507E-3
526.077461E-3
526.037979E-3
525.813103E-3
525.805664E-3
525.784492E-3
525.619125E-3
525.547028E-3
525.480652E-3
525.604820E-3
525.508118E-3
525.449181E-3
525.723839E-3
526.169014E-3
526.898003E-3
527.914810E-3
528.851509E-3
529.610825E-3
530.167580E-3
530.636215E-3
530.787849E-3
530.720901E-3
530.649376E-3
530.245399E-3
529.874611E-3
529.497528E-3
529.159355E-3
528.976250E-3
528.678131E-3
528.440666E-3
528.205490E-3
528.106499E-3
528.088188E-3
528.086472E-3
528.198051E-3
528.222656E-3
528.133392E-3
527.664757E-3
527.589226E-3
527.459908E-3
527.436447E-3
527.437592E-3
527.590370E-3
527.717400E-3
527.861595E-3
527.968025E-3
528.054428E-3
528.010368E-3
527.857018E-3
527.693367E-3
527.608681E-3
527.407265E-3
527.397537E-3
527.315140E-3
527.258492E-3
527.186966E-3
526.890564E-3
526.649666E-3
526.384735E-3
526.158714E-3
526.103783E-3
526.035690E-3
526.084328E-3
526.080894E-3
525.982475E-3
525.995064E-3
525.794792E-3
525.702095E-3
525.692940E-3
525.654030E-3
525.589943E-3
525.565338E-3
525.555611E-3
525.571060E-3
525.573349E-3
525.494957E-3
525.421715E-3
525.518417E-3
525.426865E-3
