Notes :


2023-10-23 ¿ÀÈÄ 11:29:19
Volts
Ch : LED 2,
784.584618E-3
782.749557E-3
784.387207E-3
782.759285E-3
783.925438E-3
783.942032E-3
782.229424E-3
784.281921E-3
783.404732E-3
784.848976E-3
785.032654E-3
783.653641E-3
785.123062E-3
784.233284E-3
785.632324E-3
785.733032E-3
784.041595E-3
786.149597E-3
784.923935E-3
786.229134E-3
786.126709E-3
784.485626E-3
787.018204E-3
785.566521E-3
786.510658E-3
786.473465E-3
784.659004E-3
787.341499E-3
785.754204E-3
786.693764E-3
786.635399E-3
784.812927E-3
787.866783E-3
786.095810E-3
787.011337E-3
787.121773E-3
785.750198E-3
788.365173E-3
786.532974E-3
787.196732E-3
787.367821E-3
786.079216E-3
789.020920E-3
787.222481E-3
787.781525E-3
788.046455E-3
786.688614E-3
789.573669E-3
787.652779E-3
788.155174E-3
788.329124E-3
787.028503E-3
789.799118E-3
788.165474E-3
788.793182E-3
789.106750E-3
787.842178E-3
790.770721E-3
789.064980E-3
789.485550E-3
790.002823E-3
788.734818E-3
791.619873E-3
789.648056E-3
789.802551E-3
789.971924E-3
788.237572E-3
790.412521E-3
787.173271E-3
785.995674E-3
784.595490E-3
781.525612E-3
782.788467E-3
779.688263E-3
779.102325E-3
779.176140E-3
777.949333E-3
780.800629E-3
779.308319E-3
779.934883E-3
780.905914E-3
779.856491E-3
782.975578E-3
781.012917E-3
781.144524E-3
781.933594E-3
780.303955E-3
783.241081E-3
780.736542E-3
780.720520E-3
781.308746E-3
779.668808E-3
782.799339E-3
780.788040E-3
781.589699E-3
782.829666E-3
781.460953E-3
785.004044E-3
782.678032E-3
782.902908E-3
783.522034E-3
781.640625E-3
784.483337E-3
781.623459E-3
781.636620E-3
782.336426E-3
780.838394E-3
784.148026E-3
781.624031E-3
781.918716E-3
783.247375E-3
781.903267E-3
784.937668E-3
782.684898E-3
783.152962E-3
784.201241E-3
782.385635E-3
785.633469E-3
783.325768E-3
783.638191E-3
784.819221E-3
783.140373E-3
786.391640E-3
783.976364E-3
784.146881E-3
785.228348E-3
783.765221E-3
786.785316E-3
784.298515E-3
784.564018E-3
785.777664E-3
784.281921E-3
786.970139E-3
784.513664E-3
784.712219E-3
785.873222E-3
784.477615E-3
787.288857E-3
784.850121E-3
785.215187E-3
786.407089E-3
785.025215E-3
787.510300E-3
785.310173E-3
785.631752E-3
786.847687E-3
785.423470E-3
787.984657E-3
785.824585E-3
786.219406E-3
787.454796E-3
785.755348E-3
788.355446E-3
786.219978E-3
786.420250E-3
787.628746E-3
786.165619E-3
788.998604E-3
786.845398E-3
787.113762E-3
788.147163E-3
786.570168E-3
789.368820E-3
787.342644E-3
787.516594E-3
788.801193E-3
787.019348E-3
789.819145E-3
787.879944E-3
787.915421E-3
789.090157E-3
787.344360E-3
788.982010E-3
785.873795E-3
784.301949E-3
783.311462E-3
780.200386E-3
781.188583E-3
778.258896E-3
777.647781E-3
778.098679E-3
776.734543E-3
779.217911E-3
777.785110E-3
778.272629E-3
779.427338E-3
777.814865E-3
780.733681E-3
779.216194E-3
779.193306E-3
780.197525E-3
778.625107E-3
780.749702E-3
778.755569E-3
778.147316E-3
779.192162E-3
777.783966E-3
780.078506E-3
778.523254E-3
778.543854E-3
780.076790E-3
779.280281E-3
782.248878E-3
780.693626E-3
780.381775E-3
781.036949E-3
779.554367E-3
781.854630E-3
779.862213E-3
779.323196E-3
780.063629E-3
778.117561E-3
781.119347E-3
779.507446E-3
779.282570E-3
780.286789E-3
778.628540E-3
781.759071E-3
780.254173E-3
780.180359E-3
781.333923E-3
779.956055E-3
782.592773E-3
781.099892E-3
780.920219E-3
781.925583E-3
780.711365E-3
783.000183E-3
781.538200E-3
781.218338E-3
782.499504E-3
780.895042E-3
783.385849E-3
782.042885E-3
781.717873E-3
782.988167E-3
780.340004E-3
783.328056E-3
782.157898E-3
781.955338E-3
783.094025E-3
781.486130E-3
783.551788E-3
782.446289E-3
782.222557E-3
783.546066E-3
782.033157E-3
784.121132E-3
782.895470E-3
782.601929E-3
783.608437E-3
782.209969E-3
784.779739E-3
783.322334E-3
782.846260E-3
784.115410E-3
782.486916E-3
784.938240E-3
783.549500E-3
783.165550E-3
784.421539E-3
782.843971E-3
785.043526E-3
783.874512E-3
783.435059E-3
784.911346E-3
783.362961E-3
785.497284E-3
784.498787E-3
784.218979E-3
785.652351E-3
783.500862E-3
785.819435E-3
784.630966E-3
784.312820E-3
785.736465E-3
783.774376E-3
785.523605E-3
783.348656E-3
781.542206E-3
781.495857E-3
778.201675E-3
778.943253E-3
776.525116E-3
775.074005E-3
776.107979E-3
773.684692E-3
775.997543E-3
775.435638E-3
775.243950E-3
776.768303E-3
775.064850E-3
777.529335E-3
776.933670E-3
776.467323E-3
777.942467E-3
775.596428E-3
777.834892E-3
776.717377E-3
776.061058E-3
777.141380E-3
773.451805E-3
776.946831E-3
776.662445E-3
776.668167E-3
778.706360E-3
776.695633E-3
779.327202E-3
778.427696E-3
777.735329E-3
778.968430E-3
776.146889E-3
778.027725E-3
777.060699E-3
776.218414E-3
777.218056E-3
775.227356E-3
777.615738E-3
777.443504E-3
776.894188E-3
778.665161E-3
776.543999E-3
778.983307E-3
778.540421E-3
778.076363E-3
779.665947E-3
777.503014E-3
779.750633E-3
779.290009E-3
778.767586E-3
780.144310E-3
778.005981E-3
780.259895E-3
779.864502E-3
779.474831E-3
780.622101E-3
778.478050E-3
780.691338E-3
780.340576E-3
779.993248E-3
781.268120E-3
779.104614E-3
781.332779E-3
780.830383E-3
780.291367E-3
781.298447E-3
779.010773E-3
781.650352E-3
781.088448E-3
780.615807E-3
781.883812E-3
779.849052E-3
781.755066E-3
781.340218E-3
780.742836E-3
782.054901E-3
780.187225E-3
782.361031E-3
781.832886E-3
781.121635E-3
782.380486E-3
780.335426E-3
782.807922E-3
782.424545E-3
781.628036E-3
782.982445E-3
780.938530E-3
783.748055E-3
783.338356E-3
782.393074E-3
783.615875E-3
781.582832E-3
784.469032E-3
783.680534E-3
782.629967E-3
783.181572E-3
780.828667E-3
782.963562E-3
780.845833E-3
778.213692E-3
777.838898E-3
774.542999E-3
776.187515E-3
774.615669E-3
773.050117E-3
774.096107E-3
772.233582E-3
775.587845E-3
775.253105E-3
774.254036E-3
775.730896E-3
773.658943E-3
776.893616E-3
776.190948E-3
775.041962E-3
776.241875E-3
774.081230E-3
776.267052E-3
775.621605E-3
774.018288E-3
775.336075E-3
773.828888E-3
776.656723E-3
776.593208E-3
775.574112E-3
777.140236E-3
775.663948E-3
778.946686E-3
778.155899E-3
776.561165E-3
777.262688E-3
775.410461E-3
777.966499E-3
776.949692E-3
775.447083E-3
776.780891E-3
775.107765E-3
777.712440E-3
777.183723E-3
776.038742E-3
777.685547E-3
776.288223E-3
779.085159E-3
778.464890E-3
777.285576E-3
778.428268E-3
777.087021E-3
779.632187E-3
779.204178E-3
777.678680E-3
778.799629E-3
777.672386E-3
780.335426E-3
779.795837E-3
778.454018E-3
779.936600E-3
778.439140E-3
780.596352E-3
780.035591E-3
778.649712E-3
780.099678E-3
778.772736E-3
780.995178E-3
780.606079E-3
779.294014E-3
780.693054E-3
779.156685E-3
781.372261E-3
780.841255E-3
779.546356E-3
780.907631E-3
779.562378E-3
781.744194E-3
781.266403E-3
779.917145E-3
781.298447E-3
779.936600E-3
781.996536E-3
781.626320E-3
780.134010E-3
781.423187E-3
780.254173E-3
782.570457E-3
782.033157E-3
780.646133E-3
782.232857E-3
781.042099E-3
782.956123E-3
782.684898E-3
781.480980E-3
782.666016E-3
781.763649E-3
783.740616E-3
783.642197E-3
782.285500E-3
783.796692E-3
782.500648E-3
784.415245E-3
783.663368E-3
781.782532E-3
782.280922E-3
779.542351E-3
780.070496E-3
778.166199E-3
775.231934E-3
775.391579E-3
773.113632E-3
774.315834E-3
774.148178E-3
773.039246E-3
774.721527E-3
773.537064E-3
775.282860E-3
775.459099E-3
774.375343E-3
775.661659E-3
774.405098E-3
776.090240E-3
775.729752E-3
774.152756E-3
775.269127E-3
773.709869E-3
775.107193E-3
774.686623E-3
773.601723E-3
775.290298E-3
774.270058E-3
776.545143E-3
776.826668E-3
775.709724E-3
777.149963E-3
775.946617E-3
777.715874E-3
777.083015E-3
775.564384E-3
776.960564E-3
775.185013E-3
776.651001E-3
776.269341E-3
774.806213E-3
776.588631E-3
775.321198E-3
777.205467E-3
777.166557E-3
776.024437E-3
777.926445E-3
776.593781E-3
778.297234E-3
778.231430E-3
776.947403E-3
778.908348E-3
777.346230E-3
778.943253E-3
778.896904E-3
777.588272E-3
779.306030E-3
777.758789E-3
779.013062E-3
779.073143E-3
777.783394E-3
779.526901E-3
778.104401E-3
779.520035E-3
779.469681E-3
778.069496E-3
779.910851E-3
778.405952E-3
779.787827E-3
779.673958E-3
778.297806E-3
779.382706E-3
778.570175E-3
779.872513E-3
780.006981E-3
778.625679E-3
780.388069E-3
778.908920E-3
780.246735E-3
780.246735E-3
778.708649E-3
780.886459E-3
779.611588E-3
780.867004E-3
780.808640E-3
779.324341E-3
781.116486E-3
779.859924E-3
781.170273E-3
781.178856E-3
779.864502E-3
781.745338E-3
780.401802E-3
781.688690E-3
781.828880E-3
780.135727E-3
782.338142E-3
781.036377E-3
782.322121E-3
782.213974E-3
780.674171E-3
782.319832E-3
781.097031E-3
782.284355E-3
781.681824E-3
778.935814E-3
779.347801E-3
776.947403E-3
776.887894E-3
775.428200E-3
772.851562E-3
773.552513E-3
771.913719E-3
772.941971E-3
773.223495E-3
771.992111E-3
774.585915E-3
773.285294E-3
774.545860E-3
774.658012E-3
773.041534E-3
775.424194E-3
773.958778E-3
774.736404E-3
774.734688E-3
773.146248E-3
775.048256E-3
773.395157E-3
774.434853E-3
774.754143E-3
773.691559E-3
776.457596E-3
775.262260E-3
776.459312E-3
776.690483E-3
775.052834E-3
777.669525E-3
775.642776E-3
776.190376E-3
775.761795E-3
773.898125E-3
776.750565E-3
774.666595E-3
775.576401E-3
775.625038E-3
774.046326E-3
777.414894E-3
775.713158E-3
776.511955E-3
776.854134E-3
775.463676E-3
778.643990E-3
776.790619E-3
777.485847E-3
777.878380E-3
776.396370E-3
779.451942E-3
777.633476E-3
778.085518E-3
778.434563E-3
776.624107E-3
779.815292E-3
778.282356E-3
778.643990E-3
778.907776E-3
777.597427E-3
780.318832E-3
778.611946E-3
779.098892E-3
779.392433E-3
778.043747E-3
780.840683E-3
778.915215E-3
779.311180E-3
779.609871E-3
778.494072E-3
781.135368E-3
779.325485E-3
779.852486E-3
780.226135E-3
778.876877E-3
781.628036E-3
779.789543E-3
780.245590E-3
780.497360E-3
778.983879E-3
782.018852E-3
780.108833E-3
780.726814E-3
781.001472E-3
779.730034E-3
782.538986E-3
780.858994E-3
781.284142E-3
781.941605E-3
780.772018E-3
783.642197E-3
781.732750E-3
781.975365E-3
782.607079E-3
781.439781E-3
784.445000E-3
782.260895E-3
782.314110E-3
782.618523E-3
780.870438E-3
782.769585E-3
779.485130E-3
778.186226E-3
777.337074E-3
774.495506E-3
776.027870E-3
773.018646E-3
772.713661E-3
773.229790E-3
771.454239E-3
775.322914E-3
773.289299E-3
773.698425E-3
774.783897E-3
773.567963E-3
776.847839E-3
774.323273E-3
774.545288E-3
775.334358E-3
773.251534E-3
776.224709E-3
773.653793E-3
773.619461E-3
774.512672E-3
772.983170E-3
776.165199E-3
774.247742E-3
775.146103E-3
776.517677E-3
775.465965E-3
778.587341E-3
776.074791E-3
776.343727E-3
777.067566E-3
775.231934E-3
777.557373E-3
774.972725E-3
774.991608E-3
775.938034E-3
774.464035E-3
777.326775E-3
775.097466E-3
775.398445E-3
776.552582E-3
775.347519E-3
778.425980E-3
776.134872E-3
776.645851E-3
777.706146E-3
776.063347E-3
779.092026E-3
776.836967E-3
777.159119E-3
778.286934E-3
776.980019E-3
779.657364E-3
777.578545E-3
777.910423E-3
779.098320E-3
777.674103E-3
780.339432E-3
778.071213E-3
778.318405E-3
779.518318E-3
778.091240E-3
780.832100E-3
778.450012E-3
778.677750E-3
779.869652E-3
778.409386E-3
781.208038E-3
778.975296E-3
779.100037E-3
780.169487E-3
778.902626E-3
781.410599E-3
779.310036E-3
779.660797E-3
780.743408E-3
779.402733E-3
782.108688E-3
780.044174E-3
780.223846E-3
781.270409E-3
779.502296E-3
782.333565E-3
780.309677E-3
780.790329E-3
781.796265E-3
780.451012E-3
782.953262E-3
780.904770E-3
780.993462E-3
782.120132E-3
780.871582E-3
783.555794E-3
781.611443E-3
781.940460E-3
782.928658E-3
781.181145E-3
783.960915E-3
782.197380E-3
782.350731E-3
783.568382E-3
782.227707E-3
784.141731E-3
781.505013E-3
780.209541E-3
779.771805E-3
776.839256E-3
777.609444E-3
774.502945E-3
773.390007E-3
773.464394E-3
771.702003E-3
773.756218E-3
772.295952E-3
772.701645E-3
773.966217E-3
772.346878E-3
775.262260E-3
773.779678E-3
773.924446E-3
774.932098E-3
773.509026E-3
775.732613E-3
773.857498E-3
773.309898E-3
773.943329E-3
772.516823E-3
774.758720E-3
773.062706E-3
773.006058E-3
774.509811E-3
773.662376E-3
776.492500E-3
775.157547E-3
775.040245E-3
776.023865E-3
774.778748E-3
776.976013E-3
775.128365E-3
774.427986E-3
775.231934E-3
773.119354E-3
775.926018E-3
774.434853E-3
774.241447E-3
775.306892E-3
774.181366E-3
776.900482E-3
775.413895E-3
775.401306E-3
776.604080E-3
774.740982E-3
777.687836E-3
776.168060E-3
776.081657E-3
777.019501E-3
775.858498E-3
778.559875E-3
776.908493E-3
776.839256E-3
777.598572E-3
776.280212E-3
778.729248E-3
777.195168E-3
776.982880E-3
778.091240E-3
776.505089E-3
778.750420E-3
777.383423E-3
777.067566E-3
778.241158E-3
776.741982E-3
778.982162E-3
777.505875E-3
777.241516E-3
778.502655E-3
776.911354E-3
779.374695E-3
777.869797E-3
777.540779E-3
778.865433E-3
777.307320E-3
779.686546E-3
778.232574E-3
778.001976E-3
779.189873E-3
777.534485E-3
779.663086E-3
778.503799E-3
778.230286E-3
779.375839E-3
777.891541E-3
780.031013E-3
778.877449E-3
778.537560E-3
779.740906E-3
777.179146E-3
779.873657E-3
779.044533E-3
778.792191E-3
780.245590E-3
778.805923E-3
780.867577E-3
779.821014E-3
779.322624E-3
780.800056E-3
778.361320E-3
781.127930E-3
779.673386E-3
778.967285E-3
779.595566E-3
777.136230E-3
778.165627E-3
775.243378E-3
773.217773E-3
772.872734E-3
770.154190E-3
771.593285E-3
770.031738E-3
769.726753E-3
771.032524E-3
769.874954E-3
772.277069E-3
771.385002E-3
770.970726E-3
772.472191E-3
769.895554E-3
772.940254E-3
771.917152E-3
771.592140E-3
772.799492E-3
770.942116E-3
772.788048E-3
771.463966E-3
771.161270E-3
772.472191E-3
770.999336E-3
773.890686E-3
773.092461E-3
773.000908E-3
774.660301E-3
772.895050E-3
775.100899E-3
773.592567E-3
772.864151E-3
773.721313E-3
771.566391E-3
773.531914E-3
772.603798E-3
772.313690E-3
773.729897E-3
771.881676E-3
774.701500E-3
773.709297E-3
773.406029E-3
775.130081E-3
773.230362E-3
775.699425E-3
774.844551E-3
774.343872E-3
776.014137E-3
773.918152E-3
776.457596E-3
775.718880E-3
775.236511E-3
776.946831E-3
774.194527E-3
776.988029E-3
776.204681E-3
775.758362E-3
777.236366E-3
775.215340E-3
777.803421E-3
776.861572E-3
776.312256E-3
777.802277E-3
775.417328E-3
777.966499E-3
777.160263E-3
776.638985E-3
778.240013E-3
775.876808E-3
778.309250E-3
777.567673E-3
777.046394E-3
778.555870E-3
775.159264E-3
778.147888E-3
777.842331E-3
777.388000E-3
779.171562E-3
776.867294E-3
779.481697E-3
778.678322E-3
778.067780E-3
779.716873E-3
777.363968E-3
779.560089E-3
779.031944E-3
778.325272E-3
780.179214E-3
777.881241E-3
780.313683E-3
779.894257E-3
779.165268E-3
780.794334E-3
778.668594E-3
781.174850E-3
780.695915E-3
780.143166E-3
781.217194E-3
779.166412E-3
781.454659E-3
780.767441E-3
779.653358E-3
780.175781E-3
776.803780E-3
777.638054E-3
775.377274E-3
773.080444E-3
772.738266E-3
769.576263E-3
771.349525E-3
770.744705E-3
770.145035E-3
771.826172E-3
770.079803E-3
772.540855E-3
772.285652E-3
771.997261E-3
773.048973E-3
771.249390E-3
773.419762E-3
772.737694E-3
772.007561E-3
773.059845E-3
