Notes :


2023-11-11 ¿ÀÀü 12:09:02
Volts
Ch : LED 2,
737.417221E-3
736.981201E-3
736.731720E-3
736.324883E-3
736.161804E-3
735.905457E-3
735.726357E-3
735.624504E-3
735.375023E-3
735.324097E-3
735.270309E-3
735.086060E-3
735.057449E-3
734.868050E-3
734.909821E-3
734.716415E-3
734.537888E-3
734.398270E-3
734.101295E-3
734.139061E-3
733.763123E-3
733.531952E-3
733.430672E-3
733.139420E-3
732.938004E-3
732.502556E-3
732.106018E-3
732.098007E-3
731.968117E-3
731.691742E-3
731.311226E-3
731.173325E-3
731.012535E-3
730.670929E-3
730.345917E-3
729.953384E-3
729.709625E-3
729.405212E-3
728.846169E-3
728.451920E-3
727.989578E-3
727.894592E-3
727.607346E-3
727.134705E-3
727.023125E-3
727.020264E-3
727.231407E-3
727.625084E-3
728.344917E-3
730.127907E-3
733.338547E-3
737.745094E-3
743.345833E-3
749.130821E-3
755.007362E-3
759.987831E-3
763.589287E-3
765.892410E-3
766.287231E-3
765.513611E-3
763.644218E-3
761.058426E-3
758.414268E-3
755.864525E-3
753.590584E-3
751.582146E-3
750.007439E-3
749.252129E-3
748.649597E-3
748.608971E-3
748.716545E-3
748.698807E-3
748.768616E-3
748.074532E-3
746.999359E-3
745.630646E-3
744.307137E-3
743.448257E-3
742.963600E-3
743.377876E-3
743.847084E-3
744.792938E-3
745.984840E-3
747.124100E-3
747.992706E-3
748.612976E-3
748.796082E-3
748.638153E-3
748.086548E-3
747.337532E-3
746.230888E-3
745.170593E-3
744.106865E-3
742.920685E-3
741.973114E-3
740.939713E-3
739.894295E-3
739.188766E-3
738.488960E-3
738.010025E-3
737.503624E-3
737.064171E-3
736.878777E-3
736.493111E-3
736.490822E-3
736.153793E-3
735.931206E-3
735.891724E-3
735.743523E-3
735.662842E-3
735.591888E-3
735.284042E-3
735.250854E-3
735.050583E-3
734.856033E-3
734.556770E-3
734.256935E-3
734.096718E-3
733.950233E-3
733.694458E-3
733.431816E-3
733.274460E-3
733.115959E-3
732.757187E-3
732.561493E-3
732.348633E-3
732.029915E-3
732.028198E-3
731.543541E-3
731.265450E-3
730.971336E-3
730.433464E-3
730.216599E-3
729.735947E-3
729.443550E-3
728.879929E-3
728.159523E-3
727.788162E-3
727.111244E-3
726.828003E-3
726.383400E-3
726.040077E-3
725.966835E-3
725.842094E-3
726.169968E-3
727.096367E-3
728.909111E-3
732.257652E-3
736.546326E-3
742.082977E-3
748.023605E-3
753.771973E-3
759.015083E-3
762.700081E-3
765.079308E-3
765.633774E-3
764.719391E-3
763.059425E-3
760.485077E-3
757.816315E-3
755.227661E-3
752.774620E-3
751.127815E-3
749.634933E-3
748.643875E-3
748.101997E-3
747.830200E-3
747.958374E-3
748.093987E-3
748.182106E-3
747.726059E-3
746.629143E-3
745.310211E-3
743.737221E-3
742.526436E-3
741.759682E-3
741.513062E-3
741.947937E-3
742.505264E-3
743.482590E-3
744.565773E-3
745.470428E-3
746.284103E-3
746.431732E-3
746.249199E-3
745.755386E-3
744.976044E-3
744.153786E-3
742.892647E-3
741.918182E-3
740.879059E-3
739.694023E-3
738.823128E-3
737.880707E-3
737.048149E-3
736.180115E-3
735.460854E-3
735.202789E-3
734.576225E-3
734.238625E-3
733.902740E-3
733.607483E-3
733.383751E-3
733.056450E-3
732.917404E-3
732.859039E-3
732.728577E-3
732.523155E-3
732.170105E-3
732.184410E-3
732.031631E-3
731.725502E-3
731.682587E-3
731.335831E-3
731.079483E-3
730.925560E-3
730.626869E-3
730.507851E-3
730.197144E-3
729.982567E-3
729.739380E-3
729.260445E-3
729.156303E-3
728.709412E-3
728.300858E-3
728.158951E-3
727.809334E-3
727.669144E-3
727.429390E-3
727.191353E-3
727.009964E-3
726.855469E-3
726.760483E-3
726.224899E-3
726.040077E-3
725.701904E-3
725.425529E-3
725.038147E-3
724.536896E-3
724.005890E-3
723.540688E-3
723.058891E-3
722.784805E-3
722.216606E-3
722.008896E-3
722.149658E-3
722.331619E-3
723.602486E-3
725.901604E-3
729.701042E-3
734.930992E-3
740.853882E-3
747.252846E-3
753.205490E-3
758.526421E-3
762.289810E-3
764.064789E-3
764.410973E-3
763.471985E-3
761.397171E-3
758.750153E-3
755.823326E-3
753.313637E-3
751.039696E-3
749.343109E-3
748.116302E-3
747.213364E-3
747.025681E-3
746.927834E-3
747.249413E-3
747.814178E-3
748.064804E-3
748.197556E-3
747.428513E-3
746.478653E-3
745.037270E-3
743.483734E-3
742.337036E-3
741.687012E-3
741.502190E-3
741.913033E-3
742.718697E-3
743.679428E-3
744.608688E-3
745.290184E-3
745.788002E-3
745.905304E-3
745.794868E-3
745.469284E-3
744.796944E-3
744.014168E-3
742.983055E-3
742.207146E-3
741.285324E-3
740.458488E-3
739.755249E-3
738.930702E-3
738.325310E-3
737.676430E-3
737.126541E-3
736.748314E-3
736.275673E-3
736.009026E-3
735.654831E-3
735.423660E-3
735.221672E-3
734.837723E-3
734.802246E-3
734.635735E-3
734.512711E-3
734.486961E-3
734.235764E-3
734.241486E-3
733.965111E-3
733.698463E-3
733.582306E-3
733.362007E-3
733.262444E-3
733.112526E-3
733.018684E-3
732.899094E-3
732.428169E-3
732.094002E-3
731.895447E-3
731.577873E-3
731.240845E-3
730.889511E-3
730.665207E-3
730.233765E-3
729.998016E-3
729.822922E-3
729.589462E-3
729.467583E-3
729.216957E-3
729.063606E-3
728.945160E-3
728.534317E-3
728.263664E-3
728.002167E-3
727.727509E-3
727.653122E-3
727.005386E-3
726.749039E-3
726.226616E-3
725.836945E-3
725.570869E-3
725.153160E-3
725.163460E-3
725.145149E-3
725.351143E-3
726.054382E-3
727.475166E-3
730.403137E-3
734.716415E-3
740.195274E-3
746.107292E-3
752.087975E-3
757.499313E-3
761.676979E-3
764.404678E-3
765.234947E-3
764.630699E-3
762.981606E-3
760.485649E-3
757.818031E-3
755.096054E-3
752.637291E-3
750.548744E-3
749.012947E-3
747.822189E-3
747.301483E-3
747.143555E-3
747.457123E-3
747.847366E-3
748.087120E-3
748.115158E-3
747.344971E-3
746.249199E-3
744.803238E-3
743.619347E-3
742.953873E-3
742.458344E-3
742.702675E-3
743.326950E-3
744.173241E-3
745.345688E-3
746.329308E-3
747.116089E-3
747.407341E-3
747.355270E-3
746.972466E-3
746.278954E-3
745.511627E-3
744.562340E-3
743.404770E-3
742.544746E-3
741.550827E-3
740.623856E-3
739.654541E-3
738.864899E-3
738.302994E-3
737.655830E-3
737.171745E-3
736.848450E-3
736.485100E-3
736.202431E-3
735.903740E-3
735.676575E-3
735.498047E-3
735.326958E-3
735.318947E-3
734.857178E-3
734.781075E-3
734.557915E-3
734.314728E-3
734.190559E-3
733.795166E-3
733.542824E-3
733.406639E-3
733.119965E-3
732.969475E-3
732.691956E-3
732.462502E-3
732.340622E-3
731.958389E-3
731.762695E-3
731.406784E-3
731.206512E-3
730.757332E-3
730.351067E-3
730.198860E-3
729.830360E-3
729.739952E-3
729.510498E-3
729.268456E-3
729.038429E-3
728.660774E-3
728.537750E-3
728.192139E-3
727.733231E-3
727.554703E-3
726.973915E-3
726.604271E-3
726.143074E-3
725.650406E-3
725.287056E-3
724.789810E-3
724.423599E-3
724.165535E-3
724.038506E-3
724.524879E-3
725.071335E-3
726.729584E-3
729.794312E-3
734.195709E-3
739.898872E-3
745.899582E-3
752.104568E-3
757.465553E-3
761.636925E-3
764.259911E-3
765.033531E-3
764.482498E-3
762.685204E-3
760.164642E-3
757.562828E-3
754.851723E-3
752.507973E-3
750.544739E-3
748.994637E-3
748.179817E-3
747.596741E-3
747.556686E-3
747.780991E-3
747.945213E-3
748.310852E-3
748.247910E-3
747.888565E-3
746.746445E-3
745.174026E-3
743.849945E-3
742.525864E-3
741.843224E-3
741.565132E-3
741.796875E-3
742.536736E-3
743.407059E-3
744.380379E-3
745.080185E-3
745.494461E-3
745.830345E-3
745.580864E-3
745.153427E-3
744.449615E-3
743.484306E-3
742.717552E-3
741.686440E-3
740.625000E-3
739.610481E-3
738.519287E-3
737.781143E-3
736.818123E-3
736.234474E-3
735.770416E-3
735.234261E-3
734.944153E-3
734.584808E-3
734.314156E-3
734.062958E-3
733.676720E-3
733.524513E-3
733.006668E-3
733.000946E-3
732.852173E-3
732.535744E-3
732.457352E-3
732.127762E-3
731.940079E-3
731.715775E-3
731.401062E-3
731.233406E-3
730.777359E-3
730.559349E-3
730.353355E-3
730.015755E-3
729.870415E-3
729.568291E-3
729.241562E-3
728.981781E-3
728.631592E-3
728.396988E-3
727.931213E-3
727.704048E-3
727.371597E-3
727.027702E-3
726.694107E-3
726.397705E-3
726.070404E-3
725.877571E-3
725.641823E-3
725.459862E-3
725.340271E-3
725.216675E-3
725.020981E-3
724.810410E-3
724.770927E-3
724.457932E-3
724.127769E-3
723.921204E-3
723.363304E-3
722.890663E-3
722.285843E-3
721.919060E-3
721.537971E-3
721.233559E-3
721.047592E-3
720.823288E-3
721.197510E-3
722.153091E-3
723.993874E-3
727.540398E-3
732.274818E-3
738.280106E-3
744.634438E-3
750.735283E-3
756.175232E-3
760.084534E-3
762.314415E-3
763.068581E-3
762.197685E-3
760.382652E-3
757.912445E-3
755.260277E-3
752.716255E-3
750.454330E-3
748.774338E-3
747.212791E-3
746.415138E-3
746.290398E-3
746.491241E-3
747.018814E-3
747.391319E-3
747.823334E-3
748.057365E-3
747.607613E-3
746.717262E-3
745.322227E-3
743.987846E-3
742.908669E-3
742.208290E-3
742.166519E-3
742.380524E-3
743.031693E-3
743.871689E-3
744.756317E-3
745.518494E-3
745.881844E-3
745.896149E-3
745.789146E-3
745.253563E-3
744.607544E-3
743.876839E-3
743.000221E-3
742.090988E-3
741.094208E-3
740.139771E-3
739.076042E-3
738.403130E-3
737.639236E-3
736.956596E-3
736.524010E-3
735.966682E-3
735.474586E-3
735.227394E-3
734.826279E-3
734.570503E-3
734.307861E-3
734.144211E-3
734.104156E-3
733.744240E-3
733.782005E-3
733.505630E-3
733.381462E-3
733.217812E-3
732.853889E-3
732.962036E-3
732.634735E-3
732.464790E-3
732.394981E-3
732.071686E-3
731.969261E-3
731.675148E-3
731.484032E-3
731.240845E-3
731.001663E-3
730.805969E-3
730.440903E-3
730.025482E-3
729.990578E-3
729.527664E-3
729.209518E-3
728.830719E-3
728.719139E-3
728.436470E-3
728.120613E-3
728.074837E-3
727.786446E-3
727.548981E-3
727.491760E-3
727.159309E-3
727.130699E-3
726.954460E-3
726.707268E-3
726.455498E-3
725.889015E-3
725.589752E-3
725.237274E-3
724.793243E-3
724.551773E-3
724.215317E-3
723.938370E-3
723.905182E-3
724.006462E-3
724.301147E-3
724.770355E-3
726.648903E-3
729.657555E-3
734.119606E-3
739.700890E-3
745.448685E-3
751.285744E-3
756.205559E-3
759.938622E-3
762.012291E-3
762.314987E-3
761.333656E-3
759.498596E-3
756.898499E-3
754.206276E-3
751.393318E-3
749.181747E-3
747.335815E-3
745.853233E-3
745.030403E-3
744.429588E-3
744.377518E-3
744.665909E-3
744.827843E-3
744.971466E-3
744.515419E-3
743.634224E-3
742.457199E-3
740.995789E-3
739.981270E-3
739.363861E-3
739.316368E-3
739.686012E-3
740.600967E-3
741.825485E-3
742.904663E-3
744.008446E-3
744.588661E-3
744.828987E-3
744.771767E-3
744.159508E-3
743.421936E-3
742.401695E-3
741.447830E-3
740.429306E-3
739.332390E-3
738.362503E-3
737.309647E-3
736.383247E-3
735.749245E-3
735.048294E-3
734.573936E-3
734.082413E-3
733.656693E-3
733.584595E-3
733.200073E-3
733.059311E-3
732.837296E-3
732.637024E-3
732.503128E-3
732.397842E-3
732.287979E-3
732.067108E-3
731.688309E-3
731.631088E-3
731.282616E-3
731.185913E-3
731.157303E-3
730.713844E-3
730.586815E-3
730.330467E-3
730.336761E-3
730.107307E-3
729.865265E-3
729.878998E-3
729.502487E-3
729.248428E-3
728.961182E-3
728.623009E-3
728.501129E-3
728.114319E-3
728.021049E-3
727.845955E-3
727.383614E-3
727.161026E-3
726.829720E-3
726.643753E-3
726.439476E-3
726.089859E-3
725.962257E-3
725.514221E-3
725.380325E-3
724.984932E-3
724.547768E-3
724.179268E-3
723.745537E-3
723.383331E-3
722.901535E-3
722.529030E-3
722.543907E-3
722.239494E-3
722.523308E-3
723.060608E-3
724.524307E-3
727.397919E-3
731.760979E-3
737.009239E-3
742.832565E-3
748.855019E-3
754.307556E-3
758.299828E-3
760.926247E-3
761.833763E-3
761.117935E-3
759.573555E-3
757.166290E-3
754.623413E-3
751.916885E-3
749.530220E-3
747.645950E-3
746.035194E-3
745.063019E-3
744.502258E-3
744.261932E-3
744.529724E-3
744.692802E-3
744.847298E-3
744.810104E-3
744.342041E-3
743.434525E-3
741.945076E-3
740.738869E-3
739.639664E-3
739.094925E-3
739.053726E-3
739.450264E-3
740.406418E-3
741.502190E-3
742.342186E-3
743.242836E-3
743.734932E-3
743.880844E-3
743.638229E-3
743.023682E-3
742.535591E-3
741.660690E-3
740.649033E-3
739.615631E-3
738.633156E-3
737.644958E-3
736.596107E-3
735.693169E-3
734.707260E-3
734.179687E-3
733.739662E-3
733.248138E-3
733.127403E-3
732.790947E-3
732.385826E-3
732.177544E-3
732.001877E-3
731.671143E-3
731.482887E-3
731.260300E-3
731.331253E-3
731.088638E-3
730.952454E-3
730.746460E-3
730.673218E-3
730.502129E-3
730.098724E-3
730.024910E-3
729.790306E-3
729.512215E-3
729.443550E-3
729.179192E-3
728.995514E-3
728.770065E-3
728.428459E-3
728.273392E-3
727.885437E-3
727.661705E-3
727.290916E-3
726.953316E-3
726.746178E-3
726.319885E-3
726.046944E-3
725.923920E-3
725.467300E-3
725.304794E-3
724.955750E-3
724.930000E-3
724.953461E-3
724.465942E-3
724.309731E-3
724.027061E-3
723.808479E-3
723.503494E-3
723.134422E-3
722.883797E-3
722.363091E-3
722.001457E-3
721.562576E-3
721.111107E-3
720.759201E-3
720.483971E-3
720.587540E-3
720.869064E-3
721.802902E-3
723.874283E-3
727.243996E-3
732.337761E-3
738.163376E-3
744.316864E-3
750.429726E-3
755.450821E-3
759.240532E-3
761.484718E-3
761.853218E-3
761.065865E-3
758.971024E-3
756.486511E-3
753.849792E-3
751.186180E-3
748.945999E-3
747.030830E-3
745.814896E-3
744.941139E-3
744.683647E-3
744.735146E-3
744.969749E-3
745.366859E-3
745.978546E-3
746.019745E-3
745.755386E-3
744.764328E-3
743.380165E-3
741.989708E-3
740.683365E-3
739.995003E-3
739.716911E-3
739.846230E-3
740.467072E-3
741.129112E-3
742.106438E-3
742.622566E-3
743.171883E-3
743.384743E-3
742.959595E-3
742.654610E-3
741.973686E-3
741.105080E-3
740.330315E-3
739.314651E-3
738.468361E-3
737.401199E-3
736.306000E-3
735.535240E-3
734.877777E-3
734.387398E-3
733.774567E-3
733.263016E-3
732.954597E-3
732.542038E-3
732.197571E-3
731.874847E-3
731.682014E-3
731.469727E-3
731.178474E-3
731.228828E-3
730.839729E-3
730.714417E-3
730.569649E-3
730.331039E-3
730.358505E-3
730.073547E-3
729.889870E-3
729.792595E-3
729.479599E-3
729.416656E-3
729.106522E-3
728.984642E-3
728.865051E-3
728.566360E-3
728.306007E-3
728.051949E-3
727.869415E-3
727.701759E-3
727.162743E-3
727.010536E-3
726.679230E-3
726.432037E-3
726.412582E-3
725.868988E-3
725.871277E-3
725.574875E-3
725.436401E-3
725.484467E-3
725.304794E-3
725.292778E-3
725.230408E-3
725.145149E-3
725.041008E-3
724.724007E-3
724.515152E-3
724.279976E-3
724.130058E-3
723.964119E-3
723.348999E-3
723.100090E-3
722.579956E-3
722.359657E-3
722.043228E-3
721.842384E-3
721.984291E-3
722.073555E-3
722.860336E-3
724.931145E-3
728.220177E-3
732.983780E-3
738.704681E-3
744.871902E-3
750.613403E-3
755.276871E-3
758.981895E-3
760.888481E-3
761.361122E-3
760.519981E-3
758.465767E-3
756.099129E-3
753.317642E-3
750.827980E-3
748.670769E-3
746.734428E-3
745.450974E-3
744.564056E-3
744.267654E-3
744.452477E-3
744.551468E-3
745.068741E-3
745.275307E-3
745.292473E-3
744.774628E-3
743.609047E-3
742.307281E-3
741.008377E-3
740.106010E-3
739.763260E-3
739.773560E-3
740.436745E-3
741.250420E-3
742.155647E-3
743.190193E-3
743.773842E-3
744.246483E-3
744.318581E-3
744.045067E-3
743.625641E-3
742.763329E-3
741.959953E-3
