Notes :


2023-10-22 ¿ÀÈÄ 11:46:16
Volts
Ch : LED 2,
432.002449E-3
433.535385E-3
434.038925E-3
432.649040E-3
435.750389E-3
433.085060E-3
434.672356E-3
435.040855E-3
434.009171E-3
437.194061E-3
434.416008E-3
435.757256E-3
435.923767E-3
434.779930E-3
437.845230E-3
435.317802E-3
436.597824E-3
436.844444E-3
435.601044E-3
438.676643E-3
436.122322E-3
437.261581E-3
437.749672E-3
436.456490E-3
439.708900E-3
436.754608E-3
437.994003E-3
438.331604E-3
437.014389E-3
440.313148E-3
437.408066E-3
438.668060E-3
439.017677E-3
437.603760E-3
440.807533E-3
438.199425E-3
438.937569E-3
439.660835E-3
438.160515E-3
441.118813E-3
438.351631E-3
439.420509E-3
439.409637E-3
438.325882E-3
441.513634E-3
438.663483E-3
440.010452E-3
440.713692E-3
439.482307E-3
442.623138E-3
440.067101E-3
440.988350E-3
441.563416E-3
440.170097E-3
442.948723E-3
439.879417E-3
439.988136E-3
438.594818E-3
435.261726E-3
436.344910E-3
431.886864E-3
430.919838E-3
429.868698E-3
427.316093E-3
429.919624E-3
426.885223E-3
428.045654E-3
428.300285E-3
425.713348E-3
430.109596E-3
428.129768E-3
428.938866E-3
429.409218E-3
427.935791E-3
431.013107E-3
428.903389E-3
429.603195E-3
429.754257E-3
428.067398E-3
430.910110E-3
428.558922E-3
429.808044E-3
430.753899E-3
428.137207E-3
432.409286E-3
430.911827E-3
432.334328E-3
432.513428E-3
430.940437E-3
434.181404E-3
431.421089E-3
431.937218E-3
432.124901E-3
430.396271E-3
433.800316E-3
431.426239E-3
431.532097E-3
431.993866E-3
430.432320E-3
433.566284E-3
431.116104E-3
432.089424E-3
432.497978E-3
431.402779E-3
434.699249E-3
432.480240E-3
433.140564E-3
433.907890E-3
432.381248E-3
435.638809E-3
433.190346E-3
433.963394E-3
434.825706E-3
433.297920E-3
436.642456E-3
434.395981E-3
435.198212E-3
435.909462E-3
432.974052E-3
436.841011E-3
434.959602E-3
435.940361E-3
435.997581E-3
434.572792E-3
437.751389E-3
435.190201E-3
435.892296E-3
436.734581E-3
434.327316E-3
438.161087E-3
435.461998E-3
435.778999E-3
436.724854E-3
433.580589E-3
437.568855E-3
436.078835E-3
436.323166E-3
436.987495E-3
435.504913E-3
438.403702E-3
436.371231E-3
436.543465E-3
437.088776E-3
434.963036E-3
439.106369E-3
436.973190E-3
437.892723E-3
439.272881E-3
437.168884E-3
440.047073E-3
438.042068E-3
438.547325E-3
438.617134E-3
435.573578E-3
438.242340E-3
434.651756E-3
433.190918E-3
432.136917E-3
428.054237E-3
429.749680E-3
426.231194E-3
425.281906E-3
425.716782E-3
423.752403E-3
426.724434E-3
424.976921E-3
425.905609E-3
426.747894E-3
424.723434E-3
428.196716E-3
426.488686E-3
427.114105E-3
427.996445E-3
426.307297E-3
429.186058E-3
427.195930E-3
427.932930E-3
428.590393E-3
426.953888E-3
430.381393E-3
428.652763E-3
429.712486E-3
430.646324E-3
428.981781E-3
432.254791E-3
430.214310E-3
430.569649E-3
431.332970E-3
428.142357E-3
431.636238E-3
429.625511E-3
430.081558E-3
430.731010E-3
428.646469E-3
431.855965E-3
429.583168E-3
430.078125E-3
431.442833E-3
429.810333E-3
433.220100E-3
431.235695E-3
431.898308E-3
432.778931E-3
431.465149E-3
434.546471E-3
432.186699E-3
432.483673E-3
433.738518E-3
432.248497E-3
435.447693E-3
433.502197E-3
434.121323E-3
435.370445E-3
433.479309E-3
437.031555E-3
434.831429E-3
435.270882E-3
436.296844E-3
432.588387E-3
436.721420E-3
434.675217E-3
436.030769E-3
437.029266E-3
433.121681E-3
437.415504E-3
436.048508E-3
436.562920E-3
437.126541E-3
435.320663E-3
438.091850E-3
436.351204E-3
436.651611E-3
437.711334E-3
435.597038E-3
438.755608E-3
437.191200E-3
437.449837E-3
438.887215E-3
436.827278E-3
440.151215E-3
438.574791E-3
439.098930E-3
439.838219E-3
438.273239E-3
441.150856E-3
438.174248E-3
438.166809E-3
437.747383E-3
432.815552E-3
435.088921E-3
431.576157E-3
429.953957E-3
429.302788E-3
426.203156E-3
428.489113E-3
425.991440E-3
425.795174E-3
427.367592E-3
425.717354E-3
428.594971E-3
427.117538E-3
427.448845E-3
429.061317E-3
427.333832E-3
430.337906E-3
428.348923E-3
428.248215E-3
429.598045E-3
427.920914E-3
430.707550E-3
428.836441E-3
429.092216E-3
430.607414E-3
427.407646E-3
432.189560E-3
430.808830E-3
431.546974E-3
432.732582E-3
430.755615E-3
433.835793E-3
431.443405E-3
431.985855E-3
432.869911E-3
430.563927E-3
433.310509E-3
431.829643E-3
431.708908E-3
432.545471E-3
428.316307E-3
432.600975E-3
431.321526E-3
431.849670E-3
433.594894E-3
431.421661E-3
434.754181E-3
433.109665E-3
433.729362E-3
434.682083E-3
432.774925E-3
436.199570E-3
434.514427E-3
435.119820E-3
436.633301E-3
434.035492E-3
437.397766E-3
435.717773E-3
435.706329E-3
437.446404E-3
435.523796E-3
438.131905E-3
436.532021E-3
436.976624E-3
438.468361E-3
435.750389E-3
438.670921E-3
437.261581E-3
437.452698E-3
438.535309E-3
436.394119E-3
439.377022E-3
437.785721E-3
438.031197E-3
439.109230E-3
436.750603E-3
440.124893E-3
438.652611E-3
438.462067E-3
439.422226E-3
437.034988E-3
440.283394E-3
438.688087E-3
439.216805E-3
440.532303E-3
437.713623E-3
441.211510E-3
439.495468E-3
439.855385E-3
441.524506E-3
439.191055E-3
442.599106E-3
441.362000E-3
441.451263E-3
442.417717E-3
438.883781E-3
440.416718E-3
437.448692E-3
435.015106E-3
434.291840E-3
429.424667E-3
431.057739E-3
428.366089E-3
427.159309E-3
428.047943E-3
424.984932E-3
428.196144E-3
426.984215E-3
427.280045E-3
428.217316E-3
426.065826E-3
429.742813E-3
428.851891E-3
428.735733E-3
429.758263E-3
427.090073E-3
429.924202E-3
428.603554E-3
428.423309E-3
429.473305E-3
427.202797E-3
430.562782E-3
429.592896E-3
429.787445E-3
431.708908E-3
429.439545E-3
432.509422E-3
431.303787E-3
431.865692E-3
432.849312E-3
430.211449E-3
433.027267E-3
431.718063E-3
431.509209E-3
432.230186E-3
429.056168E-3
432.137489E-3
431.203079E-3
431.228256E-3
432.497978E-3
429.864120E-3
433.275032E-3
432.053375E-3
431.944084E-3
433.478165E-3
430.696106E-3
433.964539E-3
433.180618E-3
433.145714E-3
434.291840E-3
432.084274E-3
435.543251E-3
434.197426E-3
434.323311E-3
435.515213E-3
432.416153E-3
436.154938E-3
435.337257E-3
435.144424E-3
436.262512E-3
433.668137E-3
436.627579E-3
435.536385E-3
435.707474E-3
436.762619E-3
434.527016E-3
437.399483E-3
436.239052E-3
436.097145E-3
437.097931E-3
434.774780E-3
437.686157E-3
436.261368E-3
436.284828E-3
437.107086E-3
434.349632E-3
437.901878E-3
436.858177E-3
436.845016E-3
438.198280E-3
435.813332E-3
438.774490E-3
437.855530E-3
438.012886E-3
438.900375E-3
436.917686E-3
440.081406E-3
439.528656E-3
439.426804E-3
440.669060E-3
438.031197E-3
440.239906E-3
437.967110E-3
436.302567E-3
435.497475E-3
430.947304E-3
432.016182E-3
428.727150E-3
427.024841E-3
427.070618E-3
424.073982E-3
426.880646E-3
425.761986E-3
426.039505E-3
427.505493E-3
425.317383E-3
428.635025E-3
427.462578E-3
427.711487E-3
429.085350E-3
426.961327E-3
430.110741E-3
429.280472E-3
429.179192E-3
430.478096E-3
428.236771E-3
431.012535E-3
430.082130E-3
430.602837E-3
431.726646E-3
429.535103E-3
432.936287E-3
432.269096E-3
432.044220E-3
433.450127E-3
430.868340E-3
433.551979E-3
432.002449E-3
431.507492E-3
432.152939E-3
429.955673E-3
433.034706E-3
431.502342E-3
431.639099E-3
432.743454E-3
430.141640E-3
433.986282E-3
432.893944E-3
432.712555E-3
434.576797E-3
431.992149E-3
435.815048E-3
434.907532E-3
434.422874E-3
435.551834E-3
433.589745E-3
437.056732E-3
435.312080E-3
435.028267E-3
436.352348E-3
434.616852E-3
438.023758E-3
437.211800E-3
436.841011E-3
438.073540E-3
435.884857E-3
438.747597E-3
437.977409E-3
437.187767E-3
438.506699E-3
436.250496E-3
439.356422E-3
438.400841E-3
438.150215E-3
439.159012E-3
436.629868E-3
440.195847E-3
438.435745E-3
438.004875E-3
439.106941E-3
437.268448E-3
440.324020E-3
439.249992E-3
438.868904E-3
440.329170E-3
438.169098E-3
441.546249E-3
440.867615E-3
440.452766E-3
441.501045E-3
439.439964E-3
442.830849E-3
441.360855E-3
440.419579E-3
440.728569E-3
437.022400E-3
438.397408E-3
435.037994E-3
432.218742E-3
431.566429E-3
427.772141E-3
430.019188E-3
427.926636E-3
426.719284E-3
427.750397E-3
425.684166E-3
429.467010E-3
429.009247E-3
428.723717E-3
429.986572E-3
428.034210E-3
432.047653E-3
430.648613E-3
430.136490E-3
431.189919E-3
428.858185E-3
432.309151E-3
431.070328E-3
430.388260E-3
431.705475E-3
429.747391E-3
433.962822E-3
432.813835E-3
432.502556E-3
434.084702E-3
431.882858E-3
435.566139E-3
434.394264E-3
433.252144E-3
434.294128E-3
431.860542E-3
435.289192E-3
434.087563E-3
433.039856E-3
434.477234E-3
431.720352E-3
435.766983E-3
434.069252E-3
433.481026E-3
434.699249E-3
432.532310E-3
436.663055E-3
435.320663E-3
434.654617E-3
436.102295E-3
433.878708E-3
437.699318E-3
436.588097E-3
435.610771E-3
436.833572E-3
434.866905E-3
438.883209E-3
438.000298E-3
437.180328E-3
438.812828E-3
436.290550E-3
440.136337E-3
438.790512E-3
438.003159E-3
439.125252E-3
436.916542E-3
440.269661E-3
439.177322E-3
438.404274E-3
439.778709E-3
437.755966E-3
440.715408E-3
439.623642E-3
438.761902E-3
439.983559E-3
437.818909E-3
441.291046E-3
440.051651E-3
439.178467E-3
440.564919E-3
438.298416E-3
442.573929E-3
441.158867E-3
440.012741E-3
441.388893E-3
439.097214E-3
443.295479E-3
442.278671E-3
441.432953E-3
442.736435E-3
440.169525E-3
443.363571E-3
441.182327E-3
438.828850E-3
438.059235E-3
433.765984E-3
435.096931E-3
431.567001E-3
428.993225E-3
428.837013E-3
426.167679E-3
429.052734E-3
427.605057E-3
427.007103E-3
428.320885E-3
426.269531E-3
430.377960E-3
429.314232E-3
428.805542E-3
429.712486E-3
428.020477E-3
431.382179E-3
430.223465E-3
429.632950E-3
430.785370E-3
428.700829E-3
432.176399E-3
431.090355E-3
430.133057E-3
431.789017E-3
429.995155E-3
433.339119E-3
432.711411E-3
432.208443E-3
433.133125E-3
430.682945E-3
434.269524E-3
432.807541E-3
431.882286E-3
432.601547E-3
430.174255E-3
433.828354E-3
431.962967E-3
431.295204E-3
432.390404E-3
430.621147E-3
433.978844E-3
432.679367E-3
432.169533E-3
433.840370E-3
431.584167E-3
435.241699E-3
434.149361E-3
433.191490E-3
434.608841E-3
432.511711E-3
436.427307E-3
434.878922E-3
434.162521E-3
435.682297E-3
433.890724E-3
437.557411E-3
436.639595E-3
435.806465E-3
436.786652E-3
434.494400E-3
438.310432E-3
437.045860E-3
436.305428E-3
437.563705E-3
435.337257E-3
439.034843E-3
437.207222E-3
436.668205E-3
437.688446E-3
435.272026E-3
439.033127E-3
437.578583E-3
437.105942E-3
437.996292E-3
435.704613E-3
439.545822E-3
438.398552E-3
437.792015E-3
439.327812E-3
437.211800E-3
440.851021E-3
439.490891E-3
438.745308E-3
439.699745E-3
437.230110E-3
439.737511E-3
437.481880E-3
435.349274E-3
434.212875E-3
429.639244E-3
431.562996E-3
428.462791E-3
426.209450E-3
426.651192E-3
424.065971E-3
427.993011E-3
426.783371E-3
425.620079E-3
427.655983E-3
425.951958E-3
429.491043E-3
428.753471E-3
428.310013E-3
429.709053E-3
428.085136E-3
431.529808E-3
430.259514E-3
429.596329E-3
430.687523E-3
428.881645E-3
432.804108E-3
431.784439E-3
431.401634E-3
432.627296E-3
431.292343E-3
434.445190E-3
433.108521E-3
432.184410E-3
433.258438E-3
430.936432E-3
434.448624E-3
432.804108E-3
431.791878E-3
432.743454E-3
430.324173E-3
433.866692E-3
432.464218E-3
432.055664E-3
433.332825E-3
431.272888E-3
435.193634E-3
434.254074E-3
433.348846E-3
434.855461E-3
432.726860E-3
436.573792E-3
434.964752E-3
434.537888E-3
435.925484E-3
434.120750E-3
437.884140E-3
436.902237E-3
435.958672E-3
437.129974E-3
435.451126E-3
439.401627E-3
438.005447E-3
437.054443E-3
438.221741E-3
435.960388E-3
439.141846E-3
437.992859E-3
437.360001E-3
438.548470E-3
436.110306E-3
439.596748E-3
438.454056E-3
437.845802E-3
438.874626E-3
437.047577E-3
440.587807E-3
438.951302E-3
438.426018E-3
439.660835E-3
437.819481E-3
441.847801E-3
440.522575E-3
439.617348E-3
440.560341E-3
438.079834E-3
440.425301E-3
437.223816E-3
434.069252E-3
433.186913E-3
428.952026E-3
430.896378E-3
428.097153E-3
426.561356E-3
427.005959E-3
424.616432E-3
428.144073E-3
427.168465E-3
426.696968E-3
427.916908E-3
426.046944E-3
429.955673E-3
429.277611E-3
428.188705E-3
429.454422E-3
427.229118E-3
431.029129E-3
429.746819E-3
428.601265E-3
429.602623E-3
427.912903E-3
431.783867E-3
430.658913E-3
430.062675E-3
431.615067E-3
429.726791E-3
433.802605E-3
432.422447E-3
431.596756E-3
432.833862E-3
430.304718E-3
433.622360E-3
432.409286E-3
430.910683E-3
431.830215E-3
429.671860E-3
433.165169E-3
431.960106E-3
431.128120E-3
432.287979E-3
430.211449E-3
434.410286E-3
433.372879E-3
432.474518E-3
433.534813E-3
431.599045E-3
435.392761E-3
434.181404E-3
433.466721E-3
434.573364E-3
432.682800E-3
436.622429E-3
435.118103E-3
434.685516E-3
435.876274E-3
433.692741E-3
437.104797E-3
435.857391E-3
435.019112E-3
436.352921E-3
433.765984E-3
437.730789E-3
436.454201E-3
435.664558E-3
436.697960E-3
434.459496E-3
438.268661E-3
436.614990E-3
435.796165E-3
436.746597E-3
434.632301E-3
438.107872E-3
437.243271E-3
436.250496E-3
437.461281E-3
435.219955E-3
438.869476E-3
437.815475E-3
437.133408E-3
437.690735E-3
435.409927E-3
438.424301E-3
435.262871E-3
432.884789E-3
431.822205E-3
427.400780E-3
429.332542E-3
426.601982E-3
424.869919E-3
425.114250E-3
422.339058E-3
425.916481E-3
424.531174E-3
423.496628E-3
424.419594E-3
423.074341E-3
426.857185E-3
425.931931E-3
425.417519E-3
426.424026E-3
424.439621E-3
428.002739E-3
426.957321E-3
426.211166E-3
427.315521E-3
424.957466E-3
428.596687E-3
427.858543E-3
427.225113E-3
428.671074E-3
427.055168E-3
430.515289E-3
429.302788E-3
428.389549E-3
429.285622E-3
427.032852E-3
430.527306E-3
428.816414E-3
427.957535E-3
428.843880E-3
425.889015E-3
429.834366E-3
428.237915E-3
427.592468E-3
428.494263E-3
426.175690E-3
429.972839E-3
428.422165E-3
428.138924E-3
429.198647E-3
426.917267E-3
430.467796E-3
429.840660E-3
429.067039E-3
430.112457E-3
428.077126E-3
432.060814E-3
430.701828E-3
430.018616E-3
431.543541E-3
429.323387E-3
432.924843E-3
431.588745E-3
430.975914E-3
431.965828E-3
429.388618E-3
432.802963E-3
431.330681E-3
430.708694E-3
431.838799E-3
429.617500E-3
433.319664E-3
432.079697E-3
431.339836E-3
432.353210E-3
429.986000E-3
434.029770E-3
432.679939E-3
431.851959E-3
433.383751E-3
431.134415E-3
434.801674E-3
433.505058E-3
432.584381E-3
432.849312E-3
429.305077E-3
431.302071E-3
427.698326E-3
425.751114E-3
424.746323E-3
421.192932E-3
424.140358E-3
422.135353E-3
421.239853E-3
422.343063E-3
420.269966E-3
423.973846E-3
422.819138E-3
423.047447E-3
424.618721E-3
422.584534E-3
426.357651E-3
424.972343E-3
424.140930E-3
425.257301E-3
423.502350E-3
427.139854E-3
426.121330E-3
425.855255E-3
427.678299E-3
425.935364E-3
430.230904E-3
428.779221E-3
428.140640E-3
429.148865E-3
426.825142E-3
430.250931E-3
427.880859E-3
426.584816E-3
427.163315E-3
424.602127E-3
428.010750E-3
426.966476E-3
426.588249E-3
427.904892E-3
425.541115E-3
428.934288E-3
427.548409E-3
426.931000E-3
428.042221E-3
426.061249E-3
429.992867E-3
428.548622E-3
428.456497E-3
429.755402E-3
427.672005E-3
431.382751E-3
430.810547E-3
430.056381E-3
431.161880E-3
428.875351E-3
