Notes :


2023-10-26 ¿ÀÈÄ 10:35:36
Volts
Ch : LED 2,Ch : LED 3,Ch : LED 1,Ch : LED 1 AMBIENT,Ch : LED 2 - LED3,Ch : LED 1 - LED 1 AMBIENT,
414.965630E-3,-5.184746E-3,-5.671120E-3,-5.705452E-3,56.648254E-6,34.332275E-6
415.268326E-3,-4.751015E-3,-5.073738E-3,-5.218506E-3,56.648254E-6,144.767761E-6
413.860130E-3,-6.379509E-3,-6.263351E-3,-6.525993E-3,56.648254E-6,262.641907E-6
415.271187E-3,-4.562759E-3,-4.903221E-3,-5.002785E-3,56.648254E-6,99.563599E-6
415.116119E-3,-5.113792E-3,-5.395889E-3,-5.579567E-3,56.648254E-6,183.677673E-6
415.918922E-3,-5.254555E-3,-5.597305E-3,-5.776405E-3,56.648254E-6,179.100037E-6
417.154312E-3,-4.640579E-3,-5.085754E-3,-5.463409E-3,56.648254E-6,377.655029E-6
416.498566E-3,-6.455040E-3,-6.198692E-3,-6.615257E-3,56.648254E-6,416.564941E-6
418.687820E-3,-4.861450E-3,-4.904366E-3,-5.014801E-3,56.648254E-6,110.435486E-6
418.566513E-3,-5.163574E-3,-5.506897E-3,-5.589294E-3,56.648254E-6,82.397461E-6
418.668938E-3,-5.298615E-3,-5.545235E-3,-5.819321E-3,56.648254E-6,274.085999E-6
418.576241E-3,-5.126953E-3,-5.156708E-3,-5.334091E-3,56.648254E-6,177.383423E-6
416.979790E-3,-6.226730E-3,-6.357193E-3,-6.602097E-3,56.648254E-6,244.903564E-6
417.990875E-3,-4.620552E-3,-5.110359E-3,-5.100060E-3,56.648254E-6,-10.299683E-6
417.249870E-3,-5.137253E-3,-5.404472E-3,-5.527496E-3,56.648254E-6,123.023987E-6
417.127419E-3,-5.211067E-3,-5.557251E-3,-5.945206E-3,56.648254E-6,387.954712E-6
416.821861E-3,-4.969025E-3,-5.133247E-3,-5.534363E-3,56.648254E-6,401.115417E-6
416.202736E-3,-6.125450E-3,-6.387520E-3,-6.586647E-3,56.648254E-6,199.127197E-6
418.046379E-3,-4.434013E-3,-5.013084E-3,-5.130386E-3,56.648254E-6,117.301941E-6
417.916489E-3,-5.118942E-3,-5.310631E-3,-5.563545E-3,56.648254E-6,252.914429E-6
418.073845E-3,-5.215073E-3,-5.729485E-3,-6.041336E-3,56.648254E-6,311.851501E-6
418.927574E-3,-4.656029E-3,-5.216789E-3,-5.622482E-3,56.648254E-6,405.693054E-6
418.258095E-3,-5.991554E-3,-6.348610E-3,-6.509972E-3,56.648254E-6,161.361694E-6
420.121765E-3,-4.478645E-3,-5.054283E-3,-4.708099E-3,56.648254E-6,-346.183777E-6
419.934082E-3,-5.074883E-3,-5.558968E-3,-5.295753E-3,56.648254E-6,-263.214111E-6
420.335197E-3,-5.154991E-3,-5.752945E-3,-5.934334E-3,56.648254E-6,181.388855E-6
421.002960E-3,-4.920387E-3,-5.354118E-3,-5.521774E-3,56.648254E-6,167.655945E-6
420.009041E-3,-6.070518E-3,-6.358337E-3,-6.562614E-3,56.648254E-6,204.277039E-6
421.894455E-3,-4.578781E-3,-4.897499E-3,-4.929543E-3,56.648254E-6,32.043457E-6
421.690178E-3,-5.056000E-3,-5.494308E-3,-5.328941E-3,56.648254E-6,-165.367126E-6
421.727371E-3,-5.295753E-3,-5.945206E-3,-5.910873E-3,56.648254E-6,-34.332275E-6
422.266960E-3,-5.110931E-3,-5.265999E-3,-5.482292E-3,56.648254E-6,216.293335E-6
421.340561E-3,-6.270218E-3,-6.218719E-3,-6.418419E-3,56.648254E-6,199.699402E-6
422.868919E-3,-4.665184E-3,-4.764748E-3,-4.865456E-3,56.648254E-6,100.708008E-6
422.544479E-3,-5.360413E-3,-5.222511E-3,-5.394173E-3,56.648254E-6,171.661377E-6
422.163391E-3,-5.588150E-3,-5.782127E-3,-5.936050E-3,56.648254E-6,153.923035E-6
422.636032E-3,-5.092049E-3,-5.308914E-3,-5.434799E-3,56.648254E-6,125.885010E-6
421.669579E-3,-6.110001E-3,-6.484795E-3,-6.324577E-3,56.648254E-6,-160.217285E-6
423.348999E-3,-4.474640E-3,-4.811096E-3,-4.860878E-3,56.648254E-6,49.781799E-6
423.019409E-3,-5.146408E-3,-5.344963E-3,-5.356407E-3,56.648254E-6,11.444092E-6
422.892952E-3,-5.484009E-3,-6.128311E-3,-5.916595E-3,56.648254E-6,-211.715698E-6
423.385048E-3,-4.969597E-3,-5.562401E-3,-5.423927E-3,56.648254E-6,-138.473511E-6
422.214890E-3,-6.203842E-3,-6.501389E-3,-6.313133E-3,56.648254E-6,-188.255310E-6
423.686028E-3,-4.640007E-3,-4.941559E-3,-5.021095E-3,56.648254E-6,79.536438E-6
423.331833E-3,-5.183029E-3,-5.428505E-3,-5.417061E-3,56.648254E-6,-11.444092E-6
423.065758E-3,-5.798149E-3,-5.927467E-3,-5.920601E-3,56.648254E-6,-6.866455E-6
423.575592E-3,-5.169868E-3,-5.425072E-3,-5.398750E-3,56.648254E-6,-26.321411E-6
422.603416E-3,-6.198120E-3,-6.182671E-3,-6.158638E-3,56.648254E-6,-24.032593E-6
424.324608E-3,-4.577637E-3,-4.624557E-3,-5.027390E-3,56.648254E-6,402.832031E-6
423.778725E-3,-5.249405E-3,-5.381012E-3,-5.350685E-3,56.648254E-6,-30.326843E-6
423.467445E-3,-5.528069E-3,-6.127739E-3,-6.054497E-3,56.648254E-6,-73.242187E-6
423.967552E-3,-5.065155E-3,-5.428505E-3,-5.677986E-3,56.648254E-6,249.481201E-6
423.018837E-3,-5.993271E-3,-6.186676E-3,-6.250763E-3,56.648254E-6,64.086914E-6
424.845886E-3,-4.463196E-3,-4.670906E-3,-5.021095E-3,56.648254E-6,350.189209E-6
424.645042E-3,-4.993057E-3,-5.212212E-3,-5.247116E-3,56.648254E-6,34.904480E-6
424.221039E-3,-5.691719E-3,-5.863380E-3,-6.140900E-3,56.648254E-6,277.519226E-6
424.746323E-3,-5.311203E-3,-5.477142E-3,-5.516624E-3,56.648254E-6,39.482117E-6
423.809624E-3,-6.059647E-3,-6.238747E-3,-6.129456E-3,56.648254E-6,-109.291077E-6
425.709343E-3,-4.456329E-3,-4.788780E-3,-5.009079E-3,56.648254E-6,220.298767E-6
425.230408E-3,-5.264282E-3,-5.384445E-3,-5.585861E-3,56.648254E-6,201.416016E-6
424.747467E-3,-5.627632E-3,-5.885696E-3,-6.196404E-3,56.648254E-6,310.707092E-6
425.468445E-3,-5.069160E-3,-5.421638E-3,-5.425072E-3,56.648254E-6,3.433228E-6
424.258804E-3,-5.777550E-3,-6.153488E-3,-6.246185E-3,56.648254E-6,92.697144E-6
425.915909E-3,-4.348755E-3,-4.696655E-3,-4.994774E-3,56.648254E-6,298.118591E-6
425.694466E-3,-5.172729E-3,-5.146408E-3,-5.619621E-3,56.648254E-6,473.213196E-6
425.412369E-3,-5.990410E-3,-5.865669E-3,-6.146049E-3,56.648254E-6,280.380249E-6
425.986862E-3,-5.179024E-3,-5.919456E-3,-5.469131E-3,56.648254E-6,-450.325012E-6
425.328827E-3,-6.047630E-3,-6.235886E-3,-6.146622E-3,56.648254E-6,-89.263916E-6
427.000237E-3,-4.444313E-3,-4.938698E-3,-4.809380E-3,56.648254E-6,-129.318237E-6
426.585388E-3,-4.931831E-3,-5.402756E-3,-5.297470E-3,56.648254E-6,-105.285645E-6
426.242065E-3,-5.538940E-3,-5.807877E-3,-6.227303E-3,56.648254E-6,419.425964E-6
427.156448E-3,-5.164719E-3,-5.307770E-3,-5.381584E-3,56.648254E-6,73.814392E-6
426.543045E-3,-5.958939E-3,-6.005859E-3,-6.048203E-3,56.648254E-6,42.343140E-6
428.279686E-3,-4.434013E-3,-4.891205E-3,-5.036545E-3,56.648254E-6,145.339966E-6
427.585030E-3,-5.103493E-3,-5.470848E-3,-5.484009E-3,56.648254E-6,13.160706E-6
427.260017E-3,-5.769539E-3,-5.973816E-3,-6.357193E-3,56.648254E-6,383.377075E-6
427.788162E-3,-5.024529E-3,-5.399323E-3,-6.041908E-3,56.648254E-6,642.585754E-6
426.933289E-3,-5.900574E-3,-5.972099E-3,-6.340027E-3,56.648254E-6,367.927551E-6
428.190994E-3,-4.616547E-3,-4.962158E-3,-4.945564E-3,56.648254E-6,-16.593933E-6
426.904678E-3,-5.123520E-3,-5.384445E-3,-5.375290E-3,56.648254E-6,-9.155273E-6
424.872780E-3,-5.830193E-3,-5.958366E-3,-5.960655E-3,56.648254E-6,2.288818E-6
422.985077E-3,-5.145264E-3,-5.405617E-3,-5.375290E-3,56.648254E-6,-30.326843E-6
419.099236E-3,-5.803299E-3,-5.930901E-3,-6.045341E-3,56.648254E-6,114.440918E-6
417.246437E-3,-4.538727E-3,-4.805946E-3,-4.879189E-3,56.648254E-6,73.242187E-6
413.424110E-3,-4.817963E-3,-5.171013E-3,-5.327225E-3,56.648254E-6,156.211853E-6
410.241508E-3,-5.661964E-3,-5.727196E-3,-6.130028E-3,56.648254E-6,402.832031E-6
409.016418E-3,-4.987907E-3,-5.398178E-3,-5.328941E-3,56.648254E-6,-69.236755E-6
407.277489E-3,-5.786705E-3,-6.061935E-3,-5.977249E-3,56.648254E-6,-84.686279E-6
408.445358E-3,-4.435730E-3,-4.951286E-3,-4.893494E-3,56.648254E-6,-57.792664E-6
408.358955E-3,-5.192757E-3,-5.336380E-3,-5.356407E-3,56.648254E-6,20.027161E-6
408.613586E-3,-5.485153E-3,-5.899429E-3,-5.941772E-3,56.648254E-6,42.343140E-6
410.196877E-3,-4.852295E-3,-5.398750E-3,-5.435944E-3,56.648254E-6,37.193298E-6
410.440636E-3,-5.735207E-3,-5.934906E-3,-6.164360E-3,56.648254E-6,229.454041E-6
412.716866E-3,-4.497528E-3,-4.975319E-3,-4.848862E-3,56.648254E-6,-126.457214E-6
413.298798E-3,-5.304337E-3,-5.413628E-3,-5.356407E-3,56.648254E-6,-57.220459E-6
413.172340E-3,-5.657959E-3,-5.973244E-3,-6.425858E-3,56.648254E-6,452.613831E-6
413.980865E-3,-4.946709E-3,-5.393028E-3,-5.893135E-3,56.648254E-6,500.106812E-6
413.450432E-3,-5.836487E-3,-5.933762E-3,-6.270218E-3,56.648254E-6,336.456299E-6
414.572525E-3,-4.776764E-3,-4.997635E-3,-5.148125E-3,56.648254E-6,150.489807E-6
413.498497E-3,-4.852867E-3,-5.359840E-3,-5.432510E-3,56.648254E-6,72.669983E-6
412.465668E-3,-5.671120E-3,-6.001854E-3,-5.768967E-3,56.648254E-6,-232.887268E-6
412.714577E-3,-4.986763E-3,-5.643654E-3,-5.327797E-3,56.648254E-6,-315.856934E-6
411.870003E-3,-5.679131E-3,-6.123734E-3,-5.934334E-3,56.648254E-6,-189.399719E-6
412.863922E-3,-4.491234E-3,-4.816818E-3,-5.059433E-3,56.648254E-6,242.614746E-6
412.792969E-3,-5.023956E-3,-5.288315E-3,-5.293465E-3,56.648254E-6,5.149841E-6
412.551498E-3,-5.568695E-3,-5.873108E-3,-6.017876E-3,56.648254E-6,144.767761E-6
413.914490E-3,-4.974174E-3,-5.394173E-3,-5.320358E-3,56.648254E-6,-73.814392E-6
414.129066E-3,-5.565262E-3,-5.968094E-3,-6.147194E-3,56.648254E-6,179.100037E-6
416.166115E-3,-4.499817E-3,-4.764175E-3,-5.003929E-3,56.648254E-6,239.753723E-6
416.573524E-3,-5.120087E-3,-5.314064E-3,-5.204201E-3,56.648254E-6,-109.863281E-6
416.327477E-3,-6.180382E-3,-5.773544E-3,-5.994987E-3,56.648254E-6,221.443176E-6
417.063904E-3,-5.353546E-3,-5.186462E-3,-5.323792E-3,56.648254E-6,137.329102E-6
416.204453E-3,-5.883980E-3,-5.921173E-3,-6.058502E-3,56.648254E-6,137.329102E-6
417.238998E-3,-4.573631E-3,-4.974174E-3,-4.912949E-3,56.648254E-6,-61.225891E-6
416.432190E-3,-5.100632E-3,-5.348396E-3,-5.379868E-3,56.648254E-6,31.471252E-6
415.671730E-3,-5.669975E-3,-6.619835E-3,-5.912590E-3,56.648254E-6,-707.244873E-6
416.107178E-3,-4.887199E-3,-5.826187E-3,-5.231667E-3,56.648254E-6,-594.520569E-6
415.305519E-3,-5.607033E-3,-6.110001E-3,-6.148338E-3,56.648254E-6,38.337708E-6
416.590118E-3,-4.507256E-3,-4.961014E-3,-4.883766E-3,56.648254E-6,-77.247620E-6
416.231918E-3,-4.764748E-3,-5.170441E-3,-5.273437E-3,56.648254E-6,102.996826E-6
415.922356E-3,-5.619621E-3,-5.886269E-3,-6.088829E-3,56.648254E-6,202.560425E-6
416.556358E-3,-5.052567E-3,-5.294037E-3,-5.427933E-3,56.648254E-6,133.895874E-6
416.622162E-3,-5.814171E-3,-6.062508E-3,-6.097412E-3,56.648254E-6,34.904480E-6
418.236351E-3,-4.554176E-3,-4.856873E-3,-4.868317E-3,56.648254E-6,11.444092E-6
418.235779E-3,-4.956436E-3,-5.324364E-3,-5.030823E-3,56.648254E-6,-293.540955E-6
417.966843E-3,-6.149483E-3,-5.854225E-3,-5.914879E-3,56.648254E-6,60.653687E-6
419.183350E-3,-5.455971E-3,-5.060577E-3,-5.093193E-3,56.648254E-6,32.615662E-6
418.838310E-3,-5.877686E-3,-6.143761E-3,-5.900002E-3,56.648254E-6,-243.759155E-6
420.046234E-3,-4.809952E-3,-4.870605E-3,-4.848289E-3,56.648254E-6,-22.315979E-6
420.264816E-3,-5.030251E-3,-5.038261E-3,-5.199051E-3,56.648254E-6,160.789490E-6
419.768715E-3,-5.621338E-3,-5.755806E-3,-5.895996E-3,56.648254E-6,140.190125E-6
420.558929E-3,-5.264854E-3,-5.049706E-3,-5.139542E-3,56.648254E-6,89.836121E-6
420.166397E-3,-5.918884E-3,-6.119728E-3,-5.973816E-3,56.648254E-6,-145.912170E-6
421.453285E-3,-4.499245E-3,-4.756165E-3,-4.946709E-3,56.648254E-6,190.544128E-6
421.401787E-3,-4.991913E-3,-5.149841E-3,-5.407906E-3,56.648254E-6,258.064270E-6
420.801544E-3,-5.618477E-3,-6.115723E-3,-6.162071E-3,56.648254E-6,46.348572E-6
421.555710E-3,-4.655457E-3,-5.167580E-3,-5.344391E-3,56.648254E-6,176.811218E-6
420.838737E-3,-5.652237E-3,-5.948639E-3,-6.063080E-3,56.648254E-6,114.440918E-6
421.860695E-3,-4.507828E-3,-4.792213E-3,-5.114937E-3,56.648254E-6,322.723389E-6
421.758842E-3,-5.022812E-3,-5.197906E-3,-5.338669E-3,56.648254E-6,140.762329E-6
420.512581E-3,-5.667114E-3,-6.013298E-3,-6.146049E-3,56.648254E-6,132.751465E-6
421.836662E-3,-4.942131E-3,-5.842209E-3,-5.231667E-3,56.648254E-6,-610.542297E-6
421.249008E-3,-5.651665E-3,-6.084251E-3,-5.857658E-3,56.648254E-6,-226.593018E-6
422.629166E-3,-4.602814E-3,-5.022812E-3,-4.938698E-3,56.648254E-6,-84.114075E-6
422.357368E-3,-4.907799E-3,-5.324936E-3,-5.204201E-3,56.648254E-6,-120.735168E-6
421.959114E-3,-6.219292E-3,-5.845642E-3,-6.126595E-3,56.648254E-6,280.952454E-6
422.826004E-3,-5.571556E-3,-4.950142E-3,-5.237961E-3,56.648254E-6,287.818909E-6
422.117615E-3,-5.904579E-3,-5.861664E-3,-6.039619E-3,56.648254E-6,177.955627E-6
423.416519E-3,-4.791069E-3,-5.026817E-3,-5.030251E-3,56.648254E-6,3.433228E-6
422.896957E-3,-5.001640E-3,-5.232811E-3,-5.213928E-3,56.648254E-6,-18.882751E-6
422.360229E-3,-5.683708E-3,-6.037903E-3,-6.717110E-3,56.648254E-6,679.206848E-6
423.348427E-3,-4.792786E-3,-5.116081E-3,-5.902290E-3,56.648254E-6,786.209106E-6
422.717857E-3,-5.667686E-3,-5.877686E-3,-6.325722E-3,56.648254E-6,448.036194E-6
423.907471E-3,-4.508400E-3,-4.927826E-3,-5.090904E-3,56.648254E-6,163.078308E-6
423.604774E-3,-4.697800E-3,-5.104065E-3,-5.442810E-3,56.648254E-6,338.745117E-6
423.247719E-3,-5.842781E-3,-5.985260E-3,-6.214142E-3,64.659119E-6,228.881836E-6
424.020195E-3,-5.439949E-3,-5.110359E-3,-5.235100E-3,64.659119E-6,124.740601E-6
423.389626E-3,-5.961227E-3,-5.855942E-3,-5.923462E-3,64.659119E-6,67.520142E-6
424.634171E-3,-4.882050E-3,-4.867172E-3,-5.123520E-3,64.659119E-6,256.347656E-6
424.429893E-3,-5.018806E-3,-5.140114E-3,-5.537796E-3,64.659119E-6,397.682190E-6
423.861694E-3,-5.723763E-3,-6.847000E-3,-6.316566E-3,64.659119E-6,-530.433655E-6
424.618149E-3,-5.201912E-3,-5.450821E-3,-5.177879E-3,64.659119E-6,-272.941589E-6
423.880577E-3,-5.641937E-3,-5.925179E-3,-5.859375E-3,64.659119E-6,-65.803528E-6
424.975777E-3,-4.725266E-3,-5.128670E-3,-5.042267E-3,64.659119E-6,-86.402893E-6
424.950600E-3,-4.823112E-3,-5.161285E-3,-5.347252E-3,64.659119E-6,185.966492E-6
424.190712E-3,-5.534935E-3,-6.050491E-3,-6.216431E-3,64.659119E-6,165.939331E-6
425.120544E-3,-4.719543E-3,-5.060577E-3,-5.051422E-3,64.659119E-6,-9.155273E-6
424.581528E-3,-5.635643E-3,-5.873680E-3,-5.920601E-3,64.659119E-6,46.920776E-6
425.622940E-3,-4.540443E-3,-5.026245E-3,-5.208778E-3,64.659119E-6,182.533264E-6
425.748253E-3,-4.768181E-3,-5.228233E-3,-5.237389E-3,64.659119E-6,9.155273E-6
425.040436E-3,-5.707741E-3,-6.697083E-3,-6.134605E-3,64.659119E-6,-562.477112E-6
426.109314E-3,-4.889488E-3,-5.498886E-3,-4.925537E-3,64.659119E-6,-573.348999E-6
425.494766E-3,-5.625343E-3,-5.952644E-3,-5.846214E-3,64.659119E-6,-106.430054E-6
426.724434E-3,-4.812813E-3,-5.102921E-3,-5.098343E-3,64.659119E-6,-4.577637E-6
426.777649E-3,-5.084038E-3,-5.098915E-3,-5.170441E-3,64.659119E-6,71.525574E-6
426.145935E-3,-5.695724E-3,-6.005859E-3,-6.208992E-3,64.659119E-6,203.132629E-6
427.119255E-3,-5.037117E-3,-4.939842E-3,-4.582787E-3,64.659119E-6,-357.055664E-6
426.343918E-3,-5.688858E-3,-5.719757E-3,-5.473137E-3,64.659119E-6,-246.620178E-6
427.175903E-3,-4.714966E-3,-5.005646E-3,-5.069733E-3,64.659119E-6,64.086914E-6
426.912689E-3,-4.738426E-3,-5.088615E-3,-5.466270E-3,64.659119E-6,377.655029E-6
425.496483E-3,-6.241608E-3,-6.007004E-3,-6.230164E-3,64.659119E-6,223.159790E-6
424.909401E-3,-4.994774E-3,-4.751587E-3,-4.571915E-3,64.659119E-6,-179.672241E-6
422.055244E-3,-5.566406E-3,-5.806160E-3,-5.661392E-3,64.659119E-6,-144.767761E-6
419.963264E-3,-4.692650E-3,-5.093193E-3,-5.180740E-3,64.659119E-6,87.547302E-6
416.813850E-3,-4.812241E-3,-5.225945E-3,-5.413055E-3,64.659119E-6,187.110901E-6
412.957191E-3,-5.591011E-3,-7.331085E-3,-6.238747E-3,64.659119E-6,-1.092339E-3
411.135292E-3,-4.641151E-3,-5.011368E-3,-4.611969E-3,64.659119E-6,-399.398804E-6
408.409882E-3,-5.477715E-3,-5.705452E-3,-5.771255E-3,64.659119E-6,65.803528E-6
408.328629E-3,-4.766464E-3,-5.059433E-3,-5.335808E-3,64.659119E-6,276.374817E-6
407.953262E-3,-4.820251E-3,-5.050850E-3,-5.356979E-3,64.659119E-6,306.129456E-6
407.619095E-3,-5.683708E-3,-5.969810E-3,-7.074165E-3,64.659119E-6,1.104355E-3
409.131432E-3,-4.561615E-3,-4.382515E-3,-4.810524E-3,64.659119E-6,428.009033E-6
409.355736E-3,-5.498314E-3,-5.430794E-3,-5.865097E-3,64.659119E-6,434.303284E-6
411.441994E-3,-4.859161E-3,-4.958153E-3,-5.033684E-3,64.659119E-6,75.531006E-6
412.281990E-3,-4.959869E-3,-5.297470E-3,-5.366135E-3,64.659119E-6,68.664551E-6
412.352943E-3,-5.874252E-3,-6.120872E-3,-6.963158E-3,64.659119E-6,842.285156E-6
414.069557E-3,-4.468918E-3,-4.487228E-3,-4.732704E-3,64.659119E-6,245.475769E-6
413.694191E-3,-5.546951E-3,-5.924606E-3,-5.807877E-3,64.659119E-6,-116.729736E-6
414.685822E-3,-4.700089E-3,-5.118942E-3,-5.203056E-3,64.659119E-6,84.114075E-6
414.381981E-3,-4.743004E-3,-5.394173E-3,-5.255699E-3,64.659119E-6,-138.473511E-6
412.413597E-3,-5.774117E-3,-6.115723E-3,-6.038475E-3,64.659119E-6,-77.247620E-6
413.425827E-3,-4.107857E-3,-4.324150E-3,-4.507828E-3,64.659119E-6,183.677673E-6
412.595558E-3,-5.160141E-3,-5.581284E-3,-5.798721E-3,64.659119E-6,217.437744E-6
413.059616E-3,-4.597092E-3,-5.100060E-3,-5.457687E-3,64.659119E-6,357.627869E-6
412.639046E-3,-4.688644E-3,-5.229378E-3,-5.099487E-3,64.659119E-6,-129.890442E-6
412.124062E-3,-5.485725E-3,-6.670189E-3,-5.838776E-3,64.659119E-6,-831.413269E-6
414.072418E-3,-3.931618E-3,-4.442024E-3,-4.498100E-3,64.659119E-6,56.076050E-6
413.790321E-3,-5.183029E-3,-5.534363E-3,-5.891418E-3,64.659119E-6,357.055664E-6
415.460014E-3,-4.705811E-3,-5.138397E-3,-5.414200E-3,64.659119E-6,275.802612E-6
416.128349E-3,-4.756737E-3,-5.350113E-3,-5.197334E-3,64.659119E-6,-152.778625E-6
415.640831E-3,-6.024170E-3,-5.962944E-3,-6.025887E-3,64.659119E-6,62.942505E-6
417.323685E-3,-4.190254E-3,-4.313850E-3,-4.424858E-3,64.659119E-6,111.007690E-6
416.039085E-3,-5.328941E-3,-5.540657E-3,-5.615044E-3,64.659119E-6,74.386597E-6
416.543770E-3,-4.627991E-3,-5.142403E-3,-5.426788E-3,64.659119E-6,284.385681E-6
416.110611E-3,-4.801941E-3,-5.078888E-3,-5.429649E-3,64.659119E-6,350.761414E-6
414.918137E-3,-5.759811E-3,-5.974388E-3,-5.976677E-3,64.659119E-6,2.288818E-6
416.094017E-3,-4.088402E-3,-4.339027E-3,-4.262924E-3,64.659119E-6,-76.103210E-6
414.982224E-3,-5.376434E-3,-5.798149E-3,-5.570412E-3,64.659119E-6,-227.737427E-6
415.676880E-3,-4.816818E-3,-5.342674E-3,-5.197334E-3,64.659119E-6,-145.339966E-6
415.810776E-3,-4.865456E-3,-4.998779E-3,-5.220222E-3,64.659119E-6,221.443176E-6
415.330696E-3,-5.874825E-3,-5.862808E-3,-5.920601E-3,64.659119E-6,57.792664E-6
417.088509E-3,-4.166794E-3,-4.464912E-3,-4.354477E-3,64.659119E-6,-110.435486E-6
416.281128E-3,-5.386162E-3,-5.750084E-3,-5.580711E-3,64.659119E-6,-169.372559E-6
417.446709E-3,-4.786491E-3,-5.254555E-3,-5.319786E-3,64.659119E-6,65.231323E-6
417.756844E-3,-4.842567E-3,-5.232239E-3,-5.089760E-3,64.659119E-6,-142.478943E-6
417.429543E-3,-5.541801E-3,-7.110786E-3,-5.931473E-3,64.659119E-6,-1.179314E-3
419.403648E-3,-4.114723E-3,-4.603386E-3,-4.353333E-3,64.659119E-6,-250.053406E-6
418.525314E-3,-5.532646E-3,-5.852509E-3,-5.564117E-3,64.659119E-6,-288.391113E-6
419.315529E-3,-4.992485E-3,-5.364990E-3,-5.308342E-3,64.659119E-6,-56.648254E-6
419.480324E-3,-4.975319E-3,-5.173302E-3,-5.090332E-3,64.659119E-6,-82.969666E-6
418.939018E-3,-5.639648E-3,-6.859016E-3,-5.763245E-3,64.659119E-6,-1.095772E-3
420.697975E-3,-4.105568E-3,-4.611397E-3,-4.233170E-3,64.659119E-6,-378.227234E-6
419.604492E-3,-5.481720E-3,-5.512047E-3,-5.713463E-3,64.659119E-6,201.416016E-6
420.463943E-3,-4.860306E-3,-5.160713E-3,-5.431938E-3,64.659119E-6,271.224976E-6
420.605278E-3,-4.744148E-3,-5.267715E-3,-5.195618E-3,64.659119E-6,-72.097778E-6
419.861984E-3,-5.553818E-3,-5.706024E-3,-6.634140E-3,64.659119E-6,928.115845E-6
421.500778E-3,-4.035187E-3,-4.285812E-3,-4.704094E-3,64.659119E-6,418.281555E-6
420.285988E-3,-5.307770E-3,-5.724907E-3,-5.927467E-3,64.659119E-6,202.560425E-6
421.030998E-3,-4.817963E-3,-5.260277E-3,-5.660248E-3,64.659119E-6,399.971008E-6
421.288490E-3,-5.002213E-3,-5.200768E-3,-5.331230E-3,64.659119E-6,130.462646E-6
420.463371E-3,-5.603600E-3,-5.730629E-3,-6.652451E-3,64.659119E-6,921.821594E-6
422.121048E-3,-3.911018E-3,-4.287529E-3,-4.852867E-3,64.659119E-6,565.338135E-6
420.916557E-3,-5.217361E-3,-5.590439E-3,-6.047630E-3,64.659119E-6,457.191467E-6
421.599770E-3,-4.940414E-3,-5.259705E-3,-5.524635E-3,64.659119E-6,264.930725E-6
421.802330E-3,-5.001640E-3,-5.060577E-3,-5.236816E-3,64.659119E-6,176.239014E-6
421.034431E-3,-6.645012E-3,-5.685997E-3,-5.792999E-3,64.659119E-6,107.002258E-6
422.508430E-3,-4.278374E-3,-4.308701E-3,-4.499245E-3,64.659119E-6,190.544128E-6
421.361732E-3,-5.481720E-3,-5.637932E-3,-5.797005E-3,64.659119E-6,159.072876E-6
421.791458E-3,-4.994774E-3,-5.348969E-3,-5.345535E-3,64.659119E-6,-3.433228E-6
421.859550E-3,-5.030823E-3,-5.128098E-3,-5.060577E-3,64.659119E-6,-67.520142E-6
421.325111E-3,-5.655670E-3,-5.811882E-3,-5.734062E-3,64.659119E-6,-77.819824E-6
422.967339E-3,-3.928185E-3,-4.281235E-3,-4.559326E-3,64.659119E-6,278.091431E-6
421.709061E-3,-5.367279E-3,-5.598450E-3,-5.796432E-3,64.659119E-6,197.982788E-6
422.170258E-3,-4.888344E-3,-5.370140E-3,-5.405045E-3,64.659119E-6,34.904480E-6
422.421455E-3,-4.820824E-3,-5.121231E-3,-5.152702E-3,64.659119E-6,31.471252E-6
421.698189E-3,-6.423569E-3,-5.698013E-3,-5.748367E-3,64.659119E-6,50.354004E-6
423.407364E-3,-4.196548E-3,-4.287529E-3,-4.518700E-3,64.659119E-6,231.170654E-6
422.339058E-3,-5.450249E-3,-5.659676E-3,-6.016731E-3,64.659119E-6,357.055664E-6
422.941589E-3,-4.852867E-3,-5.284882E-3,-5.498886E-3,64.659119E-6,214.004517E-6
423.141861E-3,-4.902649E-3,-4.948425E-3,-5.322647E-3,64.659119E-6,374.221802E-6
422.691536E-3,-5.402184E-3,-5.744934E-3,-5.814171E-3,64.659119E-6,69.236755E-6
424.484825E-3,-4.022026E-3,-4.418564E-3,-4.549599E-3,64.659119E-6,131.034851E-6
423.524094E-3,-5.462265E-3,-5.750084E-3,-5.863380E-3,64.659119E-6,113.296509E-6
423.916626E-3,-5.030251E-3,-5.384445E-3,-5.320930E-3,62.942505E-6,-63.514709E-6
424.263954E-3,-4.894638E-3,-5.002785E-3,-5.188179E-3,62.942505E-6,185.394287E-6
422.919273E-3,-5.261421E-3,-5.689430E-3,-5.817032E-3,62.942505E-6,127.601624E-6
424.993515E-3,-3.929901E-3,-4.319000E-3,-4.571915E-3,62.942505E-6,252.914429E-6
424.263382E-3,-5.523491E-3,-5.705452E-3,-5.786705E-3,62.942505E-6,81.253052E-6
425.062180E-3,-5.066872E-3,-5.346107E-3,-5.457115E-3,62.942505E-6,111.007690E-6
425.220108E-3,-4.996490E-3,-5.209351E-3,-5.141830E-3,62.942505E-6,-67.520142E-6
424.259377E-3,-5.523491E-3,-5.667686E-3,-5.641937E-3,62.942505E-6,-25.749207E-6
426.254654E-3,-3.981400E-3,-4.337883E-3,-4.546738E-3,62.942505E-6,208.854675E-6
425.059319E-3,-5.453110E-3,-5.728340E-3,-5.574989E-3,62.942505E-6,-153.350830E-6
425.329399E-3,-4.934692E-3,-5.432510E-3,-5.372429E-3,62.942505E-6,-60.081482E-6
425.365448E-3,-4.785919E-3,-5.184746E-3,-5.310631E-3,62.942505E-6,125.885010E-6
423.887444E-3,-5.316925E-3,-5.680275E-3,-5.912590E-3,62.942505E-6,232.315063E-6
423.942947E-3,-3.985977E-3,-4.207993E-3,-4.515266E-3,62.942505E-6,307.273865E-6
420.378113E-3,-5.410767E-3,-5.613327E-3,-5.772400E-3,62.942505E-6,159.072876E-6
417.901611E-3,-5.032539E-3,-5.296326E-3,-5.321503E-3,62.942505E-6,25.177002E-6
415.022850E-3,-4.845428E-3,-5.190468E-3,-5.183601E-3,62.942505E-6,-6.866455E-6
411.515808E-3,-5.470848E-3,-7.217216E-3,-5.695724E-3,62.942505E-6,-1.521492E-3
410.348511E-3,-4.099846E-3,-4.801941E-3,-4.573631E-3,62.942505E-6,-228.309631E-6
407.347870E-3,-5.486298E-3,-5.994987E-3,-5.834198E-3,62.942505E-6,-160.789490E-6
406.804848E-3,-4.904366E-3,-5.286026E-3,-5.477715E-3,62.942505E-6,191.688538E-6
406.985664E-3,-4.658318E-3,-5.252266E-3,-5.350113E-3,62.942505E-6,97.846985E-6
406.683540E-3,-5.495453E-3,-5.789566E-3,-7.281876E-3,62.942505E-6,1.492310E-3
408.740616E-3,-4.206276E-3,-4.535294E-3,-5.193901E-3,62.942505E-6,658.607483E-6
408.506012E-3,-5.439377E-3,-5.759239E-3,-6.080818E-3,62.942505E-6,321.578979E-6
409.965706E-3,-4.951286E-3,-5.209923E-3,-5.636215E-3,62.942505E-6,426.292419E-6
411.036873E-3,-4.791069E-3,-5.273437E-3,-5.410194E-3,62.942505E-6,136.756897E-6
411.436844E-3,-6.655884E-3,-5.792427E-3,-5.879974E-3,62.942505E-6,87.547302E-6
413.322258E-3,-4.514122E-3,-4.593658E-3,-4.666328E-3,62.942505E-6,72.669983E-6
412.093163E-3,-5.799866E-3,-5.875397E-3,-5.762672E-3,62.942505E-6,-112.724304E-6
412.739182E-3,-5.064583E-3,-5.398750E-3,-5.513763E-3,62.942505E-6,115.013123E-6
412.789536E-3,-4.800224E-3,-5.217361E-3,-5.338097E-3,62.942505E-6,120.735168E-6
411.983299E-3,-6.552887E-3,-5.524635E-3,-5.857086E-3,62.942505E-6,332.450867E-6
413.005829E-3,-4.435730E-3,-4.526711E-3,-4.684067E-3,62.942505E-6,157.356262E-6
411.171341E-3,-5.694580E-3,-5.844498E-3,-5.850220E-3,62.942505E-6,5.722046E-6
411.428833E-3,-5.252838E-3,-5.413628E-3,-5.520058E-3,62.942505E-6,106.430054E-6
411.792755E-3,-5.050850E-3,-5.157280E-3,-5.299187E-3,62.942505E-6,141.906738E-6
410.839462E-3,-5.398178E-3,-5.635071E-3,-5.742645E-3,62.942505E-6,107.574463E-6
413.711929E-3,-4.063225E-3,-4.531860E-3,-4.539299E-3,62.942505E-6,7.438660E-6
413.441849E-3,-5.370140E-3,-5.845642E-3,-5.870247E-3,62.942505E-6,24.604797E-6
414.746475E-3,-5.058861E-3,-5.469131E-3,-5.651665E-3,62.942505E-6,182.533264E-6
415.378761E-3,-4.927254E-3,-5.089760E-3,-5.541229E-3,62.942505E-6,451.469421E-6
413.909912E-3,-5.406189E-3,-5.651665E-3,-5.967522E-3,62.942505E-6,315.856934E-6
416.221046E-3,-4.103279E-3,-4.466629E-3,-4.563904E-3,62.942505E-6,97.274780E-6
414.852333E-3,-5.577278E-3,-5.551529E-3,-5.788422E-3,62.942505E-6,236.892700E-6
414.813995E-3,-5.132103E-3,-5.433655E-3,-5.598450E-3,62.942505E-6,164.794922E-6
414.687538E-3,-4.683495E-3,-5.849648E-3,-5.304909E-3,62.942505E-6,-544.738770E-6
413.854408E-3,-5.442238E-3,-6.120300E-3,-6.183243E-3,62.942505E-6,62.942505E-6
415.031433E-3,-4.211426E-3,-4.779625E-3,-4.709816E-3,62.942505E-6,-69.808960E-6
413.827515E-3,-5.506325E-3,-5.872536E-3,-5.737495E-3,62.942505E-6,-135.040283E-6
414.334488E-3,-4.979324E-3,-5.576134E-3,-5.471420E-3,62.942505E-6,-104.713440E-6
414.695549E-3,-4.904938E-3,-5.310059E-3,-5.216789E-3,62.942505E-6,-93.269348E-6
413.329124E-3,-5.513191E-3,-5.765533E-3,-5.723763E-3,62.942505E-6,-41.770935E-6
415.762138E-3,-4.335022E-3,-4.634857E-3,-4.483223E-3,62.942505E-6,-151.634216E-6
415.112114E-3,-5.700874E-3,-5.754662E-3,-5.640221E-3,62.942505E-6,-114.440918E-6
416.128922E-3,-5.303192E-3,-5.272293E-3,-5.340385E-3,62.942505E-6,68.092346E-6
417.045021E-3,-5.377007E-3,-5.076599E-3,-5.258560E-3,62.942505E-6,181.961060E-6
416.843605E-3,-5.580139E-3,-5.789566E-3,-6.833839E-3,62.942505E-6,1.044273E-3
418.405151E-3,-4.387093E-3,-4.542732E-3,-4.992485E-3,62.942505E-6,449.752808E-6
417.511368E-3,-5.470848E-3,-5.647087E-3,-6.094551E-3,62.942505E-6,447.463989E-6
418.512726E-3,-5.205345E-3,-5.410767E-3,-5.489159E-3,62.942505E-6,78.392029E-6
418.808556E-3,-5.077171E-3,-5.232811E-3,-5.506325E-3,62.942505E-6,273.513794E-6
418.484116E-3,-5.599022E-3,-5.710602E-3,-5.979538E-3,62.942505E-6,268.936157E-6
420.074272E-3,-4.161072E-3,-4.441452E-3,-4.720116E-3,62.942505E-6,278.663635E-6
418.975067E-3,-5.344391E-3,-5.518913E-3,-5.854797E-3,62.942505E-6,335.884094E-6
419.732094E-3,-5.287170E-3,-5.520630E-3,-5.584145E-3,62.942505E-6,63.514709E-6
419.906044E-3,-5.157280E-3,-5.396461E-3,-5.169296E-3,62.942505E-6,-227.165222E-6
419.574738E-3,-5.637360E-3,-6.096840E-3,-5.822182E-3,62.942505E-6,-274.658203E-6
420.713997E-3,-4.189682E-3,-4.704666E-3,-4.649734E-3,62.942505E-6,-54.931641E-6
419.676018E-3,-5.652237E-3,-5.807304E-3,-5.675125E-3,62.942505E-6,-132.179260E-6
419.912338E-3,-5.163574E-3,-5.471992E-3,-5.389023E-3,62.942505E-6,-82.969666E-6
420.514297E-3,-4.959297E-3,-5.183029E-3,-5.342102E-3,62.942505E-6,159.072876E-6
419.910622E-3,-5.597878E-3,-5.803299E-3,-6.012154E-3,62.942505E-6,208.854675E-6
421.134567E-3,-4.183388E-3,-4.458046E-3,-4.768181E-3,62.942505E-6,310.134888E-6
420.297432E-3,-5.392456E-3,-5.525780E-3,-5.892563E-3,62.942505E-6,366.783142E-6
420.699120E-3,-5.006218E-3,-5.335808E-3,-5.690002E-3,62.942505E-6,354.194641E-6
421.184349E-3,-4.902649E-3,-5.222511E-3,-5.298615E-3,62.942505E-6,76.103210E-6
420.672798E-3,-5.548096E-3,-5.918884E-3,-5.934906E-3,62.942505E-6,16.021729E-6
422.018051E-3,-4.138184E-3,-4.488945E-3,-4.630852E-3,62.942505E-6,141.906738E-6
420.904541E-3,-5.392456E-3,-5.707169E-3,-5.749512E-3,62.942505E-6,42.343140E-6
421.194077E-3,-5.032539E-3,-5.386734E-3,-5.645943E-3,62.942505E-6,259.208679E-6
421.440125E-3,-4.870605E-3,-5.139542E-3,-5.506897E-3,62.942505E-6,367.355347E-6
421.022415E-3,-5.566978E-3,-5.941200E-3,-6.765175E-3,62.942505E-6,823.974609E-6
422.590828E-3,-4.254913E-3,-4.586220E-3,-4.955864E-3,62.942505E-6,369.644165E-6
421.276474E-3,-5.450249E-3,-5.648804E-3,-5.829048E-3,62.942505E-6,180.244446E-6
421.823502E-3,-5.252266E-3,-5.425644E-3,-5.375862E-3,62.942505E-6,-49.781799E-6
422.105026E-3,-5.079460E-3,-5.589867E-3,-5.171585E-3,62.942505E-6,-418.281555E-6
421.745110E-3,-5.677414E-3,-7.669258E-3,-6.023026E-3,62.942505E-6,-1.646233E-3
422.995949E-3,-4.231453E-3,-5.236244E-3,-4.684067E-3,62.942505E-6,-552.177429E-6
422.001457E-3,-5.390739E-3,-5.848503E-3,-5.805016E-3,62.942505E-6,-43.487549E-6
422.238922E-3,-5.245399E-3,-5.439377E-3,-5.460548E-3,62.942505E-6,21.171570E-6
422.724152E-3,-5.030823E-3,-5.249977E-3,-5.091476E-3,62.942505E-6,-158.500671E-6
422.015762E-3,-5.671692E-3,-5.879974E-3,-5.931473E-3,62.942505E-6,51.498413E-6
423.515511E-3,-4.356194E-3,-4.524422E-3,-4.668045E-3,62.942505E-6,143.623352E-6
422.507858E-3,-5.299759E-3,-5.489159E-3,-5.751801E-3,62.942505E-6,262.641907E-6
422.978783E-3,-5.280304E-3,-5.306625E-3,-5.599594E-3,62.942505E-6,292.968750E-6
423.409081E-3,-5.030251E-3,-5.005074E-3,-5.069733E-3,62.942505E-6,64.659119E-6
423.120117E-3,-5.752945E-3,-5.695724E-3,-5.838776E-3,62.942505E-6,143.051147E-6
424.610710E-3,-4.383659E-3,-4.586220E-3,-4.522133E-3,62.942505E-6,-64.086914E-6
423.796463E-3,-5.402756E-3,-5.511475E-3,-5.449677E-3,62.942505E-6,-61.798096E-6
424.246788E-3,-5.336952E-3,-5.504036E-3,-5.584145E-3,62.942505E-6,80.108643E-6
424.644470E-3,-5.207634E-3,-5.240822E-3,-5.172729E-3,62.942505E-6,-68.092346E-6
424.287987E-3,-5.803299E-3,-6.328011E-3,-6.116867E-3,62.942505E-6,-211.143494E-6
425.678444E-3,-4.417419E-3,-4.662895E-3,-4.638863E-3,62.942505E-6,-24.032593E-6
424.754333E-3,-5.414200E-3,-5.723190E-3,-5.460548E-3,62.942505E-6,-262.641907E-6
424.748039E-3,-5.391312E-3,-5.673981E-3,-5.595589E-3,62.942505E-6,-78.392029E-6
424.659920E-3,-5.006790E-3,-5.271149E-3,-5.327797E-3,62.942505E-6,56.648254E-6
423.884583E-3,-5.599594E-3,-5.975533E-3,-6.078529E-3,62.942505E-6,102.996826E-6
424.051666E-3,-4.274368E-3,-4.586792E-3,-4.777908E-3,62.942505E-6,191.116333E-6
421.206093E-3,-5.307198E-3,-5.641937E-3,-5.806732E-3,62.942505E-6,164.794922E-6
418.963623E-3,-5.147552E-3,-5.580711E-3,-5.579567E-3,62.942505E-6,-1.144409E-6
416.138649E-3,-4.954720E-3,-5.185890E-3,-5.307198E-3,62.942505E-6,121.307373E-6
412.403297E-3,-5.599022E-3,-5.941772E-3,-6.088829E-3,62.942505E-6,147.056580E-6
410.761070E-3,-4.269791E-3,-4.696083E-3,-4.745293E-3,62.942505E-6,49.209595E-6
407.263756E-3,-5.414772E-3,-5.605888E-3,-5.715752E-3,62.942505E-6,109.863281E-6
405.547142E-3,-4.943275E-3,-5.312920E-3,-5.732918E-3,62.942505E-6,419.998169E-6
404.961777E-3,-4.803085E-3,-4.953575E-3,-5.346107E-3,62.942505E-6,392.532349E-6
402.773094E-3,-5.664253E-3,-5.915451E-3,-6.197548E-3,62.942505E-6,282.096863E-6
405.532837E-3,-4.162788E-3,-4.650307E-3,-5.002785E-3,62.942505E-6,352.478027E-6
405.784035E-3,-5.258560E-3,-5.656815E-3,-5.900574E-3,62.942505E-6,243.759155E-6
406.859207E-3,-5.211067E-3,-5.675697E-3,-5.664825E-3,62.942505E-6,-10.871887E-6
408.159828E-3,-4.956436E-3,-5.220795E-3,-5.455971E-3,62.942505E-6,235.176086E-6
408.185005E-3,-5.752373E-3,-6.778336E-3,-6.209564E-3,62.942505E-6,-568.771362E-6
410.081291E-3,-4.232025E-3,-5.082893E-3,-4.953003E-3,62.942505E-6,-129.890442E-6
409.405518E-3,-5.405617E-3,-5.900002E-3,-5.836487E-3,62.942505E-6,-63.514709E-6
409.425545E-3,-5.240250E-3,-5.710030E-3,-5.956078E-3,62.942505E-6,246.047974E-6
409.704208E-3,-4.995918E-3,-5.117798E-3,-5.192757E-3,62.942505E-6,74.958801E-6
408.627892E-3,-5.713463E-3,-7.023239E-3,-6.353188E-3,62.942505E-6,-670.051575E-6
409.636688E-3,-4.181671E-3,-5.062866E-3,-5.127525E-3,62.942505E-6,64.659119E-6
408.397865E-3,-5.364418E-3,-5.859375E-3,-5.853081E-3,61.798096E-6,-6.294250E-6
408.186722E-3,-5.249977E-3,-5.643082E-3,-5.626488E-3,61.798096E-6,-16.593933E-6
408.055115E-3,-4.887772E-3,-5.236244E-3,-5.286598E-3,61.798096E-6,50.354004E-6
407.492065E-3,-5.692291E-3,-5.998421E-3,-6.400681E-3,61.798096E-6,402.259827E-6
409.061050E-3,-4.360199E-3,-4.638863E-3,-5.140114E-3,61.798096E-6,501.251221E-6
408.953476E-3,-5.243111E-3,-5.536079E-3,-5.683708E-3,61.798096E-6,147.628784E-6
410.090446E-3,-5.374718E-3,-5.541229E-3,-5.627632E-3,61.798096E-6,86.402893E-6
411.170197E-3,-4.827690E-3,-5.246544E-3,-5.276871E-3,61.798096E-6,30.326843E-6
410.165977E-3,-5.816460E-3,-6.140327E-3,-6.382942E-3,61.798096E-6,242.614746E-6
412.993240E-3,-4.458046E-3,-4.755020E-3,-4.915810E-3,61.798096E-6,160.789490E-6
412.784958E-3,-5.329514E-3,-5.557823E-3,-5.700302E-3,61.798096E-6,142.478943E-6
413.096237E-3,-5.460548E-3,-5.540657E-3,-5.530357E-3,61.798096E-6,-10.299683E-6
413.490486E-3,-4.895210E-3,-5.688286E-3,-5.152702E-3,61.798096E-6,-535.583496E-6
412.412453E-3,-5.669403E-3,-6.532860E-3,-7.225227E-3,61.798096E-6,692.367554E-6
413.237572E-3,-4.504967E-3,-5.073166E-3,-5.220795E-3,61.798096E-6,147.628784E-6
412.007332E-3,-5.389023E-3,-5.685997E-3,-5.616760E-3,61.798096E-6,-69.236755E-6
412.103462E-3,-5.306053E-3,-5.676270E-3,-5.831909E-3,61.798096E-6,155.639648E-6
412.472534E-3,-4.945564E-3,-5.495453E-3,-5.265427E-3,61.798096E-6,-230.026245E-6
411.747551E-3,-5.815887E-3,-7.740784E-3,-6.261635E-3,61.798096E-6,-1.479149E-3
413.426399E-3,-4.650879E-3,-5.298615E-3,-4.883766E-3,61.798096E-6,-414.848328E-6
412.905121E-3,-5.660248E-3,-5.843925E-3,-5.465698E-3,61.798096E-6,-378.227234E-6
413.386917E-3,-5.459404E-3,-5.530930E-3,-5.719185E-3,61.798096E-6,188.255310E-6
414.212036E-3,-4.927826E-3,-4.950142E-3,-5.132103E-3,61.798096E-6,181.961060E-6
413.818932E-3,-6.340599E-3,-6.235886E-3,-6.332588E-3,61.798096E-6,96.702576E-6
415.554428E-3,-4.698372E-3,-4.759026E-3,-5.064583E-3,61.798096E-6,305.557251E-6
415.059471E-3,-5.449677E-3,-5.505753E-3,-5.532074E-3,61.798096E-6,26.321411E-6
415.632248E-3,-5.316353E-3,-5.576706E-3,-5.630493E-3,61.798096E-6,53.787231E-6
416.455078E-3,-4.837990E-3,-5.220795E-3,-5.587006E-3,61.798096E-6,366.210937E-6
415.849113E-3,-5.975533E-3,-6.409836E-3,-6.583786E-3,61.798096E-6,173.950195E-6
417.360306E-3,-4.809952E-3,-5.043411E-3,-4.927826E-3,61.798096E-6,-115.585327E-6
416.740036E-3,-5.273437E-3,-5.645943E-3,-5.672836E-3,61.798096E-6,26.893616E-6
416.912270E-3,-5.208778E-3,-5.549812E-3,-5.715179E-3,61.798096E-6,165.367126E-6
417.310524E-3,-5.124664E-3,-4.928398E-3,-5.021667E-3,61.798096E-6,93.269348E-6
416.708565E-3,-8.044624E-3,-5.863380E-3,-6.250191E-3,61.798096E-6,386.810303E-6
418.240356E-3,-5.212784E-3,-4.850578E-3,-4.841995E-3,61.798096E-6,-8.583069E-6
417.556000E-3,-5.561256E-3,-5.454254E-3,-5.603600E-3,61.798096E-6,149.345398E-6
417.882729E-3,-5.145264E-3,-5.505753E-3,-5.672836E-3,61.798096E-6,167.083740E-6
418.355942E-3,-5.148125E-3,-4.988480E-3,-5.181313E-3,61.798096E-6,192.832947E-6
417.394638E-3,-7.099915E-3,-6.174660E-3,-6.325722E-3,61.798096E-6,151.062012E-6
418.742180E-3,-4.900932E-3,-4.898643E-3,-4.930687E-3,61.798096E-6,32.043457E-6
418.265533E-3,-5.443382E-3,-5.591011E-3,-5.320358E-3,61.798096E-6,-270.652771E-6
418.449783E-3,-5.268860E-3,-5.503464E-3,-5.550385E-3,61.798096E-6,46.920776E-6
419.091797E-3,-4.682350E-3,-5.139542E-3,-5.346107E-3,61.798096E-6,206.565857E-6
418.173981E-3,-5.921173E-3,-6.401825E-3,-6.474495E-3,61.798096E-6,72.669983E-6
419.630814E-3,-4.647446E-3,-4.939842E-3,-4.827690E-3,61.798096E-6,-112.152100E-6
418.886375E-3,-5.130386E-3,-5.623627E-3,-5.523491E-3,61.798096E-6,-100.135803E-6
418.843460E-3,-5.003357E-3,-5.406761E-3,-5.833054E-3,61.798096E-6,426.292419E-6
419.492912E-3,-4.830551E-3,-5.057144E-3,-5.461693E-3,61.798096E-6,404.548645E-6
418.633461E-3,-6.850433E-3,-6.205559E-3,-6.532860E-3,61.798096E-6,327.301025E-6
420.124626E-3,-4.801941E-3,-4.797935E-3,-5.093765E-3,61.798096E-6,295.829773E-6
419.486046E-3,-5.114365E-3,-5.532646E-3,-5.628777E-3,61.798096E-6,96.130371E-6
419.836807E-3,-5.317497E-3,-5.517769E-3,-5.795860E-3,61.798096E-6,278.091431E-6
420.227623E-3,-4.817390E-3,-5.054283E-3,-5.334663E-3,61.798096E-6,280.380249E-6
419.126129E-3,-5.701447E-3,-6.273651E-3,-6.344032E-3,61.798096E-6,70.381165E-6
420.812988E-3,-4.420280E-3,-4.948997E-3,-4.948997E-3,61.798096E-6,0.000000E+0
420.425606E-3,-5.179596E-3,-5.300331E-3,-5.528641E-3,61.798096E-6,228.309631E-6
420.561790E-3,-5.177307E-3,-5.511475E-3,-5.821609E-3,61.798096E-6,310.134888E-6
421.055031E-3,-5.353546E-3,-5.203056E-3,-5.382156E-3,61.798096E-6,179.100037E-6
419.921494E-3,-6.316566E-3,-6.607819E-3,-6.546021E-3,61.798096E-6,-61.798096E-6
421.579170E-3,-4.713249E-3,-5.073738E-3,-4.950142E-3,61.798096E-6,-123.596191E-6
421.138000E-3,-5.270576E-3,-5.572128E-3,-5.442238E-3,61.798096E-6,-129.890442E-6
421.025276E-3,-5.252266E-3,-5.552673E-3,-5.855942E-3,61.798096E-6,303.268433E-6
421.462440E-3,-4.824257E-3,-5.138397E-3,-5.327225E-3,61.798096E-6,188.827515E-6
420.447350E-3,-6.028748E-3,-6.205559E-3,-6.485367E-3,61.798096E-6,279.808044E-6
421.901894E-3,-4.732132E-3,-4.796219E-3,-4.963875E-3,61.798096E-6,167.655945E-6
421.604347E-3,-5.255127E-3,-5.219078E-3,-5.466843E-3,61.798096E-6,247.764587E-6
421.802902E-3,-5.157852E-3,-5.558395E-3,-5.610466E-3,61.798096E-6,52.070618E-6
422.471237E-3,-4.859734E-3,-5.119514E-3,-5.239105E-3,61.798096E-6,119.590759E-6
421.600914E-3,-6.064796E-3,-6.209564E-3,-6.511688E-3,61.798096E-6,302.124023E-6
423.229980E-3,-4.635429E-3,-4.771042E-3,-4.862022E-3,61.798096E-6,90.980530E-6
422.889519E-3,-5.181885E-3,-5.403900E-3,-5.470276E-3,61.798096E-6,66.375732E-6
423.193359E-3,-5.299759E-3,-5.601883E-3,-5.596733E-3,61.798096E-6,-5.149841E-6
423.756981E-3,-5.234528E-3,-5.118942E-3,-5.259132E-3,58.937073E-6,140.190125E-6
421.549416E-3,-6.196404E-3,-6.302834E-3,-6.398392E-3,58.937073E-6,95.558167E-6
423.516083E-3,-4.654884E-3,-4.795074E-3,-5.027962E-3,58.937073E-6,232.887268E-6
423.254013E-3,-5.055428E-3,-5.417633E-3,-5.591011E-3,58.937073E-6,173.377991E-6
423.345566E-3,-4.886627E-3,-5.552101E-3,-6.043053E-3,58.937073E-6,490.951538E-6
423.513222E-3,-4.781914E-3,-5.291176E-3,-5.548096E-3,58.937073E-6,256.919861E-6
421.519089E-3,-5.993843E-3,-6.476212E-3,-6.720543E-3,58.937073E-6,244.331360E-6
421.387482E-3,-4.322433E-3,-4.914665E-3,-5.187607E-3,58.937073E-6,272.941589E-6
418.473816E-3,-5.017662E-3,-5.351830E-3,-5.483437E-3,58.937073E-6,131.607056E-6
415.687752E-3,-5.487442E-3,-5.754662E-3,-5.980682E-3,58.937073E-6,226.020813E-6
413.115120E-3,-5.094910E-3,-5.381012E-3,-5.388451E-3,58.937073E-6,7.438660E-6
408.392143E-3,-6.064224E-3,-6.436157E-3,-6.511116E-3,58.937073E-6,74.958801E-6
407.455444E-3,-4.674339E-3,-4.928398E-3,-4.819679E-3,58.937073E-6,-108.718872E-6
405.117989E-3,-5.089188E-3,-5.455399E-3,-5.607033E-3,58.937073E-6,151.634216E-6
404.006195E-3,-5.392456E-3,-5.676842E-3,-6.147766E-3,58.937073E-6,470.924377E-6
404.007339E-3,-5.225945E-3,-5.290031E-3,-5.572128E-3,58.937073E-6,282.096863E-6
403.138161E-3,-6.254768E-3,-6.371498E-3,-6.762886E-3,58.937073E-6,391.387939E-6
405.567741E-3,-4.571342E-3,-4.875183E-3,-5.076027E-3,58.937073E-6,200.843811E-6
405.979156E-3,-5.212784E-3,-5.418777E-3,-5.541801E-3,58.937073E-6,123.023987E-6
406.643486E-3,-5.352974E-3,-5.933762E-3,-5.981255E-3,58.937073E-6,47.492981E-6
407.790756E-3,-5.001640E-3,-5.287170E-3,-5.405617E-3,58.937073E-6,118.446350E-6
407.421112E-3,-6.311417E-3,-6.532860E-3,-6.306839E-3,58.937073E-6,-226.020813E-6
409.462166E-3,-4.678345E-3,-4.808235E-3,-4.888344E-3,58.937073E-6,80.108643E-6
409.126282E-3,-5.279732E-3,-5.496597E-3,-5.346680E-3,58.937073E-6,-149.917603E-6
408.558655E-3,-5.405617E-3,-6.167793E-3,-6.037331E-3,58.937073E-6,-130.462646E-6
408.852196E-3,-5.013657E-3,-5.437088E-3,-5.620766E-3,58.937073E-6,183.677673E-6
407.373047E-3,-6.240463E-3,-6.496811E-3,-6.334877E-3,58.937073E-6,-161.933899E-6
408.345795E-3,-4.769897E-3,-5.047989E-3,-4.974747E-3,58.937073E-6,-73.242187E-6
407.424545E-3,-5.338669E-3,-5.388451E-3,-5.471420E-3,58.937073E-6,82.969666E-6
407.107544E-3,-5.656242E-3,-5.904579E-3,-6.105995E-3,58.937073E-6,201.416016E-6
407.694054E-3,-4.957581E-3,-5.539513E-3,-5.663109E-3,58.937073E-6,123.596191E-6
406.957054E-3,-6.245613E-3,-6.596375E-3,-6.515694E-3,58.937073E-6,-80.680847E-6
409.366608E-3,-4.674911E-3,-5.039978E-3,-4.959869E-3,58.937073E-6,-80.108643E-6
409.814644E-3,-5.275154E-3,-5.738068E-3,-5.675125E-3,58.937073E-6,-62.942505E-6
410.778236E-3,-5.648232E-3,-6.094551E-3,-6.084251E-3,58.937073E-6,-10.299683E-6
412.174416E-3,-5.145264E-3,-5.353546E-3,-5.469131E-3,58.937073E-6,115.585327E-6
411.482620E-3,-6.204987E-3,-6.657600E-3,-6.517982E-3,58.937073E-6,-139.617920E-6
413.237572E-3,-4.548454E-3,-5.002785E-3,-4.847717E-3,58.937073E-6,-155.067444E-6
412.570953E-3,-5.307770E-3,-5.489731E-3,-5.447960E-3,58.937073E-6,-41.770935E-6
412.044525E-3,-5.680275E-3,-5.970955E-3,-5.872536E-3,58.937073E-6,-98.419189E-6
412.052536E-3,-5.089760E-3,-5.403328E-3,-5.493736E-3,58.937073E-6,90.408325E-6
410.698128E-3,-6.238747E-3,-6.137466E-3,-6.309700E-3,58.937073E-6,172.233582E-6
412.026787E-3,-4.546165E-3,-4.864311E-3,-4.789925E-3,58.937073E-6,-74.386597E-6
411.342430E-3,-5.137825E-3,-5.509186E-3,-5.676842E-3,58.937073E-6,167.655945E-6
411.163902E-3,-5.688286E-3,-5.950356E-3,-6.118011E-3,58.937073E-6,167.655945E-6
411.734962E-3,-5.132675E-3,-5.665970E-3,-5.308342E-3,58.937073E-6,-357.627869E-6
410.925865E-3,-6.031036E-3,-6.255341E-3,-6.222153E-3,58.937073E-6,-33.187866E-6
413.111687E-3,-4.565620E-3,-4.970741E-3,-4.701233E-3,58.937073E-6,-269.508362E-6
413.150597E-3,-4.974174E-3,-5.458832E-3,-5.604172E-3,58.937073E-6,145.339966E-6
413.083649E-3,-5.677986E-3,-5.917740E-3,-6.303406E-3,58.937073E-6,385.665894E-6
414.235497E-3,-4.986763E-3,-5.446815E-3,-5.656242E-3,58.937073E-6,209.426880E-6
413.488770E-3,-6.266785E-3,-6.242180E-3,-6.229019E-3,58.937073E-6,-13.160706E-6
415.458870E-3,-4.795074E-3,-4.892921E-3,-4.967880E-3,58.937073E-6,74.958801E-6
415.092087E-3,-5.126953E-3,-5.325508E-3,-5.342102E-3,58.937073E-6,16.593933E-6
414.972496E-3,-5.798721E-3,-5.724335E-3,-6.124306E-3,58.937073E-6,399.971008E-6
415.397072E-3,-5.130959E-3,-5.285454E-3,-5.475426E-3,58.937073E-6,189.971924E-6
414.737892E-3,-5.898857E-3,-6.222153E-3,-6.316566E-3,58.937073E-6,94.413757E-6
416.688538E-3,-4.642868E-3,-4.799652E-3,-4.929543E-3,58.937073E-6,129.890442E-6
416.534615E-3,-5.449104E-3,-5.473709E-3,-5.308914E-3,58.937073E-6,-164.794922E-6
416.092300E-3,-5.809021E-3,-5.999565E-3,-6.377220E-3,58.937073E-6,377.655029E-6
416.719437E-3,-5.269432E-3,-5.326653E-3,-6.019592E-3,58.937073E-6,692.939758E-6
415.779877E-3,-6.100845E-3,-6.064224E-3,-6.289101E-3,58.937073E-6,224.876404E-6
417.458153E-3,-4.491234E-3,-4.791641E-3,-5.010223E-3,58.937073E-6,218.582153E-6
417.172050E-3,-5.110931E-3,-5.237961E-3,-5.425072E-3,58.937073E-6,187.110901E-6
417.012978E-3,-5.580139E-3,-6.019592E-3,-6.006432E-3,58.937073E-6,-13.160706E-6
417.737389E-3,-5.211639E-3,-5.494881E-3,-5.493164E-3,58.937073E-6,-1.716614E-6
416.703415E-3,-6.060219E-3,-6.153488E-3,-6.211281E-3,58.937073E-6,57.792664E-6
418.321609E-3,-4.666901E-3,-4.931831E-3,-4.995918E-3,58.937073E-6,64.086914E-6
417.995453E-3,-5.213928E-3,-5.335236E-3,-5.183601E-3,58.937073E-6,-151.634216E-6
417.493057E-3,-6.043053E-3,-6.040192E-3,-5.852509E-3,58.937073E-6,-187.683105E-6
418.148232E-3,-5.680847E-3,-5.347824E-3,-5.347252E-3,58.937073E-6,-572.204590E-9
417.491341E-3,-6.129456E-3,-5.966949E-3,-6.096840E-3,58.937073E-6,129.890442E-6
418.961334E-3,-4.506111E-3,-4.875755E-3,-4.980469E-3,58.937073E-6,104.713440E-6
418.274117E-3,-5.114365E-3,-5.288315E-3,-5.223083E-3,58.937073E-6,-65.231323E-6
418.095016E-3,-5.627060E-3,-5.986977E-3,-6.084824E-3,58.937073E-6,97.846985E-6
418.865776E-3,-5.099487E-3,-5.425072E-3,-5.339813E-3,66.375732E-6,-85.258484E-6
418.298149E-3,-5.986977E-3,-6.011009E-3,-5.906868E-3,66.375732E-6,-104.141235E-6
419.571304E-3,-4.615402E-3,-4.678917E-3,-4.809952E-3,66.375732E-6,131.034851E-6
419.130707E-3,-5.171013E-3,-5.237389E-3,-5.406761E-3,66.375732E-6,169.372559E-6
418.888664E-3,-5.596161E-3,-6.370926E-3,-5.987549E-3,66.375732E-6,-383.377075E-6
419.431686E-3,-5.074883E-3,-6.065941E-3,-5.160141E-3,66.375732E-6,-905.799866E-6
418.985939E-3,-5.889702E-3,-6.389236E-3,-6.130600E-3,66.375732E-6,-258.636475E-6
420.433044E-3,-4.579353E-3,-5.129242E-3,-5.076027E-3,66.375732E-6,-53.215027E-6
419.812775E-3,-5.058861E-3,-5.353546E-3,-5.308342E-3,66.375732E-6,-45.204163E-6
419.472885E-3,-5.978966E-3,-6.013298E-3,-6.082535E-3,66.375732E-6,69.236755E-6
419.958687E-3,-5.136681E-3,-6.167221E-3,-5.324364E-3,66.375732E-6,-842.857361E-6
419.252586E-3,-5.862808E-3,-6.448746E-3,-6.052780E-3,66.375732E-6,-395.965576E-6
420.662498E-3,-4.551888E-3,-5.034828E-3,-5.077171E-3,66.375732E-6,42.343140E-6
420.429611E-3,-5.088615E-3,-5.181313E-3,-5.425644E-3,66.375732E-6,244.331360E-6
420.087433E-3,-5.644798E-3,-5.903435E-3,-6.132889E-3,66.375732E-6,229.454041E-6
420.811272E-3,-5.095482E-3,-5.291748E-3,-5.454254E-3,66.375732E-6,162.506104E-6
420.106316E-3,-5.883408E-3,-6.055641E-3,-6.015587E-3,66.375732E-6,-40.054321E-6
421.802902E-3,-4.698944E-3,-4.986191E-3,-4.912949E-3,66.375732E-6,-73.242187E-6
421.471596E-3,-4.953575E-3,-5.198479E-3,-5.374146E-3,66.375732E-6,175.666809E-6
421.232414E-3,-5.616188E-3,-5.874252E-3,-6.391525E-3,66.375732E-6,517.272949E-6
422.106743E-3,-5.216217E-3,-5.694580E-3,-5.550385E-3,66.375732E-6,-144.195557E-6
421.507072E-3,-5.511475E-3,-6.063080E-3,-6.246758E-3,66.375732E-6,183.677673E-6
423.009109E-3,-4.466057E-3,-4.820824E-3,-4.937553E-3,66.375732E-6,116.729736E-6
422.676086E-3,-5.198479E-3,-5.418777E-3,-5.187035E-3,66.375732E-6,-231.742859E-6
422.299004E-3,-5.925179E-3,-6.011009E-3,-5.958366E-3,66.375732E-6,-52.642822E-6
422.935295E-3,-5.256844E-3,-5.178452E-3,-5.361557E-3,66.375732E-6,183.105469E-6
422.217178E-3,-5.874252E-3,-6.143188E-3,-6.057930E-3,66.375732E-6,-85.258484E-6
423.396492E-3,-4.546738E-3,-4.884338E-3,-4.952431E-3,66.375732E-6,68.092346E-6
422.702980E-3,-5.033684E-3,-5.240250E-3,-5.347252E-3,66.375732E-6,107.002258E-6
421.796036E-3,-5.567551E-3,-5.953789E-3,-7.002640E-3,66.375732E-6,1.048851E-3
421.092224E-3,-5.014801E-3,-5.357552E-3,-5.708313E-3,66.375732E-6,350.761414E-6
418.272400E-3,-5.759811E-3,-5.961227E-3,-6.311417E-3,66.375732E-6,350.189209E-6
417.023277E-3,-4.659462E-3,-4.733849E-3,-5.112076E-3,66.375732E-6,378.227234E-6
413.622665E-3,-4.954720E-3,-5.239105E-3,-5.479431E-3,66.375732E-6,240.325928E-6
409.834671E-3,-6.291962E-3,-5.681992E-3,-5.994415E-3,66.375732E-6,312.423706E-6
407.602501E-3,-5.760384E-3,-5.130386E-3,-5.342102E-3,66.375732E-6,211.715698E-6
404.770088E-3,-5.954361E-3,-5.909729E-3,-6.179237E-3,66.375732E-6,269.508362E-6
404.540062E-3,-4.789925E-3,-4.784203E-3,-5.079460E-3,66.375732E-6,295.257568E-6
403.336716E-3,-4.963875E-3,-5.013084E-3,-5.489731E-3,66.375732E-6,476.646423E-6
402.960777E-3,-5.602455E-3,-5.645370E-3,-6.075096E-3,66.375732E-6,429.725647E-6
404.023361E-3,-4.916382E-3,-5.177879E-3,-5.340385E-3,66.375732E-6,162.506104E-6
404.417610E-3,-5.708885E-3,-6.011581E-3,-6.028175E-3,66.375732E-6,16.593933E-6
406.573105E-3,-4.514122E-3,-4.958725E-3,-5.054855E-3,66.375732E-6,96.130371E-6
407.203102E-3,-4.982758E-3,-5.444527E-3,-5.471992E-3,66.375732E-6,27.465820E-6
407.128716E-3,-5.655098E-3,-5.992699E-3,-6.478500E-3,66.375732E-6,485.801697E-6
408.266830E-3,-5.012512E-3,-5.249405E-3,-5.437660E-3,66.375732E-6,188.255310E-6
407.790756E-3,-5.850220E-3,-5.998993E-3,-6.246758E-3,66.375732E-6,247.764587E-6
408.998108E-3,-4.434013E-3,-4.896355E-3,-5.058861E-3,66.375732E-6,162.506104E-6
408.599281E-3,-4.972458E-3,-5.288315E-3,-5.248260E-3,66.375732E-6,-40.054321E-6
407.512093E-3,-5.611610E-3,-5.676842E-3,-6.147766E-3,66.375732E-6,470.924377E-6
407.733536E-3,-4.991913E-3,-5.207634E-3,-5.348969E-3,66.375732E-6,141.334534E-6
406.807709E-3,-5.802727E-3,-5.893707E-3,-6.224442E-3,66.375732E-6,330.734253E-6
407.587051E-3,-4.360771E-3,-4.686356E-3,-5.039978E-3,66.375732E-6,353.622437E-6
407.227707E-3,-4.837990E-3,-5.339813E-3,-5.120087E-3,66.375732E-6,-219.726562E-6
407.192230E-3,-5.591583E-3,-5.855370E-3,-5.944061E-3,66.375732E-6,88.691711E-6
408.383560E-3,-5.064011E-3,-5.337524E-3,-5.302620E-3,66.375732E-6,-34.904480E-6
408.847046E-3,-5.909157E-3,-6.057930E-3,-5.960655E-3,66.375732E-6,-97.274780E-6
411.155891E-3,-4.580498E-3,-4.938698E-3,-5.122948E-3,66.375732E-6,184.249878E-6
411.581039E-3,-4.991341E-3,-5.232239E-3,-5.280304E-3,66.375732E-6,48.065186E-6
411.747551E-3,-5.665970E-3,-6.695366E-3,-5.969810E-3,66.375732E-6,-725.555420E-6
412.529755E-3,-5.554390E-3,-5.385017E-3,-5.382729E-3,66.375732E-6,-2.288818E-6
411.727524E-3,-5.949211E-3,-5.997849E-3,-6.236458E-3,66.375732E-6,238.609314E-6
412.590408E-3,-4.719543E-3,-4.854584E-3,-5.223656E-3,66.375732E-6,369.071960E-6
411.601639E-3,-4.931831E-3,-5.233383E-3,-5.339813E-3,66.375732E-6,106.430054E-6
410.737038E-3,-5.603027E-3,-5.930901E-3,-6.842422E-3,66.375732E-6,911.521912E-6
410.945892E-3,-5.054855E-3,-5.132103E-3,-5.532074E-3,66.375732E-6,399.971008E-6
410.181427E-3,-5.853081E-3,-5.968094E-3,-6.016731E-3,66.375732E-6,48.637390E-6
411.459160E-3,-4.840851E-3,-4.815102E-3,-4.990768E-3,66.375732E-6,175.666809E-6
411.108971E-3,-5.163002E-3,-5.232811E-3,-5.321503E-3,66.375732E-6,88.691711E-6
410.906410E-3,-5.706024E-3,-6.144905E-3,-6.065941E-3,66.375732E-6,-78.964233E-6
411.926079E-3,-4.955292E-3,-5.282021E-3,-5.912018E-3,66.375732E-6,629.997253E-6
411.761856E-3,-5.824471E-3,-6.002426E-3,-6.262207E-3,66.375732E-6,259.780884E-6
413.331985E-3,-4.743576E-3,-4.836845E-3,-5.086327E-3,66.375732E-6,249.481201E-6
413.434410E-3,-4.966736E-3,-5.334091E-3,-5.444527E-3,66.375732E-6,110.435486E-6
413.453865E-3,-5.600739E-3,-5.970383E-3,-6.065369E-3,66.375732E-6,94.985962E-6
414.422607E-3,-4.990768E-3,-5.205345E-3,-5.113220E-3,66.375732E-6,-92.124939E-6
414.146805E-3,-5.776978E-3,-5.965233E-3,-5.975533E-3,66.375732E-6,10.299683E-6
415.722084E-3,-4.666328E-3,-4.870033E-3,-5.053711E-3,66.375732E-6,183.677673E-6
415.762138E-3,-4.995346E-3,-5.217934E-3,-5.443382E-3,66.375732E-6,225.448608E-6
415.402794E-3,-5.500603E-3,-5.972099E-3,-6.215858E-3,66.375732E-6,243.759155E-6
416.239357E-3,-4.822540E-3,-5.170441E-3,-5.260277E-3,66.375732E-6,89.836121E-6
415.566444E-3,-5.842781E-3,-5.795860E-3,-6.040764E-3,66.375732E-6,244.903564E-6
416.753769E-3,-4.488373E-3,-4.821968E-3,-5.038261E-3,66.375732E-6,216.293335E-6
416.844749E-3,-4.935837E-3,-5.267715E-3,-5.282021E-3,66.375732E-6,14.305115E-6
415.930367E-3,-5.659103E-3,-5.929756E-3,-5.977821E-3,66.375732E-6,48.065186E-6
416.550064E-3,-4.810524E-3,-5.092621E-3,-5.161858E-3,66.375732E-6,69.236755E-6
416.262817E-3,-5.667114E-3,-5.714607E-3,-6.106567E-3,66.375732E-6,391.960144E-6
417.641830E-3,-4.641151E-3,-4.832268E-3,-5.096626E-3,68.664551E-6,264.358521E-6
417.364883E-3,-4.785347E-3,-4.986763E-3,-5.210495E-3,68.664551E-6,223.731995E-6
416.436195E-3,-5.592728E-3,-5.883980E-3,-5.958939E-3,68.664551E-6,74.958801E-6
417.455292E-3,-5.043411E-3,-5.070305E-3,-5.247116E-3,68.664551E-6,176.811218E-6
417.023849E-3,-5.737495E-3,-5.762672E-3,-5.883408E-3,68.664551E-6,120.735168E-6
418.384552E-3,-4.630852E-3,-4.991913E-3,-5.211067E-3,68.664551E-6,219.154358E-6
418.259811E-3,-5.025101E-3,-5.167580E-3,-5.111504E-3,68.664551E-6,-56.076050E-6
417.637253E-3,-5.696297E-3,-5.962944E-3,-5.974960E-3,68.664551E-6,12.016296E-6
418.365669E-3,-4.949570E-3,-5.141830E-3,-5.140114E-3,68.664551E-6,-1.716614E-6
417.799187E-3,-5.765533E-3,-6.025314E-3,-5.987549E-3,68.664551E-6,-37.765503E-6
418.911552E-3,-4.617119E-3,-4.942131E-3,-5.153847E-3,68.664551E-6,211.715698E-6
418.862915E-3,-4.957008E-3,-5.129814E-3,-5.067444E-3,68.664551E-6,-62.370300E-6
418.326759E-3,-5.798721E-3,-6.093979E-3,-6.039619E-3,68.664551E-6,-54.359436E-6
419.052315E-3,-5.018806E-3,-5.294037E-3,-5.457687E-3,68.664551E-6,163.650513E-6
418.405724E-3,-5.801582E-3,-5.958366E-3,-5.928040E-3,68.664551E-6,-30.326843E-6
419.559860E-3,-4.586792E-3,-5.142403E-3,-5.170441E-3,68.664551E-6,28.038025E-6
419.274330E-3,-5.049706E-3,-5.073738E-3,-5.374718E-3,68.664551E-6,300.979614E-6
418.973923E-3,-5.590439E-3,-6.028748E-3,-6.258774E-3,68.664551E-6,230.026245E-6
420.105171E-3,-4.742432E-3,-5.120659E-3,-5.299759E-3,68.664551E-6,179.100037E-6
419.353294E-3,-5.601883E-3,-5.822182E-3,-5.903435E-3,68.664551E-6,81.253052E-6
420.499420E-3,-4.640007E-3,-4.905510E-3,-5.111504E-3,68.664551E-6,205.993652E-6
420.412445E-3,-5.018806E-3,-5.237961E-3,-5.432510E-3,68.664551E-6,194.549561E-6
419.965553E-3,-6.608963E-3,-6.052780E-3,-6.078529E-3,68.664551E-6,25.749207E-6
420.750046E-3,-5.054283E-3,-5.152702E-3,-5.276299E-3,68.664551E-6,123.596191E-6
420.018196E-3,-5.647087E-3,-5.884552E-3,-6.020737E-3,68.664551E-6,136.184692E-6
421.311951E-3,-4.788208E-3,-5.065727E-3,-5.081177E-3,68.664551E-6,15.449524E-6
421.134567E-3,-5.015945E-3,-5.369568E-3,-5.123520E-3,68.664551E-6,-246.047974E-6
420.553780E-3,-5.853081E-3,-6.086540E-3,-6.088829E-3,68.664551E-6,2.288818E-6
421.323967E-3,-5.385590E-3,-5.146980E-3,-5.043411E-3,68.664551E-6,-103.569031E-6
420.586967E-3,-5.829048E-3,-5.935478E-3,-5.942345E-3,68.664551E-6,6.866455E-6
421.818924E-3,-4.684639E-3,-5.063438E-3,-5.224800E-3,68.664551E-6,161.361694E-6
421.564293E-3,-4.847717E-3,-5.431366E-3,-5.463409E-3,68.664551E-6,32.043457E-6
421.022415E-3,-5.668259E-3,-6.455612E-3,-6.129456E-3,68.664551E-6,-326.156616E-6
421.885872E-3,-4.624557E-3,-5.342102E-3,-5.026245E-3,68.664551E-6,-315.856934E-6
421.310806E-3,-5.583000E-3,-5.776978E-3,-5.846214E-3,68.664551E-6,69.236755E-6
422.517014E-3,-4.303551E-3,-4.908371E-3,-5.207062E-3,68.664551E-6,298.690796E-6
422.529602E-3,-4.941559E-3,-5.070877E-3,-5.432510E-3,68.664551E-6,361.633301E-6
421.278191E-3,-5.745506E-3,-6.004715E-3,-6.121445E-3,68.664551E-6,116.729736E-6
422.710991E-3,-4.914665E-3,-5.203056E-3,-4.697800E-3,68.664551E-6,-505.256653E-6
422.338486E-3,-5.664825E-3,-5.809021E-3,-5.851936E-3,68.664551E-6,42.915344E-6
423.584747E-3,-4.543877E-3,-4.870605E-3,-5.238533E-3,68.664551E-6,367.927551E-6
423.503494E-3,-4.869461E-3,-5.164719E-3,-5.407333E-3,68.664551E-6,242.614746E-6
422.936440E-3,-5.657959E-3,-6.134033E-3,-6.150627E-3,68.664551E-6,16.593933E-6
423.294640E-3,-4.692650E-3,-4.760170E-3,-4.555893E-3,68.664551E-6,-204.277039E-6
422.567940E-3,-5.541801E-3,-5.710602E-3,-5.655098E-3,68.664551E-6,-55.503845E-6
423.276329E-3,-4.587936E-3,-4.901505E-3,-5.041695E-3,68.664551E-6,140.190125E-6
422.296715E-3,-4.842567E-3,-5.109787E-3,-5.060005E-3,68.664551E-6,-49.781799E-6
419.831657E-3,-5.691719E-3,-6.081963E-3,-6.196404E-3,68.664551E-6,114.440918E-6
418.234634E-3,-5.000496E-3,-4.934120E-3,-4.678345E-3,68.664551E-6,-255.775452E-6
414.292145E-3,-5.550385E-3,-5.806732E-3,-5.869102E-3,68.664551E-6,62.370300E-6
412.072563E-3,-4.659462E-3,-4.943848E-3,-5.294609E-3,68.664551E-6,350.761414E-6
408.681107E-3,-5.047417E-3,-5.368996E-3,-5.183029E-3,68.664551E-6,-185.966492E-6
405.188370E-3,-5.824471E-3,-6.145477E-3,-6.019592E-3,68.664551E-6,-125.885010E-6
404.025650E-3,-4.778481E-3,-4.758453E-3,-4.622269E-3,68.664551E-6,-136.184692E-6
402.240372E-3,-5.393600E-3,-5.644798E-3,-5.541801E-3,68.664551E-6,-102.996826E-6
402.912712E-3,-4.627419E-3,-4.992485E-3,-5.049133E-3,68.664551E-6,56.648254E-6
402.966499E-3,-5.027390E-3,-5.314636E-3,-5.140114E-3,68.664551E-6,-174.522400E-6
403.137016E-3,-5.704880E-3,-6.138039E-3,-5.962372E-3,68.664551E-6,-175.666809E-6
404.821587E-3,-4.515266E-3,-4.446602E-3,-4.539871E-3,68.664551E-6,93.269348E-6
404.908562E-3,-5.577850E-3,-5.370140E-3,-5.712891E-3,68.664551E-6,342.750549E-6
406.751633E-3,-4.851723E-3,-4.857445E-3,-5.324936E-3,80.680847E-6,467.491150E-6
407.190514E-3,-4.974174E-3,-5.122948E-3,-5.291176E-3,80.680847E-6,168.228149E-6
406.492996E-3,-6.572342E-3,-5.861664E-3,-6.011009E-3,80.680847E-6,149.345398E-6
406.990814E-3,-4.994774E-3,-4.377937E-3,-4.643440E-3,80.680847E-6,265.502930E-6
406.589699E-3,-5.611610E-3,-5.553818E-3,-5.862808E-3,80.680847E-6,308.990479E-6
407.382774E-3,-4.732132E-3,-5.027390E-3,-5.319786E-3,80.680847E-6,292.396545E-6
406.535339E-3,-4.912949E-3,-5.308914E-3,-5.204201E-3,80.680847E-6,-104.713440E-6
404.648209E-3,-5.786133E-3,-6.105995E-3,-6.028748E-3,80.680847E-6,-77.247620E-6
405.507660E-3,-4.365349E-3,-4.439163E-3,-4.585075E-3,80.680847E-6,145.912170E-6
404.788971E-3,-5.279160E-3,-5.645943E-3,-5.941200E-3,80.680847E-6,295.257568E-6
405.687332E-3,-4.650879E-3,-5.054283E-3,-5.340385E-3,80.680847E-6,286.102295E-6
405.880737E-3,-4.712677E-3,-5.349541E-3,-5.328369E-3,80.680847E-6,-21.171570E-6
405.784035E-3,-5.511475E-3,-5.799294E-3,-5.917740E-3,80.680847E-6,118.446350E-6
407.673454E-3,-4.122162E-3,-4.397964E-3,-4.393959E-3,80.680847E-6,-4.005432E-6
407.874870E-3,-5.373001E-3,-5.639076E-3,-5.760384E-3,80.680847E-6,121.307373E-6
409.899902E-3,-4.719543E-3,-5.030251E-3,-5.300903E-3,80.680847E-6,270.652771E-6
410.615730E-3,-4.759026E-3,-5.082321E-3,-5.094337E-3,80.680847E-6,12.016296E-6
410.009193E-3,-5.811882E-3,-5.990410E-3,-6.016731E-3,80.680847E-6,26.321411E-6
411.635971E-3,-4.436874E-3,-4.494095E-3,-4.523849E-3,80.680847E-6,29.754639E-6
410.784531E-3,-5.267143E-3,-5.861664E-3,-5.681419E-3,80.680847E-6,-180.244446E-6
411.482620E-3,-4.787064E-3,-5.289459E-3,-5.413628E-3,80.680847E-6,124.168396E-6
410.945892E-3,-4.898643E-3,-5.177307E-3,-5.061150E-3,80.680847E-6,-116.157532E-6
409.854698E-3,-5.729485E-3,-5.866814E-3,-5.944633E-3,80.680847E-6,77.819824E-6
411.047745E-3,-4.157066E-3,-4.373932E-3,-4.317856E-3,80.680847E-6,-56.076050E-6
410.040092E-3,-5.466270E-3,-5.636787E-3,-5.709457E-3,80.680847E-6,72.669983E-6
410.833168E-3,-4.760742E-3,-5.164146E-3,-5.375862E-3,80.680847E-6,211.715698E-6
411.170769E-3,-5.025673E-3,-5.223656E-3,-5.374146E-3,80.680847E-6,150.489807E-6
410.643196E-3,-5.720329E-3,-5.986977E-3,-5.967522E-3,80.680847E-6,-19.454956E-6
412.513733E-3,-4.202843E-3,-4.406548E-3,-4.278374E-3,80.680847E-6,-128.173828E-6
411.737251E-3,-5.347252E-3,-5.748367E-3,-5.751801E-3,80.680847E-6,3.433228E-6
412.825584E-3,-4.701233E-3,-5.010796E-3,-5.303192E-3,80.680847E-6,292.396545E-6
413.381767E-3,-4.909515E-3,-4.974747E-3,-5.177879E-3,80.680847E-6,203.132629E-6
413.040733E-3,-5.543518E-3,-5.941200E-3,-7.062721E-3,80.680847E-6,1.121521E-3
414.923286E-3,-3.970528E-3,-4.486084E-3,-4.860878E-3,80.680847E-6,374.794006E-6
414.102173E-3,-5.295181E-3,-5.758667E-3,-5.901718E-3,80.680847E-6,143.051147E-6
415.033722E-3,-4.886627E-3,-5.140114E-3,-5.293465E-3,80.680847E-6,153.350830E-6
415.171623E-3,-4.916954E-3,-4.844284E-3,-5.179024E-3,80.680847E-6,334.739685E-6
414.266968E-3,-5.571556E-3,-5.685997E-3,-5.929184E-3,80.680847E-6,243.186951E-6
416.412163E-3,-4.190254E-3,-4.206276E-3,-4.387093E-3,80.680847E-6,180.816650E-6
415.569878E-3,-5.450821E-3,-5.457687E-3,-5.574417E-3,80.680847E-6,116.729736E-6
416.464806E-3,-4.956436E-3,-5.132103E-3,-5.125237E-3,80.680847E-6,-6.866455E-6
416.501427E-3,-4.973602E-3,-5.098915E-3,-5.098915E-3,80.680847E-6,0.000000E+0
415.928650E-3,-5.593872E-3,-7.132530E-3,-5.887413E-3,80.680847E-6,-1.245117E-3
417.604065E-3,-4.039764E-3,-4.849434E-3,-4.425430E-3,80.680847E-6,-424.003601E-6
416.572952E-3,-5.296326E-3,-5.804443E-3,-5.727768E-3,80.680847E-6,-76.675415E-6
417.435837E-3,-4.709816E-3,-5.316925E-3,-5.300331E-3,80.680847E-6,-16.593933E-6
417.267609E-3,-4.738426E-3,-5.041695E-3,-5.204201E-3,80.680847E-6,162.506104E-6
416.588402E-3,-5.680275E-3,-5.744362E-3,-6.703377E-3,80.680847E-6,959.014893E-6
418.298721E-3,-4.015160E-3,-4.206276E-3,-4.817390E-3,80.680847E-6,611.114502E-6
417.332268E-3,-5.324364E-3,-5.485153E-3,-5.746651E-3,80.680847E-6,261.497498E-6
417.985153E-3,-4.821968E-3,-5.317497E-3,-5.466843E-3,80.680847E-6,149.345398E-6
418.040085E-3,-4.793930E-3,-5.088615E-3,-5.237389E-3,90.980530E-6,148.773193E-6
417.368317E-3,-5.498886E-3,-5.796432E-3,-5.895424E-3,90.980530E-6,98.991394E-6
419.080925E-3,-3.884125E-3,-4.345894E-3,-4.353333E-3,90.980530E-6,7.438660E-6
417.772293E-3,-5.219078E-3,-5.530930E-3,-5.732346E-3,90.980530E-6,201.416016E-6
418.339920E-3,-4.808235E-3,-5.283737E-3,-5.340385E-3,90.980530E-6,56.648254E-6
418.714714E-3,-4.877472E-3,-5.173874E-3,-5.100060E-3,90.980530E-6,-73.814392E-6
418.118477E-3,-5.616760E-3,-5.747795E-3,-5.711746E-3,90.980530E-6,-36.048889E-6
419.772720E-3,-3.981400E-3,-4.221153E-3,-4.365921E-3,90.980530E-6,144.767761E-6
418.724442E-3,-5.431938E-3,-5.544090E-3,-5.798721E-3,90.980530E-6,254.631042E-6
419.214249E-3,-5.053711E-3,-5.218506E-3,-5.106354E-3,90.980530E-6,-112.152100E-6
419.524956E-3,-4.877472E-3,-5.041122E-3,-5.209923E-3,90.980530E-6,168.800354E-6
418.897820E-3,-5.574417E-3,-5.736923E-3,-7.195473E-3,90.980530E-6,1.458549E-3
420.826149E-3,-3.979111E-3,-4.341316E-3,-4.955292E-3,90.980530E-6,613.975525E-6
419.606781E-3,-5.365562E-3,-5.631065E-3,-5.894279E-3,90.980530E-6,263.214111E-6
420.223045E-3,-4.967308E-3,-5.244255E-3,-5.332947E-3,90.980530E-6,88.691711E-6
420.387268E-3,-4.586792E-3,-5.078888E-3,-5.374718E-3,90.980530E-6,295.829773E-6
419.881439E-3,-5.613899E-3,-6.602669E-3,-5.708885E-3,90.980530E-6,-893.783569E-6
421.612930E-3,-4.004860E-3,-4.569626E-3,-4.239464E-3,90.980530E-6,-330.162048E-6
420.524025E-3,-5.196190E-3,-5.770111E-3,-5.727196E-3,90.980530E-6,-42.915344E-6
421.042442E-3,-4.906082E-3,-5.245399E-3,-5.408478E-3,90.980530E-6,163.078308E-6
421.129990E-3,-4.878616E-3,-5.148125E-3,-5.241966E-3,90.980530E-6,93.841553E-6
420.246506E-3,-5.402756E-3,-7.031822E-3,-5.901718E-3,90.980530E-6,-1.130104E-3
422.257233E-3,-4.172516E-3,-4.823112E-3,-4.425430E-3,90.980530E-6,-397.682190E-6
420.879364E-3,-5.449677E-3,-5.922318E-3,-5.727196E-3,90.980530E-6,-195.121765E-6
421.411514E-3,-4.900932E-3,-5.284882E-3,-5.394745E-3,90.980530E-6,109.863281E-6
421.726227E-3,-4.785347E-3,-5.116081E-3,-5.301476E-3,90.980530E-6,185.394287E-6
421.191216E-3,-5.435371E-3,-5.660820E-3,-6.974602E-3,90.980530E-6,1.313782E-3
422.884941E-3,-3.979111E-3,-4.456329E-3,-4.801941E-3,90.980530E-6,345.611572E-6
421.587753E-3,-5.456543E-3,-5.772400E-3,-5.859947E-3,90.980530E-6,87.547302E-6
422.094154E-3,-5.084038E-3,-5.173874E-3,-5.364418E-3,90.980530E-6,190.544128E-6
422.587395E-3,-4.979324E-3,-5.244827E-3,-5.268860E-3,90.980530E-6,24.032593E-6
422.156525E-3,-5.453110E-3,-6.913948E-3,-5.778122E-3,90.980530E-6,-1.135826E-3
423.843384E-3,-4.006004E-3,-4.765892E-3,-4.310417E-3,90.980530E-6,-455.474854E-6
422.629738E-3,-5.453682E-3,-5.924606E-3,-5.727768E-3,90.980530E-6,-196.838379E-6
423.241997E-3,-5.017090E-3,-5.267143E-3,-5.465698E-3,90.980530E-6,198.554993E-6
423.779869E-3,-4.758453E-3,-5.242538E-3,-5.201912E-3,90.980530E-6,-40.626526E-6
423.349571E-3,-5.320358E-3,-5.877113E-3,-5.834198E-3,90.980530E-6,-42.915344E-6
424.858475E-3,-4.153061E-3,-4.485512E-3,-4.460907E-3,90.980530E-6,-24.604797E-6
423.481750E-3,-5.477142E-3,-5.745506E-3,-5.709457E-3,90.980530E-6,-36.048889E-6
423.946953E-3,-5.161285E-3,-5.364990E-3,-5.371284E-3,90.980530E-6,6.294250E-6
424.237633E-3,-4.870605E-3,-5.260849E-3,-5.010796E-3,90.980530E-6,-250.053406E-6
422.760201E-3,-6.705666E-3,-5.763245E-3,-5.660248E-3,90.980530E-6,-102.996826E-6
422.779083E-3,-4.693222E-3,-4.419136E-3,-4.662895E-3,90.980530E-6,243.759155E-6
419.351006E-3,-5.590439E-3,-5.669403E-3,-5.754089E-3,90.980530E-6,84.686279E-6
416.946602E-3,-4.882050E-3,-5.294609E-3,-5.382729E-3,90.980530E-6,88.119507E-6
414.004326E-3,-4.936409E-3,-5.046272E-3,-5.072021E-3,90.980530E-6,25.749207E-6
408.892250E-3,-5.407333E-3,-5.695724E-3,-5.822754E-3,90.980530E-6,127.029419E-6
408.225060E-3,-4.103851E-3,-4.460335E-3,-4.545593E-3,90.980530E-6,85.258484E-6
404.800987E-3,-5.470848E-3,-5.767250E-3,-5.736351E-3,90.980530E-6,-30.899048E-6
403.903770E-3,-5.020523E-3,-5.324936E-3,-5.350113E-3,90.980530E-6,25.177002E-6
403.243446E-3,-4.788208E-3,-5.085754E-3,-5.335236E-3,90.980530E-6,249.481201E-6
403.067207E-3,-6.387520E-3,-5.663109E-3,-5.934906E-3,90.980530E-6,271.797180E-6
405.203819E-3,-4.506111E-3,-4.530144E-3,-4.600525E-3,90.980530E-6,70.381165E-6
404.905701E-3,-5.413055E-3,-5.617905E-3,-5.740356E-3,90.980530E-6,122.451782E-6
406.428909E-3,-4.924965E-3,-5.350685E-3,-5.645370E-3,90.980530E-6,294.685364E-6
407.508087E-3,-4.712677E-3,-5.100632E-3,-5.148125E-3,90.980530E-6,47.492981E-6
406.459236E-3,-5.141258E-3,-5.706596E-3,-5.895996E-3,90.980530E-6,189.399719E-6
409.102821E-3,-4.110718E-3,-4.601097E-3,-4.604530E-3,90.980530E-6,3.433228E-6
408.326340E-3,-5.478859E-3,-5.826759E-3,-5.698013E-3,90.980530E-6,-128.746033E-6
408.963203E-3,-5.095482E-3,-5.363274E-3,-5.407906E-3,90.980530E-6,44.631958E-6
409.075928E-3,-4.885483E-3,-5.240250E-3,-5.130386E-3,90.980530E-6,-109.863281E-6
408.028793E-3,-5.996704E-3,-5.702019E-3,-5.768394E-3,90.980530E-6,66.375732E-6
409.027290E-3,-4.365921E-3,-4.611969E-3,-4.587936E-3,90.980530E-6,-24.032593E-6
407.308960E-3,-5.573845E-3,-5.797005E-3,-5.803871E-3,90.980530E-6,6.866455E-6
407.402802E-3,-5.152702E-3,-5.225372E-3,-5.439377E-3,90.980530E-6,214.004517E-6
407.462883E-3,-4.937553E-3,-5.450821E-3,-5.320358E-3,90.980530E-6,-130.462646E-6
407.254028E-3,-5.587006E-3,-5.684280E-3,-6.845284E-3,90.980530E-6,1.161003E-3
409.174919E-3,-4.336166E-3,-4.552460E-3,-4.951286E-3,90.980530E-6,398.826599E-6
408.665657E-3,-5.487442E-3,-5.562973E-3,-5.950928E-3,90.980530E-6,387.954712E-6
410.209465E-3,-4.928970E-3,-5.392456E-3,-5.538368E-3,90.980530E-6,145.912170E-6
411.467743E-3,-4.594231E-3,-5.411339E-3,-5.393600E-3,90.980530E-6,-17.738342E-6
411.826515E-3,-5.242538E-3,-5.946350E-3,-5.865669E-3,90.980530E-6,-80.680847E-6
413.392067E-3,-4.308701E-3,-4.568481E-3,-4.546738E-3,90.980530E-6,-21.743774E-6
412.264824E-3,-5.403328E-3,-5.709457E-3,-5.736351E-3,90.980530E-6,26.893616E-6
412.682533E-3,-4.993629E-3,-5.295753E-3,-5.394173E-3,90.980530E-6,98.419189E-6
412.422752E-3,-5.109787E-3,-5.183029E-3,-5.245399E-3,90.980530E-6,62.370300E-6
411.605072E-3,-6.567192E-3,-5.857086E-3,-5.788994E-3,90.980530E-6,-68.092346E-6
412.521744E-3,-4.656601E-3,-4.488945E-3,-4.607391E-3,90.980530E-6,118.446350E-6
411.064339E-3,-5.643654E-3,-5.724907E-3,-5.695152E-3,90.980530E-6,-29.754639E-6
411.309242E-3,-5.262566E-3,-5.570412E-3,-5.353546E-3,90.980530E-6,-216.865540E-6
411.645699E-3,-5.118370E-3,-5.020523E-3,-5.553246E-3,90.980530E-6,532.722473E-6
411.321831E-3,-5.594444E-3,-5.757523E-3,-5.957794E-3,90.980530E-6,200.271606E-6
412.866211E-3,-4.317856E-3,-4.419708E-3,-4.666901E-3,90.980530E-6,247.192383E-6
412.206459E-3,-5.423927E-3,-5.539513E-3,-5.810738E-3,90.980530E-6,271.224976E-6
413.000679E-3,-5.109787E-3,-5.183029E-3,-5.396461E-3,90.980530E-6,213.432312E-6
413.783455E-3,-4.947853E-3,-5.208778E-3,-5.252266E-3,90.980530E-6,43.487549E-6
413.717651E-3,-5.595589E-3,-5.902290E-3,-5.893135E-3,90.980530E-6,-9.155273E-6
415.460587E-3,-4.071236E-3,-4.691505E-3,-4.615402E-3,90.980530E-6,-76.103210E-6
414.661789E-3,-5.328369E-3,-5.651093E-3,-5.622482E-3,90.980530E-6,-28.610229E-6
415.500641E-3,-5.200195E-3,-5.398750E-3,-5.386162E-3,90.980530E-6,-12.588501E-6
415.838814E-3,-4.966736E-3,-5.246544E-3,-5.363274E-3,90.980530E-6,116.729736E-6
415.654564E-3,-5.527496E-3,-5.784416E-3,-6.033325E-3,90.980530E-6,248.908997E-6
417.199516E-3,-4.084396E-3,-4.432869E-3,-4.584503E-3,90.980530E-6,151.634216E-6
416.340637E-3,-5.353546E-3,-5.593872E-3,-5.750656E-3,90.980530E-6,156.784058E-6
416.907692E-3,-5.052567E-3,-5.426216E-3,-5.480003E-3,90.980530E-6,53.787231E-6
417.214394E-3,-4.910088E-3,-5.207062E-3,-5.280876E-3,90.980530E-6,73.814392E-6
415.672302E-3,-5.514908E-3,-5.862236E-3,-6.075096E-3,90.980530E-6,212.860107E-6
417.890167E-3,-4.116440E-3,-4.591370E-3,-4.852867E-3,90.980530E-6,261.497498E-6
417.087936E-3,-5.429649E-3,-5.762100E-3,-5.767250E-3,90.980530E-6,5.149841E-6
417.605782E-3,-5.154419E-3,-5.362129E-3,-5.581856E-3,90.980530E-6,219.726562E-6
417.874718E-3,-4.973030E-3,-5.085754E-3,-5.222511E-3,90.980530E-6,136.756897E-6
417.428970E-3,-5.540657E-3,-5.697441E-3,-5.993843E-3,90.980530E-6,296.401978E-6
419.080353E-3,-4.185104E-3,-4.388237E-3,-4.728699E-3,90.980530E-6,340.461731E-6
417.831230E-3,-5.316925E-3,-5.655098E-3,-5.681419E-3,90.980530E-6,26.321411E-6
418.228912E-3,-5.316925E-3,-5.656242E-3,-5.676270E-3,90.980530E-6,20.027161E-6
418.498993E-3,-5.030823E-3,-5.120659E-3,-5.637360E-3,90.980530E-6,516.700745E-6
418.002892E-3,-5.669403E-3,-6.957436E-3,-6.048775E-3,90.980530E-6,-908.660889E-6
419.449425E-3,-4.274940E-3,-5.031395E-3,-4.614830E-3,90.980530E-6,-416.564941E-6
418.420601E-3,-5.485153E-3,-5.762100E-3,-5.855370E-3,93.269348E-6,93.269348E-6
418.731308E-3,-5.086327E-3,-5.549812E-3,-5.631638E-3,93.269348E-6,81.825256E-6
419.120407E-3,-5.235100E-3,-5.250549E-3,-5.308914E-3,93.269348E-6,58.364868E-6
417.749405E-3,-5.707169E-3,-5.916595E-3,-6.086540E-3,93.269348E-6,169.944763E-6
419.743538E-3,-4.343033E-3,-4.518700E-3,-4.663467E-3,93.269348E-6,144.767761E-6
418.990517E-3,-5.401611E-3,-5.514336E-3,-5.875397E-3,93.269348E-6,361.061096E-6
419.465446E-3,-5.183029E-3,-5.523491E-3,-5.635071E-3,93.269348E-6,111.579895E-6
419.898033E-3,-4.904366E-3,-5.296898E-3,-5.786705E-3,93.269348E-6,489.807129E-6
419.392776E-3,-5.529213E-3,-5.905151E-3,-6.392097E-3,93.269348E-6,486.946106E-6
420.858192E-3,-4.281807E-3,-4.756737E-3,-4.897499E-3,93.269348E-6,140.762329E-6
419.942665E-3,-5.315781E-3,-5.746651E-3,-5.778122E-3,93.269348E-6,31.471252E-6
420.433044E-3,-5.090332E-3,-5.831337E-3,-5.824471E-3,93.269348E-6,-6.866455E-6
420.713425E-3,-4.830551E-3,-5.231094E-3,-5.255127E-3,93.269348E-6,24.032593E-6
419.524384E-3,-5.698586E-3,-6.028175E-3,-6.046486E-3,93.269348E-6,18.310547E-6
421.414375E-3,-4.351616E-3,-4.658318E-3,-4.866600E-3,93.269348E-6,208.282471E-6
420.510864E-3,-5.296898E-3,-5.666542E-3,-5.761528E-3,93.269348E-6,94.985962E-6
421.155167E-3,-5.011940E-3,-5.601311E-3,-5.750656E-3,93.269348E-6,149.345398E-6
421.517944E-3,-4.900932E-3,-5.199623E-3,-5.377579E-3,93.269348E-6,177.955627E-6
421.026421E-3,-5.734062E-3,-5.876541E-3,-6.247330E-3,93.269348E-6,370.788574E-6
422.346497E-3,-4.160500E-3,-4.753876E-3,-4.982758E-3,93.269348E-6,228.881836E-6
421.314240E-3,-5.298615E-3,-5.690002E-3,-6.027603E-3,93.269348E-6,337.600708E-6
421.698761E-3,-5.116081E-3,-5.597878E-3,-5.727196E-3,93.269348E-6,129.318237E-6
422.179413E-3,-4.786491E-3,-5.295753E-3,-5.287170E-3,93.269348E-6,-8.583069E-6
421.326828E-3,-5.605316E-3,-5.847359E-3,-6.154060E-3,93.269348E-6,306.701660E-6
422.936440E-3,-4.233742E-3,-4.743576E-3,-4.923248E-3,93.269348E-6,179.672241E-6
422.121620E-3,-5.199051E-3,-5.615044E-3,-5.877113E-3,93.269348E-6,262.069702E-6
422.463226E-3,-5.201912E-3,-5.620766E-3,-5.786705E-3,93.269348E-6,165.939331E-6
423.027420E-3,-4.914665E-3,-5.509186E-3,-5.415344E-3,93.269348E-6,-93.841553E-6
422.561073E-3,-5.788422E-3,-6.108856E-3,-6.436729E-3,93.269348E-6,327.873230E-6
424.212456E-3,-4.515266E-3,-4.866600E-3,-4.862022E-3,93.269348E-6,-4.577637E-6
423.347282E-3,-5.580711E-3,-5.811310E-3,-5.392456E-3,93.269348E-6,-418.853760E-6
423.734093E-3,-5.410194E-3,-5.695152E-3,-5.559540E-3,93.269348E-6,-135.612488E-6
424.136925E-3,-5.012512E-3,-5.124664E-3,-5.473709E-3,93.269348E-6,349.044800E-6
423.460579E-3,-5.777550E-3,-5.937767E-3,-6.368065E-3,93.269348E-6,430.297852E-6
424.765205E-3,-4.392242E-3,-4.698944E-3,-4.875755E-3,93.269348E-6,176.811218E-6
423.488045E-3,-5.183029E-3,-5.680847E-3,-5.715752E-3,93.269348E-6,34.904480E-6
423.334694E-3,-5.184174E-3,-5.432510E-3,-5.726624E-3,93.269348E-6,294.113159E-6
422.164536E-3,-4.729843E-3,-5.052567E-3,-5.418777E-3,93.269348E-6,366.210937E-6
418.738174E-3,-5.607605E-3,-6.026459E-3,-6.429863E-3,93.269348E-6,403.404236E-6
418.054390E-3,-4.263496E-3,-4.829407E-3,-5.065155E-3,93.269348E-6,235.748291E-6
414.260101E-3,-5.290031E-3,-5.753517E-3,-5.661392E-3,93.269348E-6,-92.124939E-6
411.058044E-3,-5.227089E-3,-5.630493E-3,-5.731201E-3,93.269348E-6,100.708008E-6
408.413315E-3,-4.870033E-3,-5.208778E-3,-5.717468E-3,93.269348E-6,508.689880E-6
405.355453E-3,-5.743217E-3,-5.918312E-3,-8.217430E-3,93.269348E-6,2.299118E-3
405.038452E-3,-4.403114E-3,-4.772186E-3,-5.620193E-3,93.269348E-6,848.007202E-6
403.319550E-3,-5.338097E-3,-5.646515E-3,-5.977821E-3,93.269348E-6,331.306458E-6
403.375053E-3,-5.370140E-3,-5.679131E-3,-5.756378E-3,93.269348E-6,77.247620E-6
404.397011E-3,-5.004501E-3,-5.275154E-3,-5.330658E-3,93.269348E-6,55.503845E-6
404.384995E-3,-5.826187E-3,-6.191254E-3,-6.523132E-3,93.269348E-6,331.878662E-6
406.673241E-3,-4.345894E-3,-4.902649E-3,-5.062866E-3,93.269348E-6,160.217285E-6
406.873512E-3,-5.423355E-3,-5.599594E-3,-5.774689E-3,93.269348E-6,175.094604E-6
407.713509E-3,-5.260849E-3,-5.573273E-3,-5.755234E-3,93.269348E-6,181.961060E-6
408.768082E-3,-4.888916E-3,-5.445099E-3,-5.108643E-3,93.269348E-6,-336.456299E-6
408.469391E-3,-5.745506E-3,-6.334305E-3,-7.164574E-3,93.269348E-6,830.268860E-6
409.777451E-3,-4.357338E-3,-4.851151E-3,-5.285454E-3,93.269348E-6,434.303284E-6
408.965492E-3,-5.328941E-3,-5.571556E-3,-5.860519E-3,93.269348E-6,288.963318E-6
408.923149E-3,-5.122375E-3,-5.737495E-3,-5.681992E-3,93.269348E-6,-55.503845E-6
408.850479E-3,-4.850006E-3,-5.190468E-3,-5.337524E-3,93.269348E-6,147.056580E-6
407.814789E-3,-5.763245E-3,-6.304550E-3,-6.362343E-3,93.269348E-6,57.792664E-6
408.623886E-3,-4.397392E-3,-4.991913E-3,-4.897499E-3,93.269348E-6,-94.413757E-6
407.547569E-3,-5.406761E-3,-5.649376E-3,-5.540657E-3,90.408325E-6,-108.718872E-6
407.787895E-3,-5.302620E-3,-5.623627E-3,-5.728912E-3,90.408325E-6,105.285645E-6
408.334923E-3,-4.709244E-3,-5.469704E-3,-5.302620E-3,90.408325E-6,-167.083740E-6
408.455658E-3,-5.925751E-3,-6.501389E-3,-6.508255E-3,90.408325E-6,6.866455E-6
410.672379E-3,-4.547882E-3,-4.964447E-3,-5.045128E-3,90.408325E-6,80.680847E-6
410.704422E-3,-5.306625E-3,-5.550385E-3,-5.671692E-3,90.408325E-6,121.307373E-6
411.732101E-3,-5.303764E-3,-5.549812E-3,-5.656242E-3,90.408325E-6,106.430054E-6
412.331772E-3,-4.893494E-3,-5.074883E-3,-5.063438E-3,90.408325E-6,-11.444092E-6
412.096596E-3,-7.062721E-3,-6.173515E-3,-6.276512E-3,90.408325E-6,102.996826E-6
413.515663E-3,-4.989052E-3,-4.812813E-3,-4.994202E-3,90.408325E-6,181.388855E-6
412.473106E-3,-5.289459E-3,-5.568695E-3,-5.720329E-3,90.408325E-6,151.634216E-6
412.240791E-3,-5.207062E-3,-5.738068E-3,-5.643082E-3,90.408325E-6,-94.985962E-6
412.181282E-3,-4.813385E-3,-5.196762E-3,-5.362129E-3,90.408325E-6,165.367126E-6
411.005974E-3,-6.059647E-3,-6.235886E-3,-6.538582E-3,90.408325E-6,302.696228E-6
412.424469E-3,-4.554176E-3,-5.049706E-3,-5.011940E-3,90.408325E-6,-37.765503E-6
411.724091E-3,-5.093193E-3,-5.744934E-3,-5.714607E-3,90.408325E-6,-30.326843E-6
412.009048E-3,-5.323792E-3,-5.841064E-3,-5.709457E-3,90.408325E-6,-131.607056E-6
412.442207E-3,-5.106354E-3,-5.320930E-3,-5.300331E-3,90.408325E-6,-20.599365E-6
411.862564E-3,-7.337952E-3,-6.166077E-3,-6.521988E-3,90.408325E-6,355.911255E-6
413.801193E-3,-4.815674E-3,-4.832268E-3,-5.047417E-3,90.408325E-6,215.148926E-6
413.449287E-3,-5.193901E-3,-5.372429E-3,-5.645370E-3,90.408325E-6,272.941589E-6
413.936234E-3,-5.239677E-3,-5.473709E-3,-5.591583E-3,90.408325E-6,117.874146E-6
414.758492E-3,-4.918098E-3,-4.997635E-3,-5.568695E-3,90.408325E-6,571.060181E-6
414.306450E-3,-6.096840E-3,-6.321716E-3,-6.853867E-3,90.408325E-6,532.150269E-6
415.986443E-3,-4.480934E-3,-4.898071E-3,-5.203056E-3,90.408325E-6,304.985046E-6
415.705490E-3,-5.359840E-3,-5.512619E-3,-5.552101E-3,90.408325E-6,39.482117E-6
416.080284E-3,-5.440521E-3,-5.577850E-3,-5.706024E-3,90.408325E-6,128.173828E-6
416.864204E-3,-4.959869E-3,-5.105209E-3,-5.184746E-3,90.408325E-6,79.536438E-6
416.047668E-3,-6.116867E-3,-6.354332E-3,-6.370354E-3,90.408325E-6,16.021729E-6
417.609215E-3,-4.712677E-3,-4.888916E-3,-4.998207E-3,90.408325E-6,109.291077E-6
417.243004E-3,-5.338669E-3,-5.523491E-3,-5.476570E-3,90.408325E-6,-46.920776E-6
417.590332E-3,-5.338097E-3,-5.464554E-3,-5.761528E-3,90.408325E-6,296.974182E-6
418.095589E-3,-4.753876E-3,-5.078888E-3,-5.334663E-3,90.408325E-6,255.775452E-6
416.972923E-3,-6.100845E-3,-6.537437E-3,-6.393814E-3,90.408325E-6,-143.623352E-6
418.614578E-3,-4.610825E-3,-5.054855E-3,-4.941559E-3,90.408325E-6,-113.296509E-6
418.081856E-3,-5.097771E-3,-5.558395E-3,-5.516624E-3,90.408325E-6,-41.770935E-6
418.327332E-3,-5.146980E-3,-5.692291E-3,-5.668831E-3,90.408325E-6,-23.460388E-6
418.908691E-3,-4.879189E-3,-5.187607E-3,-5.411911E-3,90.408325E-6,224.304199E-6
417.257881E-3,-6.065941E-3,-6.314278E-3,-6.533432E-3,90.408325E-6,219.154358E-6
419.156456E-3,-4.480362E-3,-4.890633E-3,-5.033684E-3,90.408325E-6,143.051147E-6
418.675232E-3,-5.208778E-3,-5.295753E-3,-5.518341E-3,90.408325E-6,222.587585E-6
418.873215E-3,-5.157280E-3,-5.589867E-3,-5.606461E-3,90.408325E-6,16.593933E-6
419.537544E-3,-4.766464E-3,-5.207062E-3,-5.361557E-3,90.408325E-6,154.495239E-6
418.497849E-3,-5.954933E-3,-6.293678E-3,-6.488228E-3,90.408325E-6,194.549561E-6
419.915771E-3,-4.424858E-3,-5.015945E-3,-5.007362E-3,90.408325E-6,-8.583069E-6
419.449425E-3,-5.134392E-3,-5.491447E-3,-5.441666E-3,90.408325E-6,-49.781799E-6
419.320107E-3,-5.455399E-3,-5.788994E-3,-5.922318E-3,90.408325E-6,133.323669E-6
419.816780E-3,-4.925537E-3,-5.268860E-3,-5.469704E-3,90.408325E-6,200.843811E-6
418.951035E-3,-6.231308E-3,-6.324577E-3,-6.595802E-3,90.408325E-6,271.224976E-6
420.600700E-3,-4.645729E-3,-4.953575E-3,-4.962158E-3,90.408325E-6,8.583069E-6
420.191002E-3,-5.158997E-3,-5.393028E-3,-5.554962E-3,90.408325E-6,161.933899E-6
420.107460E-3,-5.190468E-3,-5.408478E-3,-5.877113E-3,90.408325E-6,468.635559E-6
420.667076E-3,-4.834557E-3,-5.150986E-3,-5.350113E-3,90.408325E-6,199.127197E-6
419.654274E-3,-6.134605E-3,-6.477356E-3,-6.481934E-3,90.408325E-6,4.577637E-6
421.242142E-3,-4.648590E-3,-4.954147E-3,-4.981041E-3,90.408325E-6,26.893616E-6
420.917702E-3,-5.180168E-3,-5.268860E-3,-5.587006E-3,90.408325E-6,318.145752E-6
421.075058E-3,-5.147552E-3,-5.509186E-3,-6.036186E-3,90.408325E-6,527.000427E-6
421.607208E-3,-4.967308E-3,-5.358124E-3,-5.325508E-3,90.408325E-6,-32.615662E-6
420.601273E-3,-6.162643E-3,-6.457329E-3,-6.567192E-3,90.408325E-6,109.863281E-6
422.336769E-3,-4.651451E-3,-4.902649E-3,-4.983330E-3,90.408325E-6,80.680847E-6
421.780586E-3,-4.998207E-3,-5.403900E-3,-5.521774E-3,90.408325E-6,117.874146E-6
422.058105E-3,-5.407333E-3,-5.798149E-3,-6.096268E-3,90.408325E-6,298.118591E-6
422.140503E-3,-4.882050E-3,-5.320358E-3,-5.413628E-3,90.408325E-6,93.269348E-6
421.178055E-3,-6.226730E-3,-6.480789E-3,-6.586075E-3,90.408325E-6,105.285645E-6
422.761917E-3,-4.643440E-3,-5.049133E-3,-5.003929E-3,90.408325E-6,-45.204163E-6
422.310448E-3,-5.185890E-3,-5.434227E-3,-5.556679E-3,90.408325E-6,122.451782E-6
422.158813E-3,-5.392456E-3,-5.677414E-3,-6.045341E-3,93.841553E-6,367.927551E-6
422.692108E-3,-4.781914E-3,-5.209923E-3,-5.510330E-3,93.841553E-6,300.407410E-6
421.806908E-3,-6.041908E-3,-6.527710E-3,-6.568909E-3,93.841553E-6,41.198730E-6
423.239136E-3,-4.623413E-3,-4.990768E-3,-5.004501E-3,93.841553E-6,13.732910E-6
422.866058E-3,-4.949570E-3,-5.316925E-3,-5.387878E-3,93.841553E-6,70.953369E-6
423.031425E-3,-5.255127E-3,-5.934906E-3,-5.970955E-3,93.841553E-6,36.048889E-6
423.856544E-3,-5.056000E-3,-5.388451E-3,-5.358696E-3,93.841553E-6,-29.754639E-6
422.912979E-3,-6.382370E-3,-6.557465E-3,-6.162643E-3,93.841553E-6,-394.821167E-6
424.411011E-3,-4.841995E-3,-4.862595E-3,-4.763031E-3,93.841553E-6,-99.563599E-6
424.198723E-3,-5.208206E-3,-5.425644E-3,-5.492020E-3,93.841553E-6,66.375732E-6
424.164391E-3,-5.580711E-3,-6.083679E-3,-6.100845E-3,93.841553E-6,17.166138E-6
424.804687E-3,-4.980469E-3,-5.351830E-3,-5.961227E-3,93.841553E-6,609.397888E-6
423.686600E-3,-6.311417E-3,-6.438446E-3,-6.383514E-3,93.841553E-6,-54.931641E-6
425.218964E-3,-4.751015E-3,-4.872322E-3,-4.856873E-3,93.841553E-6,-15.449524E-6
424.539757E-3,-5.246544E-3,-5.332375E-3,-5.482864E-3,93.841553E-6,150.489807E-6
424.180984E-3,-5.577278E-3,-6.032753E-3,-6.291389E-3,93.841553E-6,258.636475E-6
423.382759E-3,-5.121231E-3,-6.103706E-3,-5.423927E-3,93.841553E-6,-679.779053E-6
420.251656E-3,-6.064224E-3,-6.840706E-3,-6.296539E-3,93.841553E-6,-544.166565E-6
419.084930E-3,-4.401398E-3,-5.027390E-3,-4.948425E-3,93.841553E-6,-78.964233E-6
415.461731E-3,-5.130386E-3,-5.426788E-3,-5.545235E-3,93.841553E-6,118.446350E-6
411.862564E-3,-5.610466E-3,-5.921173E-3,-6.420708E-3,93.841553E-6,499.534607E-6
409.172058E-3,-5.085182E-3,-5.180740E-3,-5.716896E-3,93.841553E-6,536.155701E-6
405.406380E-3,-6.270218E-3,-6.052208E-3,-6.222725E-3,93.841553E-6,170.516968E-6
405.032158E-3,-4.762459E-3,-4.812813E-3,-4.768753E-3,93.841553E-6,-44.059753E-6
403.823662E-3,-5.187607E-3,-5.422783E-3,-5.509186E-3,93.841553E-6,86.402893E-6
403.185081E-3,-5.547523E-3,-6.064796E-3,-6.108856E-3,93.841553E-6,44.059753E-6
404.363823E-3,-5.118942E-3,-5.314064E-3,-5.481720E-3,93.841553E-6,167.655945E-6
404.108620E-3,-6.221581E-3,-6.117439E-3,-5.989838E-3,93.841553E-6,-127.601624E-6
406.700134E-3,-4.668045E-3,-4.787636E-3,-4.701805E-3,93.841553E-6,-85.830688E-6
407.298660E-3,-5.189896E-3,-5.257416E-3,-5.435371E-3,93.841553E-6,177.955627E-6
407.752419E-3,-6.056213E-3,-5.858231E-3,-6.065369E-3,93.841553E-6,207.138062E-6
409.043312E-3,-5.433083E-3,-5.673981E-3,-5.499458E-3,93.841553E-6,-174.522400E-6
408.351517E-3,-6.179237E-3,-6.194115E-3,-6.172371E-3,93.841553E-6,-21.743774E-6
410.105324E-3,-4.738426E-3,-4.768181E-3,-4.923248E-3,93.841553E-6,155.067444E-6
409.660149E-3,-5.205917E-3,-5.342102E-3,-5.578423E-3,93.841553E-6,236.320496E-6
408.759499E-3,-5.678558E-3,-5.885696E-3,-6.191826E-3,93.841553E-6,306.129456E-6
408.778381E-3,-5.010796E-3,-5.463982E-3,-5.546951E-3,93.841553E-6,82.969666E-6
407.484055E-3,-5.870819E-3,-6.206131E-3,-6.185532E-3,93.841553E-6,-20.599365E-6
408.796692E-3,-4.678917E-3,-4.763603E-3,-4.944992E-3,93.841553E-6,181.388855E-6
408.155251E-3,-5.181313E-3,-5.375862E-3,-5.750084E-3,93.841553E-6,374.221802E-6
407.510376E-3,-5.465126E-3,-5.910301E-3,-6.092262E-3,93.841553E-6,181.961060E-6
408.142662E-3,-5.041695E-3,-5.359268E-3,-5.453682E-3,93.841553E-6,94.413757E-6
407.632828E-3,-6.116295E-3,-6.128883E-3,-6.151199E-3,93.841553E-6,22.315979E-6
410.116196E-3,-4.563904E-3,-4.905510E-3,-4.995918E-3,93.841553E-6,90.408325E-6
410.649490E-3,-5.076599E-3,-5.370140E-3,-5.553246E-3,93.841553E-6,183.105469E-6
411.193657E-3,-5.617332E-3,-6.127167E-3,-5.871391E-3,93.841553E-6,-255.775452E-6
412.333488E-3,-5.023956E-3,-5.583000E-3,-5.951500E-3,93.841553E-6,368.499756E-6
412.087440E-3,-5.887413E-3,-6.129456E-3,-6.184387E-3,93.841553E-6,54.931641E-6
413.812065E-3,-4.413414E-3,-4.879189E-3,-5.018234E-3,93.841553E-6,139.045715E-6
413.393784E-3,-5.024529E-3,-5.556679E-3,-5.758095E-3,93.841553E-6,201.416016E-6
412.712288E-3,-5.744362E-3,-6.574059E-3,-5.988693E-3,93.841553E-6,-585.365295E-6
412.922859E-3,-5.125237E-3,-5.557251E-3,-5.385017E-3,93.841553E-6,-172.233582E-6
411.702347E-3,-5.883408E-3,-6.235313E-3,-6.250191E-3,93.841553E-6,14.877319E-6
