Notes :


2023-10-26 ¿ÀÈÄ 10:53:14
Volts
Ch : LED 2,
297.719765E-3
296.951866E-3
298.592377E-3
298.813248E-3
299.032974E-3
300.568199E-3
300.446320E-3
302.639580E-3
303.317642E-3
303.974533E-3
305.433083E-3
305.513763E-3
307.597160E-3
307.915306E-3
308.316994E-3
309.197617E-3
308.950996E-3
310.620689E-3
310.448456E-3
310.275650E-3
310.954857E-3
310.283661E-3
311.785126E-3
311.532211E-3
311.048698E-3
311.691284E-3
311.186600E-3
312.519264E-3
312.220573E-3
311.765671E-3
312.220573E-3
311.643219E-3
313.070297E-3
313.133812E-3
313.105202E-3
313.834190E-3
313.220215E-3
314.923096E-3
314.983749E-3
314.777184E-3
315.561104E-3
315.317917E-3
316.732979E-3
316.753578E-3
316.454315E-3
317.299461E-3
317.073441E-3
318.442154E-3
318.500519E-3
318.196106E-3
318.828392E-3
318.420982E-3
319.571686E-3
319.481277E-3
319.303322E-3
319.870377E-3
319.474983E-3
320.967293E-3
320.989037E-3
320.835114E-3
321.708298E-3
321.543503E-3
322.906494E-3
322.721672E-3
322.514534E-3
323.087311E-3
321.853638E-3
320.900917E-3
317.259979E-3
311.825180E-3
306.362343E-3
299.594879E-3
294.758034E-3
289.845657E-3
286.083984E-3
285.298920E-3
284.629440E-3
286.746025E-3
288.332176E-3
290.250206E-3
293.333817E-3
295.153427E-3
298.390961E-3
300.205421E-3
301.194191E-3
302.647018E-3
302.723122E-3
304.064941E-3
303.558540E-3
302.574921E-3
303.066444E-3
302.848434E-3
304.226875E-3
304.819679E-3
304.740143E-3
305.700874E-3
305.494881E-3
306.137466E-3
305.079460E-3
304.011726E-3
302.866173E-3
302.065086E-3
302.670479E-3
301.844215E-3
301.364136E-3
302.029610E-3
302.202415E-3
303.658676E-3
304.226875E-3
304.542732E-3
305.914879E-3
306.544876E-3
308.296967E-3
308.836555E-3
309.332657E-3
310.786057E-3
310.857582E-3
312.206841E-3
312.553596E-3
312.597084E-3
313.276863E-3
313.043976E-3
313.976669E-3
313.796997E-3
312.807655E-3
313.802719E-3
313.308334E-3
314.101410E-3
314.253616E-3
313.708305E-3
313.543510E-3
313.486290E-3
314.384651E-3
314.565468E-3
314.142036E-3
314.741135E-3
314.056778E-3
315.197182E-3
315.377998E-3
314.994621E-3
315.783691E-3
315.219498E-3
316.330147E-3
316.525841E-3
316.252899E-3
317.027092E-3
316.843987E-3
318.188667E-3
317.852211E-3
317.689705E-3
318.412399E-3
318.208122E-3
319.167137E-3
318.883896E-3
318.769455E-3
319.028664E-3
319.021225E-3
320.098114E-3
320.280075E-3
320.224571E-3
320.850563E-3
320.836830E-3
321.922874E-3
322.023010E-3
321.802711E-3
322.385788E-3
321.229935E-3
320.621109E-3
317.732048E-3
312.416267E-3
307.210350E-3
300.419426E-3
295.215797E-3
289.711761E-3
285.425949E-3
283.828354E-3
282.777786E-3
283.914757E-3
285.479164E-3
286.849594E-3
289.450264E-3
291.393471E-3
294.410133E-3
296.381378E-3
297.194481E-3
299.065018E-3
299.022675E-3
300.164795E-3
299.814034E-3
299.111938E-3
299.646378E-3
298.940277E-3
299.971390E-3
300.288963E-3
300.774193E-3
302.051926E-3
302.018166E-3
303.148842E-3
302.882195E-3
302.102280E-3
301.867676E-3
300.751305E-3
300.957298E-3
300.172234E-3
299.612617E-3
300.273514E-3
299.998283E-3
300.995064E-3
301.305771E-3
301.641083E-3
303.082466E-3
303.304482E-3
305.144119E-3
306.001282E-3
306.269646E-3
307.724762E-3
307.930756E-3
309.397316E-3
309.939766E-3
308.998489E-3
310.140610E-3
310.370064E-3
311.446953E-3
311.651230E-3
310.968590E-3
311.647797E-3
311.214066E-3
311.856079E-3
311.965942E-3
310.552597E-3
311.473846E-3
311.556816E-3
312.459755E-3
312.306404E-3
312.111282E-3
312.941551E-3
312.283516E-3
313.169861E-3
313.191032E-3
312.779045E-3
313.748932E-3
313.497734E-3
314.651871E-3
314.755440E-3
314.566040E-3
315.161705E-3
315.071869E-3
316.252327E-3
316.394806E-3
316.227150E-3
316.887474E-3
316.695213E-3
317.505455E-3
317.562103E-3
317.226791E-3
317.837906E-3
317.616463E-3
318.370628E-3
318.484497E-3
317.891693E-3
318.835831E-3
318.572617E-3
319.556236E-3
319.939041E-3
319.109917E-3
320.566750E-3
320.144463E-3
321.252823E-3
321.325493E-3
320.577049E-3
320.928955E-3
318.519402E-3
315.408897E-3
310.380936E-3
303.458405E-3
298.210144E-3
291.823196E-3
287.568855E-3
284.371376E-3
282.110023E-3
283.494759E-3
283.218956E-3
285.503769E-3
287.658119E-3
288.567352E-3
292.748451E-3
294.153786E-3
296.437454E-3
297.830200E-3
297.100067E-3
299.446678E-3
299.073029E-3
299.399185E-3
299.414062E-3
298.282814E-3
299.575996E-3
299.048996E-3
300.061798E-3
300.878906E-3
301.024818E-3
302.977180E-3
302.195549E-3
302.879333E-3
301.955795E-3
301.120377E-3
301.867104E-3
300.472069E-3
300.553894E-3
300.505829E-3
299.937057E-3
301.666832E-3
300.860023E-3
301.873970E-3
303.038979E-3
302.018166E-3
305.052567E-3
305.141830E-3
306.785774E-3
307.597160E-3
307.733345E-3
309.776688E-3
309.625626E-3
310.453033E-3
311.030388E-3
310.787201E-3
312.396812E-3
311.648369E-3
312.157059E-3
312.405396E-3
311.240387E-3
312.963867E-3
312.271500E-3
312.654877E-3
313.287735E-3
311.326218E-3
313.404465E-3
312.854004E-3
313.425636E-3
313.751793E-3
313.576698E-3
314.977455E-3
314.178085E-3
314.481354E-3
314.852142E-3
314.554024E-3
315.954781E-3
315.331078E-3
315.774536E-3
316.437721E-3
316.195679E-3
317.935753E-3
317.252541E-3
317.916298E-3
318.223572E-3
318.079376E-3
319.291306E-3
318.634987E-3
319.154549E-3
319.609451E-3
319.128227E-3
320.627403E-3
319.789124E-3
320.300674E-3
320.472336E-3
320.334435E-3
321.655083E-3
320.931244E-3
321.538925E-3
322.197533E-3
321.936607E-3
323.511887E-3
322.661591E-3
322.959709E-3
323.285866E-3
322.419548E-3
322.328568E-3
318.343163E-3
314.111137E-3
308.633423E-3
302.351189E-3
297.628784E-3
291.891289E-3
288.565636E-3
287.367439E-3
286.701965E-3
288.662338E-3
289.532089E-3
292.100143E-3
294.807243E-3
296.118736E-3
300.049782E-3
301.123238E-3
303.006935E-3
304.490089E-3
304.602814E-3
306.177521E-3
305.121803E-3
305.346107E-3
305.454254E-3
304.523849E-3
306.364059E-3
306.234169E-3
307.153702E-3
307.654953E-3
307.337952E-3
308.124733E-3
306.416130E-3
305.897713E-3
305.369568E-3
302.961731E-3
304.018021E-3
302.875900E-3
303.133392E-3
303.683281E-3
303.937912E-3
305.361557E-3
305.443954E-3
306.494522E-3
307.665825E-3
307.300186E-3
309.586716E-3
309.758949E-3
310.941124E-3
311.947632E-3
312.289238E-3
313.810730E-3
313.452530E-3
313.997841E-3
314.583206E-3
314.314842E-3
315.625763E-3
314.903641E-3
314.903069E-3
315.412903E-3
314.789772E-3
315.784836E-3
314.928246E-3
315.287590E-3
315.536499E-3
315.253258E-3
316.169930E-3
315.480995E-3
315.378571E-3
315.804291E-3
315.640640E-3
316.894913E-3
316.264343E-3
316.449165E-3
316.811943E-3
316.719818E-3
318.096542E-3
317.679405E-3
318.122292E-3
318.599510E-3
318.523407E-3
319.640350E-3
319.073868E-3
319.476128E-3
319.713020E-3
319.344521E-3
320.569611E-3
320.068359E-3
320.391083E-3
320.641708E-3
320.674896E-3
321.912003E-3
321.623039E-3
321.883965E-3
322.139168E-3
322.003555E-3
323.684692E-3
322.953415E-3
322.837257E-3
322.942543E-3
321.241951E-3
319.818878E-3
314.608955E-3
308.980179E-3
303.058434E-3
296.706963E-3
292.848015E-3
288.282394E-3
286.264801E-3
285.813332E-3
285.955238E-3
288.251495E-3
289.148140E-3
291.624069E-3
294.659615E-3
296.112442E-3
298.878479E-3
299.533653E-3
300.961304E-3
302.293968E-3
301.656532E-3
302.824402E-3
301.755524E-3
301.665115E-3
302.103424E-3
301.742363E-3
303.337097E-3
303.488731E-3
304.204559E-3
304.805946E-3
304.432869E-3
305.335808E-3
304.085541E-3
303.354263E-3
302.981186E-3
302.159500E-3
302.839279E-3
301.804161E-3
301.669693E-3
302.279663E-3
302.387810E-3
304.047203E-3
304.010582E-3
304.676628E-3
305.755806E-3
306.417847E-3
308.220291E-3
308.485794E-3
309.246254E-3
310.308266E-3
310.492516E-3
312.113571E-3
311.893845E-3
312.085533E-3
312.717247E-3
311.078453E-3
312.804794E-3
312.712669E-3
313.112068E-3
313.436508E-3
312.741280E-3
313.571548E-3
313.039970E-3
313.017654E-3
313.463402E-3
313.136673E-3
314.201546E-3
313.696861E-3
313.996696E-3
314.234161E-3
313.834763E-3
314.869308E-3
314.508820E-3
314.628983E-3
315.001488E-3
313.540077E-3
315.899849E-3
315.903854E-3
316.090965E-3
316.962433E-3
316.618538E-3
317.716026E-3
317.652512E-3
317.935181E-3
318.190956E-3
316.814232E-3
318.473625E-3
318.177795E-3
318.302536E-3
318.900490E-3
318.398666E-3
319.603729E-3
319.461250E-3
319.668961E-3
320.201683E-3
319.729614E-3
321.315193E-3
321.180153E-3
321.334648E-3
321.922874E-3
320.956421E-3
321.419334E-3
319.321060E-3
315.955353E-3
311.528206E-3
303.668404E-3
299.508476E-3
293.546104E-3
288.862610E-3
286.295128E-3
284.044647E-3
284.893227E-3
285.308647E-3
286.594963E-3
288.823128E-3
290.455055E-3
293.992996E-3
295.691299E-3
297.126389E-3
298.667336E-3
298.552322E-3
300.204277E-3
299.903870E-3
299.645805E-3
299.415207E-3
298.450470E-3
299.586296E-3
299.540520E-3
299.950218E-3
301.297188E-3
301.168442E-3
302.669907E-3
302.511978E-3
302.408409E-3
302.348328E-3
300.699806E-3
301.665688E-3
300.968170E-3
300.584221E-3
301.080322E-3
300.168228E-3
301.560974E-3
302.098846E-3
302.369499E-3
303.683281E-3
302.780342E-3
305.340958E-3
306.190681E-3
307.398033E-3
308.266640E-3
307.943916E-3
309.822464E-3
310.055351E-3
310.514259E-3
311.201477E-3
310.577202E-3
311.965942E-3
311.854362E-3
311.818886E-3
312.228012E-3
311.606598E-3
312.825394E-3
312.611961E-3
312.625122E-3
312.933540E-3
312.066650E-3
313.132668E-3
313.195610E-3
313.142395E-3
313.809586E-3
313.051987E-3
314.370918E-3
314.278221E-3
314.437294E-3
314.947128E-3
314.390945E-3
315.814590E-3
315.751076E-3
315.726471E-3
316.402817E-3
315.925026E-3
317.428207E-3
317.367554E-3
317.364120E-3
318.122292E-3
317.447662E-3
318.811226E-3
318.675613E-3
318.659592E-3
318.805504E-3
318.174934E-3
319.772530E-3
319.588280E-3
319.572830E-3
320.507240E-3
319.745636E-3
321.411324E-3
321.417618E-3
321.378708E-3
322.134590E-3
321.834183E-3
323.225212E-3
323.207474E-3
322.586060E-3
322.230721E-3
319.414330E-3
316.988754E-3
311.722755E-3
305.219650E-3
299.727058E-3
293.602180E-3
291.103363E-3
288.190842E-3
286.797523E-3
287.572861E-3
288.424301E-3
291.604042E-3
293.669701E-3
295.437241E-3
298.119164E-3
299.424934E-3
302.109146E-3
302.909660E-3
303.109932E-3
303.719902E-3
302.980042E-3
303.981972E-3
303.341103E-3
302.836418E-3
303.527069E-3
303.681564E-3
305.463982E-3
305.498886E-3
305.683136E-3
306.227875E-3
305.216789E-3
305.749512E-3
304.809952E-3
303.446960E-3
303.110504E-3
302.284241E-3
303.434372E-3
303.207207E-3
302.859879E-3
304.022026E-3
304.290390E-3
306.265640E-3
306.571198E-3
306.785774E-3
308.221436E-3
308.601952E-3
310.231590E-3
310.595512E-3
310.510254E-3
311.726761E-3
311.754227E-3
313.165283E-3
313.421631E-3
312.799072E-3
313.406754E-3
312.953568E-3
313.902283E-3
313.564682E-3
312.957001E-3
313.517761E-3
313.237381E-3
314.272499E-3
313.888550E-3
313.328362E-3
313.597870E-3
313.446808E-3
314.789772E-3
314.654160E-3
314.278793E-3
314.989471E-3
314.674759E-3
315.680122E-3
315.670395E-3
315.428352E-3
316.215706E-3
316.054344E-3
317.237091E-3
317.074013E-3
316.756439E-3
317.605591E-3
317.225647E-3
318.213844E-3
318.093681E-3
317.805290E-3
318.476486E-3
318.141747E-3
319.352531E-3
319.437790E-3
319.316483E-3
320.229149E-3
320.066071E-3
321.040535E-3
321.208763E-3
321.118927E-3
321.672249E-3
321.521759E-3
322.220421E-3
321.154976E-3
318.877029E-3
315.994835E-3
310.868454E-3
305.999565E-3
299.604034E-3
293.552971E-3
289.818192E-3
286.138344E-3
285.445976E-3
285.170174E-3
285.518074E-3
287.489891E-3
289.096642E-3
291.977692E-3
294.138908E-3
295.228386E-3
296.807671E-3
297.577286E-3
299.312782E-3
299.611473E-3
298.987770E-3
299.194336E-3
298.226738E-3
298.913956E-3
298.830414E-3
298.702240E-3
300.137901E-3
300.718117E-3
302.196121E-3
302.324295E-3
301.957512E-3
302.378654E-3
301.443672E-3
301.791573E-3
301.095772E-3
300.198555E-3
300.621414E-3
300.286102E-3
301.229668E-3
301.496315E-3
300.615692E-3
302.373505E-3
302.692223E-3
304.447174E-3
305.246544E-3
305.637932E-3
306.972313E-3
307.084465E-3
308.597374E-3
308.842278E-3
308.882904E-3
310.021591E-3
309.880257E-3
310.931396E-3
311.006355E-3
310.575485E-3
311.356544E-3
310.750580E-3
311.566544E-3
311.564827E-3
311.122513E-3
311.403465E-3
311.293602E-3
312.160492E-3
312.025452E-3
311.828613E-3
312.308693E-3
311.981964E-3
312.952423E-3
313.072586E-3
312.590218E-3
313.411331E-3
313.033104E-3
314.081383E-3
314.367485E-3
313.743210E-3
314.683914E-3
314.468765E-3
315.304756E-3
315.202904E-3
315.042114E-3
315.951920E-3
315.494156E-3
316.428566E-3
316.553879E-3
315.867805E-3
316.617966E-3
316.183662E-3
316.799355E-3
317.027092E-3
316.564178E-3
317.520332E-3
316.991043E-3
317.974663E-3
318.129158E-3
317.790413E-3
318.836975E-3
318.793488E-3
319.529343E-3
319.465256E-3
318.569183E-3
318.219566E-3
315.232658E-3
311.695290E-3
306.489372E-3
299.357414E-3
294.294548E-3
288.762474E-3
285.542679E-3
283.264732E-3
281.764984E-3
282.561493E-3
283.096504E-3
285.513496E-3
287.218666E-3
287.664413E-3
290.461349E-3
292.172813E-3
294.137192E-3
294.840431E-3
294.706535E-3
295.282173E-3
294.485092E-3
294.656754E-3
294.265366E-3
293.401909E-3
294.726563E-3
294.915962E-3
296.275520E-3
297.664261E-3
297.700882E-3
299.194336E-3
298.657036E-3
299.059296E-3
298.748589E-3
297.437668E-3
297.957230E-3
297.169304E-3
297.754097E-3
297.705460E-3
297.283173E-3
298.889351E-3
298.820114E-3
299.937057E-3
300.878906E-3
300.774765E-3
303.011513E-3
302.957726E-3
304.571342E-3
305.170441E-3
305.177879E-3
307.068443E-3
306.742287E-3
307.773399E-3
308.057213E-3
307.585716E-3
308.991623E-3
308.255768E-3
308.791351E-3
309.027100E-3
307.499313E-3
309.473419E-3
308.894920E-3
309.701729E-3
309.697723E-3
308.514977E-3
310.321426E-3
309.944916E-3
310.922813E-3
310.931396E-3
310.531425E-3
312.158775E-3
311.374283E-3
312.201691E-3
312.477493E-3
311.969376E-3
313.640213E-3
312.912941E-3
313.821030E-3
314.130592E-3
313.708305E-3
315.321922E-3
314.598656E-3
315.368271E-3
315.639496E-3
315.046120E-3
316.429710E-3
315.629768E-3
316.285515E-3
316.371918E-3
315.932465E-3
317.423058E-3
316.687775E-3
317.354393E-3
317.824745E-3
317.588997E-3
319.273567E-3
318.765450E-3
319.367981E-3
319.821739E-3
319.627762E-3
320.892334E-3
319.895554E-3
319.734192E-3
318.430710E-3
315.005493E-3
312.104988E-3
305.751801E-3
299.986267E-3
294.605827E-3
289.514351E-3
287.690735E-3
285.257721E-3
285.263443E-3
286.146355E-3
287.354279E-3
290.704536E-3
291.741943E-3
294.117165E-3
296.104431E-3
296.965599E-3
299.519920E-3
298.943710E-3
299.219513E-3
299.446678E-3
297.288895E-3
298.907661E-3
298.272514E-3
298.951721E-3
299.813461E-3
300.214005E-3
302.375221E-3
302.125740E-3
302.821541E-3
302.996063E-3
302.007866E-3
302.517700E-3
300.923538E-3
300.523567E-3
300.412560E-3
298.584366E-3
300.686073E-3
300.138474E-3
300.781059E-3
301.718903E-3
302.184677E-3
304.196548E-3
