Notes :


2023-11-11 ¿ÀÀü 12:07:19
Volts
Ch : LED 2,
759.088898E-3
758.785057E-3
758.624268E-3
758.143044E-3
757.759094E-3
757.095909E-3
756.933975E-3
756.631279E-3
756.212997E-3
755.930328E-3
755.708885E-3
755.560112E-3
755.522919E-3
755.695152E-3
756.831551E-3
758.988190E-3
762.686920E-3
767.920303E-3
773.439789E-3
779.340935E-3
784.683037E-3
789.038658E-3
792.127991E-3
793.475533E-3
793.735313E-3
792.804337E-3
791.191292E-3
789.245796E-3
787.042236E-3
785.151100E-3
783.698845E-3
782.328415E-3
781.646347E-3
781.111336E-3
780.941963E-3
781.151962E-3
781.626320E-3
782.247734E-3
782.380486E-3
782.588768E-3
781.895256E-3
780.546570E-3
778.943825E-3
777.168274E-3
775.984955E-3
775.304604E-3
774.882317E-3
775.164986E-3
775.564384E-3
776.463318E-3
777.362251E-3
778.101540E-3
778.937531E-3
779.021645E-3
778.974152E-3
778.710937E-3
778.074074E-3
777.298737E-3
776.206398E-3
775.273705E-3
774.260902E-3
773.142815E-3
772.103119E-3
771.179581E-3
770.412254E-3
769.727325E-3
769.101334E-3
768.731689E-3
768.233871E-3
768.059349E-3
767.867088E-3
767.429924E-3
767.351532E-3
766.926384E-3
766.714668E-3
766.446304E-3
766.260910E-3
766.085815E-3
766.011429E-3
766.019440E-3
765.950775E-3
765.826607E-3
766.073799E-3
766.069794E-3
766.262627E-3
766.434860E-3
766.505814E-3
766.688347E-3
766.637421E-3
766.682053E-3
766.714668E-3
766.576195E-3
766.564751E-3
766.311264E-3
766.215706E-3
765.985680E-3
765.693283E-3
765.538788E-3
765.147972E-3
764.882469E-3
764.523125E-3
764.260483E-3
764.002419E-3
763.724327E-3
763.460541E-3
763.193321E-3
762.852287E-3
762.694359E-3
762.188530E-3
761.903572E-3
761.697578E-3
761.321640E-3
761.093330E-3
760.705948E-3
760.419846E-3
760.035896E-3
759.598160E-3
759.586716E-3
759.423637E-3
759.551811E-3
760.288811E-3
762.046051E-3
765.585136E-3
770.249176E-3
776.065636E-3
782.291794E-3
788.094521E-3
793.110466E-3
796.622086E-3
798.568726E-3
799.157524E-3
798.207092E-3
796.743393E-3
794.421959E-3
792.414665E-3
790.258598E-3
788.321686E-3
786.946106E-3
785.678101E-3
785.060120E-3
784.795189E-3
784.835815E-3
785.499001E-3
785.944176E-3
786.743546E-3
787.367249E-3
787.463951E-3
787.427330E-3
786.383629E-3
784.957123E-3
783.239937E-3
781.628036E-3
780.477333E-3
779.673386E-3
779.707146E-3
780.222130E-3
780.878448E-3
781.934738E-3
782.606506E-3
783.361244E-3
783.751488E-3
783.796120E-3
783.764648E-3
783.045959E-3
782.231140E-3
781.394577E-3
780.375481E-3
779.636192E-3
778.569603E-3
777.885818E-3
777.069855E-3
776.177788E-3
775.457382E-3
774.685478E-3
774.146461E-3
773.698425E-3
773.202324E-3
772.949409E-3
772.568321E-3
772.394371E-3
772.286224E-3
771.915436E-3
771.795273E-3
771.434212E-3
771.292305E-3
771.033096E-3
770.672607E-3
770.400238E-3
770.047760E-3
769.648361E-3
769.392586E-3
769.004059E-3
768.846703E-3
768.466759E-3
768.264771E-3
768.018150E-3
767.679977E-3
767.442513E-3
767.112923E-3
766.689491E-3
766.401100E-3
766.174507E-3
765.974808E-3
765.680695E-3
765.645218E-3
765.416336E-3
765.315628E-3
765.237236E-3
764.921951E-3
764.859009E-3
764.633560E-3
764.020157E-3
763.871384E-3
763.369560E-3
763.210487E-3
762.994766E-3
762.653732E-3
762.574196E-3
762.125015E-3
761.821175E-3
761.485291E-3
760.935402E-3
760.737419E-3
760.469055E-3
760.234451E-3
760.488510E-3
760.499954E-3
761.227226E-3
762.768745E-3
765.482140E-3
769.819450E-3
775.567245E-3
782.074928E-3
788.422966E-3
794.300652E-3
798.850822E-3
801.757050E-3
803.287697E-3
803.334045E-3
802.183342E-3
800.451279E-3
798.138428E-3
796.071053E-3
793.852615E-3
792.231560E-3
790.902901E-3
789.851189E-3
789.430618E-3
789.180565E-3
789.260101E-3
789.644623E-3
789.808846E-3
790.392494E-3
790.513229E-3
790.335846E-3
789.684105E-3
788.412666E-3
786.868286E-3
785.087013E-3
783.768082E-3
783.039665E-3
782.712936E-3
783.231926E-3
783.806419E-3
784.668159E-3
785.721016E-3
786.541557E-3
787.206459E-3
787.300873E-3
787.139511E-3
786.668587E-3
785.801125E-3
785.079575E-3
784.149742E-3
783.389854E-3
782.603073E-3
781.609154E-3
781.122780E-3
780.290794E-3
779.596138E-3
778.905487E-3
778.218842E-3
777.604294E-3
776.865578E-3
776.269341E-3
775.716591E-3
775.270271E-3
774.910927E-3
774.448013E-3
774.315262E-3
774.149895E-3
773.884392E-3
773.847198E-3
773.412323E-3
773.028946E-3
772.699928E-3
772.258759E-3
772.157478E-3
771.792412E-3
771.752930E-3
771.580124E-3
771.294022E-3
771.203041E-3
770.776749E-3
770.595932E-3
770.386505E-3
769.692421E-3
769.387436E-3
768.780327E-3
768.324852E-3
768.164063E-3
767.619324E-3
767.486000E-3
767.195892E-3
766.933823E-3
766.824532E-3
766.503525E-3
766.319847E-3
766.124153E-3
765.947342E-3
765.728188E-3
765.098763E-3
764.847565E-3
764.379501E-3
764.005852E-3
763.633919E-3
763.258553E-3
762.834549E-3
762.535858E-3
762.240028E-3
762.429428E-3
762.153625E-3
762.332153E-3
763.007355E-3
764.722252E-3
767.957497E-3
772.418404E-3
778.068352E-3
783.861923E-3
789.360809E-3
793.958473E-3
796.929359E-3
798.578453E-3
798.648262E-3
797.662926E-3
795.953178E-3
793.406296E-3
791.040802E-3
788.647842E-3
786.646271E-3
784.948540E-3
783.611870E-3
782.588196E-3
781.921005E-3
781.538200E-3
781.551933E-3
781.592560E-3
781.418610E-3
781.067848E-3
780.209541E-3
778.833961E-3
776.832962E-3
774.979591E-3
773.535919E-3
772.393799E-3
772.108841E-3
772.039032E-3
772.676468E-3
773.373985E-3
774.160194E-3
775.099182E-3
775.423622E-3
775.709724E-3
775.621033E-3
775.110626E-3
774.651718E-3
773.715019E-3
772.920227E-3
771.966362E-3
771.208763E-3
770.303535E-3
769.382286E-3
768.648720E-3
767.968941E-3
767.300606E-3
766.739273E-3
766.192818E-3
765.875244E-3
765.412331E-3
764.974022E-3
764.762306E-3
764.448738E-3
764.391518E-3
764.015579E-3
763.878250E-3
763.553810E-3
763.205910E-3
763.072014E-3
762.757301E-3
762.474632E-3
762.360764E-3
762.159348E-3
762.004280E-3
761.928749E-3
761.566544E-3
761.474419E-3
761.207199E-3
761.067581E-3
760.990906E-3
760.686493E-3
760.486794E-3
760.187531E-3
760.138321E-3
759.855080E-3
759.507751E-3
759.281731E-3
758.901787E-3
758.702087E-3
758.500671E-3
758.093834E-3
757.963371E-3
757.582855E-3
757.545662E-3
757.224083E-3
756.925392E-3
756.649590E-3
756.346893E-3
756.211281E-3
755.848503E-3
755.568695E-3
754.985046E-3
754.521561E-3
753.981400E-3
753.570557E-3
753.045273E-3
752.607536E-3
752.444458E-3
752.368927E-3
752.593803E-3
752.983475E-3
754.510689E-3
757.176590E-3
761.654091E-3
767.231941E-3
773.477554E-3
779.826736E-3
785.351944E-3
789.768791E-3
792.719650E-3
793.929291E-3
793.850899E-3
792.576027E-3
790.740967E-3
788.666725E-3
786.535263E-3
784.580040E-3
783.024216E-3
781.809425E-3
780.979729E-3
780.542564E-3
780.567169E-3
780.762863E-3
781.280708E-3
781.882095E-3
782.183075E-3
782.701492E-3
782.583046E-3
782.088661E-3
780.858421E-3
779.081154E-3
777.482986E-3
775.758934E-3
774.908638E-3
774.302673E-3
774.193954E-3
774.655724E-3
775.275993E-3
776.061058E-3
776.699638E-3
777.129936E-3
777.492714E-3
777.324486E-3
777.088737E-3
776.316261E-3
775.639343E-3
774.937248E-3
773.977661E-3
773.079300E-3
772.174644E-3
771.344948E-3
770.709801E-3
769.739342E-3
769.188881E-3
768.760872E-3
768.174362E-3
767.913437E-3
767.475128E-3
767.059708E-3
766.679192E-3
766.239166E-3
765.972519E-3
765.562820E-3
765.208626E-3
764.912224E-3
764.690781E-3
764.409256E-3
764.003563E-3
763.808441E-3
763.502884E-3
763.283730E-3
763.129234E-3
762.819672E-3
762.484932E-3
762.224007E-3
762.005424E-3
761.840630E-3
761.634636E-3
761.452103E-3
761.127090E-3
760.787201E-3
760.511971E-3
760.114861E-3
759.907150E-3
759.611320E-3
759.230804E-3
759.062576E-3
758.628273E-3
758.403397E-3
758.091545E-3
757.898712E-3
757.666397E-3
757.444382E-3
757.196045E-3
757.047272E-3
756.914520E-3
756.748581E-3
756.415558E-3
756.394386E-3
756.196976E-3
755.770683E-3
755.564690E-3
755.045128E-3
754.611969E-3
754.021454E-3
753.495598E-3
753.125381E-3
752.743721E-3
752.527428E-3
752.677917E-3
752.809525E-3
753.581429E-3
755.417633E-3
758.738708E-3
763.612747E-3
769.355392E-3
775.720596E-3
781.731033E-3
787.039948E-3
790.936089E-3
793.305016E-3
794.063759E-3
793.599129E-3
792.344284E-3
790.579605E-3
788.394928E-3
786.645699E-3
784.745979E-3
783.448219E-3
782.418251E-3
781.830025E-3
781.776810E-3
781.931305E-3
782.350731E-3
782.912636E-3
783.486557E-3
784.108543E-3
784.074783E-3
783.833885E-3
783.003044E-3
781.481552E-3
779.598427E-3
777.864075E-3
776.521111E-3
775.616455E-3
775.214767E-3
775.553513E-3
776.027298E-3
776.736832E-3
777.433777E-3
778.001976E-3
778.506088E-3
778.423119E-3
778.277206E-3
777.884674E-3
777.172279E-3
776.600075E-3
775.885391E-3
775.116920E-3
774.260902E-3
773.405457E-3
772.598648E-3
771.775818E-3
771.128654E-3
770.589638E-3
769.968224E-3
769.719315E-3
769.200325E-3
768.807220E-3
768.566322E-3
768.121719E-3
767.883682E-3
767.513466E-3
767.368698E-3
767.100334E-3
766.625977E-3
766.449738E-3
766.197395E-3
766.048622E-3
765.772247E-3
765.455246E-3
765.621185E-3
765.105629E-3
765.025520E-3
764.837837E-3
764.668465E-3
764.465904E-3
764.128304E-3
763.919449E-3
763.677406E-3
763.315773E-3
763.158989E-3
762.824821E-3
762.490654E-3
762.174797E-3
761.996841E-3
761.592293E-3
761.188889E-3
760.929680E-3
760.609818E-3
760.246468E-3
760.082817E-3
759.781837E-3
759.706879E-3
759.451675E-3
759.199333E-3
758.968163E-3
758.731842E-3
758.535004E-3
758.256912E-3
757.963943E-3
757.691574E-3
757.427788E-3
757.044411E-3
756.542587E-3
756.138611E-3
755.795860E-3
755.376434E-3
755.128670E-3
755.005646E-3
755.075455E-3
755.165291E-3
755.486298E-3
756.904793E-3
759.765816E-3
764.064217E-3
769.419479E-3
775.191879E-3
781.140518E-3
786.296654E-3
790.203094E-3
792.767715E-3
793.619156E-3
793.135071E-3
791.872215E-3
790.124702E-3
788.008118E-3
785.802841E-3
783.953476E-3
782.339859E-3
780.974007E-3
780.315971E-3
779.509163E-3
779.372406E-3
779.641342E-3
779.843903E-3
780.200958E-3
780.377769E-3
780.174637E-3
779.581261E-3
778.166771E-3
776.431847E-3
774.851418E-3
773.590279E-3
772.829819E-3
772.578049E-3
773.019791E-3
773.692131E-3
774.719238E-3
775.770950E-3
776.434708E-3
777.163696E-3
777.224350E-3
777.127075E-3
776.792336E-3
776.060486E-3
775.310326E-3
774.356461E-3
773.447227E-3
772.431564E-3
771.469688E-3
770.700645E-3
769.921875E-3
769.110489E-3
768.462753E-3
767.763519E-3
767.382431E-3
766.810226E-3
766.454315E-3
766.104126E-3
765.652657E-3
765.508461E-3
765.023804E-3
764.729118E-3
764.431000E-3
764.132309E-3
763.958931E-3
763.629913E-3
763.367844E-3
763.061714E-3
762.828827E-3
762.692642E-3
762.468338E-3
762.273216E-3
762.015724E-3
761.822891E-3
761.852646E-3
761.556244E-3
761.386871E-3
760.976028E-3
760.612679E-3
760.241890E-3
759.968376E-3
759.665108E-3
759.219360E-3
758.825111E-3
758.592224E-3
758.207130E-3
757.903862E-3
757.541084E-3
757.253838E-3
757.028389E-3
756.645584E-3
756.492805E-3
756.250763E-3
756.045914E-3
756.039619E-3
755.755234E-3
755.522919E-3
755.493736E-3
755.241966E-3
755.059433E-3
754.437447E-3
753.997421E-3
753.603172E-3
753.162575E-3
752.916527E-3
752.327156E-3
752.143478E-3
751.999283E-3
752.099419E-3
752.473640E-3
753.319931E-3
755.707741E-3
759.702301E-3
764.789200E-3
770.847702E-3
777.136803E-3
782.975006E-3
787.818718E-3
791.144371E-3
793.179131E-3
793.324471E-3
792.684174E-3
790.971565E-3
788.789749E-3
786.804199E-3
784.584045E-3
782.865143E-3
781.436348E-3
780.417824E-3
779.999542E-3
779.586983E-3
779.728889E-3
780.151176E-3
780.425262E-3
780.973434E-3
781.261253E-3
781.142807E-3
780.812073E-3
779.628754E-3
777.979088E-3
776.055336E-3
774.549294E-3
773.555374E-3
772.879601E-3
772.929955E-3
773.125648E-3
773.779678E-3
774.516106E-3
775.175858E-3
775.760078E-3
775.967789E-3
776.019287E-3
775.806427E-3
775.391579E-3
774.752426E-3
773.862076E-3
773.094749E-3
772.159195E-3
770.890045E-3
770.103264E-3
769.148254E-3
768.406105E-3
767.701149E-3
766.965866E-3
766.599655E-3
766.080093E-3
765.736771E-3
765.272141E-3
764.852715E-3
764.630127E-3
764.129448E-3
763.863373E-3
763.643074E-3
763.199043E-3
762.948418E-3
762.664032E-3
762.341881E-3
762.217140E-3
761.894989E-3
761.660385E-3
761.587715E-3
761.295891E-3
761.081314E-3
760.841560E-3
760.772324E-3
760.491371E-3
760.342026E-3
760.152054E-3
759.731483E-3
759.381866E-3
758.991623E-3
758.716393E-3
758.384514E-3
757.967377E-3
757.673836E-3
757.285309E-3
757.024384E-3
756.651306E-3
756.322289E-3
755.958939E-3
755.655670E-3
755.226517E-3
755.042267E-3
754.734993E-3
754.623413E-3
754.254341E-3
754.020309E-3
753.950500E-3
753.777695E-3
753.697586E-3
753.445244E-3
753.214645E-3
753.176308E-3
752.990341E-3
752.783203E-3
752.378082E-3
752.101135E-3
751.908875E-3
751.224518E-3
750.641441E-3
750.342751E-3
749.862099E-3
749.530792E-3
749.192047E-3
749.409485E-3
749.417496E-3
750.371361E-3
752.465057E-3
756.022453E-3
761.083603E-3
766.955566E-3
773.362541E-3
779.376411E-3
784.435272E-3
788.334846E-3
790.437126E-3
791.038513E-3
790.521240E-3
789.145660E-3
787.192726E-3
785.012054E-3
782.847977E-3
781.084442E-3
779.465103E-3
778.465462E-3
777.770805E-3
777.576256E-3
777.827454E-3
778.040886E-3
778.652573E-3
779.142380E-3
779.696846E-3
779.821014E-3
779.557228E-3
778.829956E-3
777.500153E-3
775.805283E-3
774.276924E-3
772.874451E-3
772.245026E-3
772.051048E-3
772.126579E-3
772.769737E-3
773.260117E-3
774.092102E-3
774.502945E-3
774.866295E-3
775.029945E-3
774.692345E-3
774.529266E-3
773.933601E-3
773.078156E-3
772.487068E-3
771.500587E-3
770.850563E-3
769.870949E-3
769.021797E-3
768.469048E-3
767.489433E-3
767.087746E-3
766.478920E-3
766.048050E-3
765.660667E-3
765.191460E-3
764.843559E-3
764.595795E-3
764.188957E-3
763.839912E-3
763.450241E-3
763.256264E-3
762.994766E-3
762.780190E-3
762.560463E-3
762.220001E-3
762.015152E-3
761.820030E-3
761.567116E-3
761.397743E-3
761.107063E-3
761.150551E-3
761.064720E-3
760.806656E-3
760.525703E-3
760.330582E-3
760.129166E-3
760.000420E-3
759.557533E-3
759.332657E-3
758.936691E-3
758.711815E-3
758.478355E-3
758.028603E-3
757.929611E-3
757.413483E-3
757.336235E-3
756.968880E-3
756.602669E-3
756.380081E-3
755.933762E-3
755.818176E-3
755.538368E-3
755.315781E-3
755.220795E-3
754.916382E-3
754.683495E-3
754.371071E-3
754.292107E-3
754.135323E-3
753.860092E-3
753.784561E-3
753.463554E-3
753.236389E-3
752.948570E-3
752.382088E-3
752.087975E-3
751.619339E-3
751.442528E-3
751.093483E-3
750.739288E-3
750.719833E-3
750.770187E-3
750.918388E-3
751.704597E-3
753.358841E-3
756.788063E-3
761.626053E-3
767.083168E-3
773.151398E-3
778.728104E-3
783.692551E-3
787.195015E-3
789.052391E-3
789.724731E-3
788.913345E-3
787.536049E-3
785.340500E-3
783.171272E-3
780.945969E-3
778.875732E-3
777.171707E-3
775.788689E-3
774.927521E-3
774.577904E-3
