Notes :


2023-11-04 ¿ÀÀü 1:16:27
Volts
Ch : LED 2,
760.714531E-3
762.187386E-3
761.711311E-3
761.991119E-3
762.158775E-3
761.564827E-3
762.891769E-3
762.579918E-3
762.487793E-3
762.944412E-3
761.614037E-3
762.177086E-3
761.273003E-3
760.445595E-3
760.361481E-3
758.657455E-3
759.117508E-3
758.088684E-3
757.307625E-3
757.117653E-3
755.581284E-3
756.227303E-3
755.600166E-3
755.241394E-3
755.302048E-3
754.228592E-3
755.540085E-3
755.150414E-3
755.054283E-3
755.406761E-3
754.430008E-3
755.858803E-3
755.111504E-3
754.704666E-3
755.121803E-3
754.159927E-3
755.348396E-3
754.455185E-3
754.506111E-3
754.662323E-3
753.628349E-3
755.106354E-3
754.170799E-3
753.713608E-3
754.155350E-3
753.077888E-3
754.062653E-3
753.170586E-3
752.666473E-3
752.856445E-3
751.471138E-3
752.810669E-3
752.118301E-3
751.620483E-3
751.893425E-3
750.821114E-3
752.304840E-3
751.468849E-3
751.125526E-3
751.523781E-3
750.584793E-3
751.887703E-3
751.165581E-3
750.537300E-3
750.579643E-3
749.869537E-3
751.482582E-3
750.660324E-3
750.212860E-3
750.827408E-3
750.252914E-3
752.869034E-3
754.293251E-3
756.900787E-3
760.953712E-3
763.921165E-3
769.035530E-3
770.962143E-3
772.461319E-3
774.115562E-3
773.554230E-3
774.760437E-3
773.353958E-3
771.606445E-3
771.097183E-3
769.199181E-3
769.519615E-3
768.264771E-3
766.815948E-3
766.991615E-3
765.885544E-3
767.274857E-3
767.012215E-3
766.661453E-3
767.568970E-3
767.297745E-3
768.875313E-3
768.172073E-3
766.981888E-3
766.777039E-3
765.497017E-3
766.436005E-3
765.518188E-3
764.956284E-3
765.315628E-3
765.008926E-3
766.762161E-3
766.821671E-3
765.211487E-3
765.380859E-3
765.763664E-3
767.426491E-3
766.860008E-3
765.698433E-3
765.850639E-3
764.501381E-3
764.927673E-3
764.075089E-3
762.847137E-3
761.963654E-3
761.369705E-3
762.179947E-3
761.607742E-3
760.580063E-3
760.966873E-3
760.009575E-3
761.036682E-3
760.447311E-3
759.592438E-3
760.257339E-3
759.372139E-3
760.435295E-3
760.176086E-3
759.679413E-3
759.617615E-3
759.272003E-3
760.377502E-3
760.202980E-3
759.611320E-3
759.376144E-3
759.104347E-3
760.275078E-3
760.059929E-3
759.348106E-3
760.214996E-3
759.336662E-3
760.183525E-3
759.966087E-3
759.041405E-3
759.633064E-3
758.322144E-3
758.952713E-3
758.496666E-3
757.451820E-3
758.078957E-3
757.325935E-3
757.677269E-3
757.474136E-3
756.568909E-3
757.466698E-3
756.408119E-3
757.101059E-3
756.919670E-3
755.831337E-3
756.246758E-3
755.108070E-3
755.504036E-3
755.121803E-3
754.271507E-3
754.614258E-3
753.896141E-3
754.699516E-3
754.486084E-3
754.252052E-3
756.397820E-3
757.960510E-3
761.842346E-3
764.843559E-3
767.189026E-3
771.647644E-3
772.608948E-3
774.616241E-3
775.134087E-3
774.474335E-3
775.582695E-3
773.608017E-3
772.879601E-3
771.706009E-3
769.925880E-3
770.505524E-3
768.348312E-3
768.293381E-3
767.440796E-3
764.695930E-3
767.171860E-3
766.387367E-3
766.944695E-3
766.862297E-3
766.016006E-3
767.183876E-3
765.358543E-3
765.120506E-3
764.972305E-3
762.205124E-3
765.006638E-3
764.271355E-3
765.122223E-3
765.464973E-3
765.069580E-3
766.862297E-3
765.616035E-3
765.933609E-3
765.557671E-3
764.342880E-3
765.464401E-3
763.355255E-3
763.192749E-3
762.607384E-3
761.000633E-3
761.529350E-3
759.495163E-3
759.000206E-3
758.356476E-3
757.260704E-3
758.009148E-3
756.395531E-3
756.604385E-3
756.667900E-3
756.095123E-3
757.426643E-3
756.105423E-3
756.538582E-3
756.810951E-3
756.157494E-3
757.443237E-3
756.087112E-3
756.551170E-3
757.053566E-3
756.522560E-3
757.851791E-3
756.760597E-3
757.257271E-3
757.754517E-3
756.970596E-3
757.918739E-3
756.387520E-3
756.547165E-3
756.535149E-3
755.558395E-3
756.621552E-3
755.184746E-3
755.194473E-3
755.081749E-3
754.262924E-3
755.597878E-3
753.988266E-3
754.025459E-3
753.964233E-3
753.121376E-3
754.226303E-3
752.740288E-3
752.859306E-3
752.843285E-3
752.181816E-3
753.306770E-3
751.836205E-3
752.152634E-3
752.363777E-3
751.384735E-3
752.383232E-3
751.078033E-3
751.072311E-3
751.506615E-3
750.957298E-3
753.099632E-3
753.730202E-3
756.963730E-3
760.814667E-3
763.925171E-3
768.621254E-3
770.302391E-3
773.076439E-3
774.446297E-3
774.015999E-3
774.982452E-3
773.120499E-3
772.191811E-3
771.296883E-3
768.847847E-3
769.551086E-3
767.542076E-3
767.247391E-3
767.242813E-3
766.375923E-3
767.566109E-3
766.526413E-3
766.801071E-3
767.367554E-3
766.465187E-3
768.176651E-3
767.027092E-3
766.604233E-3
766.161919E-3
764.454460E-3
765.487289E-3
763.978386E-3
764.234161E-3
764.624405E-3
763.724327E-3
765.555382E-3
764.933968E-3
764.975166E-3
765.384865E-3
764.378929E-3
765.315056E-3
764.503670E-3
764.199257E-3
764.080811E-3
762.501526E-3
763.187599E-3
761.223793E-3
760.733986E-3
760.363197E-3
758.772469E-3
759.548378E-3
758.213425E-3
757.828331E-3
757.865524E-3
756.929970E-3
758.160782E-3
757.288170E-3
757.321358E-3
757.028961E-3
753.650093E-3
756.608963E-3
756.611824E-3
756.863022E-3
757.464981E-3
756.487083E-3
757.467842E-3
756.903648E-3
756.814384E-3
757.484436E-3
756.637573E-3
757.889557E-3
756.797791E-3
756.770897E-3
757.165146E-3
755.743217E-3
756.491089E-3
755.860519E-3
755.275726E-3
755.563545E-3
754.295540E-3
755.282593E-3
754.428864E-3
753.972816E-3
754.571915E-3
753.223801E-3
754.100990E-3
753.199768E-3
752.851295E-3
752.565765E-3
751.686287E-3
752.898216E-3
752.540588E-3
752.045059E-3
752.404976E-3
751.227951E-3
752.313423E-3
751.925468E-3
751.420784E-3
751.607323E-3
750.469208E-3
751.517487E-3
750.878334E-3
750.389099E-3
750.664330E-3
749.674988E-3
750.967026E-3
751.619911E-3
753.771973E-3
757.241821E-3
759.953499E-3
765.190887E-3
768.224144E-3
770.946121E-3
773.281860E-3
773.467255E-3
775.071144E-3
774.225998E-3
772.958565E-3
772.441864E-3
770.056343E-3
770.583344E-3
769.029236E-3
767.808151E-3
767.762947E-3
766.543579E-3
767.864227E-3
767.149544E-3
767.078590E-3
767.852211E-3
767.313194E-3
768.977165E-3
768.406105E-3
767.603302E-3
767.636490E-3
765.867805E-3
766.715813E-3
765.541649E-3
764.603806E-3
765.019226E-3
764.321136E-3
766.129875E-3
765.735054E-3
765.181160E-3
765.760231E-3
765.230370E-3
766.565895E-3
765.778542E-3
764.859581E-3
764.634705E-3
763.323784E-3
764.263344E-3
762.976456E-3
760.977745E-3
761.105347E-3
760.208702E-3
761.144257E-3
760.050774E-3
758.979034E-3
759.230232E-3
758.210564E-3
759.294891E-3
758.602524E-3
756.864738E-3
758.278084E-3
757.845497E-3
759.209633E-3
758.848000E-3
758.140182E-3
758.646584E-3
757.589722E-3
758.916092E-3
758.377647E-3
757.778549E-3
758.191681E-3
757.257843E-3
758.217430E-3
757.901001E-3
757.336807E-3
757.971954E-3
757.019234E-3
758.191109E-3
757.439232E-3
756.604958E-3
757.025528E-3
755.895996E-3
756.504822E-3
755.782127E-3
754.952431E-3
754.843140E-3
754.104424E-3
755.268860E-3
754.801941E-3
753.315926E-3
754.586220E-3
753.841209E-3
754.740715E-3
754.359055E-3
753.630066E-3
754.199409E-3
753.195763E-3
753.969955E-3
753.590012E-3
752.582932E-3
753.509331E-3
752.461052E-3
753.277016E-3
752.859306E-3
752.069092E-3
752.738571E-3
751.843071E-3
752.769470E-3
752.580070E-3
752.506828E-3
755.079460E-3
756.764603E-3
760.687637E-3
763.920593E-3
766.613388E-3
770.277786E-3
771.427917E-3
773.608589E-3
773.926735E-3
773.049545E-3
773.491287E-3
771.719170E-3
771.264267E-3
769.956207E-3
767.990685E-3
767.534637E-3
765.900421E-3
766.135025E-3
765.680122E-3
764.734840E-3
766.125298E-3
765.099335E-3
765.826035E-3
765.811729E-3
764.892769E-3
765.820885E-3
763.986397E-3
763.762665E-3
763.298607E-3
762.483788E-3
763.702583E-3
762.966728E-3
763.510895E-3
763.880539E-3
763.390160E-3
765.199471E-3
764.073944E-3
764.485931E-3
764.286232E-3
763.153267E-3
764.229584E-3
762.343025E-3
761.832047E-3
761.085320E-3
759.509468E-3
760.203552E-3
758.104706E-3
757.800293E-3
757.185173E-3
756.021881E-3
756.915665E-3
755.279732E-3
755.501747E-3
755.292320E-3
754.408836E-3
755.765533E-3
754.379654E-3
754.454041E-3
754.660034E-3
753.955078E-3
755.501175E-3
754.149055E-3
754.343033E-3
754.586220E-3
753.990555E-3
755.525780E-3
753.977966E-3
754.319000E-3
754.372787E-3
753.584290E-3
755.051994E-3
753.307915E-3
753.493881E-3
753.515053E-3
750.289536E-3
753.099060E-3
751.992416E-3
752.280235E-3
752.430725E-3
749.957657E-3
752.125740E-3
750.574493E-3
750.720406E-3
750.813103E-3
750.093269E-3
751.301765E-3
749.674988E-3
749.646950E-3
749.384308E-3
748.873901E-3
750.135040E-3
748.437881E-3
748.612976E-3
748.824692E-3
747.958946E-3
748.963737E-3
747.589302E-3
747.665405E-3
747.763252E-3
747.106361E-3
748.516846E-3
747.710037E-3
749.444389E-3
752.243614E-3
754.503822E-3
759.372711E-3
761.565971E-3
765.325356E-3
767.640495E-3
769.074440E-3
771.520615E-3
770.492935E-3
770.421410E-3
769.744492E-3
767.859650E-3
767.893410E-3
765.351105E-3
764.486504E-3
763.897705E-3
762.366486E-3
763.498878E-3
762.240601E-3
762.468338E-3
763.030815E-3
762.396240E-3
764.338303E-3
763.188171E-3
763.080597E-3
762.792206E-3
761.415482E-3
761.995125E-3
759.863091E-3
759.591866E-3
759.709740E-3
759.048843E-3
760.688210E-3
759.720612E-3
760.051346E-3
760.115433E-3
759.891129E-3
761.603737E-3
760.348892E-3
760.266495E-3
760.190964E-3
758.976173E-3
759.834480E-3
757.903862E-3
757.407761E-3
757.039261E-3
755.651665E-3
756.264496E-3
754.949570E-3
754.183388E-3
754.264641E-3
750.385666E-3
752.911949E-3
752.322578E-3
752.552605E-3
751.556396E-3
751.440239E-3
752.976608E-3
752.288818E-3
752.363205E-3
752.856445E-3
752.060509E-3
753.230667E-3
752.371788E-3
752.299690E-3
752.759171E-3
751.691437E-3
752.873611E-3
751.992416E-3
751.867676E-3
752.105141E-3
751.138687E-3
752.126312E-3
751.054001E-3
750.793076E-3
751.242256E-3
748.397827E-3
750.389671E-3
749.921608E-3
749.606895E-3
750.270081E-3
748.860741E-3
749.673843E-3
748.866463E-3
748.388672E-3
748.492241E-3
746.947861E-3
748.193550E-3
747.633362E-3
747.665977E-3
748.077393E-3
746.856308E-3
747.861671E-3
747.367287E-3
746.991348E-3
747.524643E-3
743.852806E-3
746.498108E-3
746.396255E-3
746.264076E-3
746.672630E-3
745.622635E-3
746.487808E-3
746.133041E-3
746.019745E-3
746.220589E-3
745.869255E-3
748.511696E-3
750.351334E-3
753.636932E-3
757.876396E-3
760.988045E-3
765.349960E-3
767.574692E-3
769.084167E-3
770.243454E-3
768.582916E-3
770.046616E-3
768.741989E-3
767.313194E-3
766.463470E-3
764.271355E-3
764.904213E-3
763.414764E-3
762.658310E-3
762.779045E-3
761.726761E-3
763.417625E-3
763.173866E-3
763.159561E-3
764.167213E-3
763.349533E-3
764.888763E-3
763.790131E-3
762.800789E-3
762.474060E-3
760.822105E-3
761.685562E-3
760.767746E-3
760.199547E-3
760.268784E-3
759.742355E-3
761.683846E-3
761.573982E-3
760.485077E-3
761.329651E-3
760.614967E-3
761.751938E-3
760.938835E-3
759.851646E-3
759.621048E-3
758.513260E-3
759.276009E-3
757.819176E-3
756.329727E-3
756.470490E-3
755.342674E-3
756.043053E-3
755.085182E-3
754.205132E-3
754.689217E-3
753.625488E-3
754.714966E-3
754.466057E-3
753.782272E-3
754.181099E-3
753.356552E-3
754.515266E-3
754.071236E-3
753.297043E-3
753.852081E-3
752.743149E-3
753.798294E-3
753.236389E-3
752.656746E-3
753.404617E-3
752.567482E-3
753.583145E-3
752.992630E-3
752.288246E-3
752.114868E-3
751.522064E-3
752.650452E-3
752.265930E-3
749.744797E-3
751.205635E-3
750.809669E-3
751.785278E-3
751.340103E-3
750.226593E-3
750.623131E-3
749.621773E-3
750.296974E-3
749.941635E-3
749.036407E-3
749.643517E-3
748.843002E-3
749.855804E-3
749.639511E-3
748.881912E-3
749.027824E-3
748.574066E-3
749.766541E-3
749.510765E-3
748.619270E-3
749.166298E-3
748.225594E-3
749.010658E-3
748.857307E-3
746.157646E-3
747.878265E-3
747.389603E-3
747.998428E-3
747.948074E-3
747.121811E-3
748.357773E-3
748.531723E-3
751.327515E-3
754.183960E-3
756.647873E-3
761.182022E-3
763.743210E-3
767.238235E-3
768.926811E-3
769.430923E-3
771.181870E-3
769.819450E-3
769.421196E-3
768.251038E-3
766.158485E-3
766.463470E-3
763.997269E-3
763.449669E-3
762.851715E-3
759.403038E-3
762.057495E-3
761.171722E-3
761.864662E-3
762.198830E-3
761.568832E-3
763.041687E-3
761.771393E-3
761.382866E-3
760.260201E-3
757.903862E-3
759.612465E-3
758.414841E-3
758.789062E-3
759.476280E-3
759.103203E-3
760.996056E-3
760.216713E-3
760.899353E-3
761.047554E-3
760.474205E-3
761.818314E-3
759.885406E-3
760.143471E-3
759.471130E-3
758.176231E-3
758.892632E-3
756.857300E-3
756.499100E-3
755.825615E-3
754.559898E-3
755.264282E-3
753.079033E-3
753.124237E-3
753.044701E-3
752.178383E-3
753.131676E-3
751.545525E-3
751.762962E-3
752.028465E-3
751.354980E-3
752.420425E-3
751.041412E-3
751.284027E-3
751.620483E-3
750.849724E-3
752.166367E-3
750.689507E-3
751.055145E-3
751.305771E-3
750.687218E-3
751.832199E-3
750.572777E-3
750.863457E-3
750.957870E-3
750.082397E-3
751.047707E-3
749.438667E-3
749.370003E-3
748.631287E-3
745.889282E-3
748.659325E-3
747.864532E-3
748.104286E-3
748.211288E-3
747.367859E-3
748.401260E-3
746.782494E-3
746.838570E-3
745.679855E-3
745.640945E-3
746.924973E-3
745.561409E-3
745.980835E-3
746.057510E-3
745.184326E-3
746.282387E-3
745.033836E-3
744.860458E-3
744.978905E-3
744.018745E-3
745.224380E-3
743.748093E-3
743.747520E-3
744.060516E-3
743.144989E-3
744.705391E-3
744.600105E-3
746.882629E-3
750.233459E-3
752.830696E-3
758.045197E-3
760.656166E-3
763.573837E-3
766.180801E-3
766.644287E-3
768.462181E-3
767.294312E-3
766.529846E-3
765.986252E-3
763.671684E-3
763.740921E-3
761.838913E-3
760.440445E-3
760.317993E-3
758.881760E-3
759.575272E-3
758.726120E-3
758.767891E-3
759.506035E-3
758.881760E-3
760.319138E-3
759.586143E-3
759.304619E-3
759.432220E-3
757.739067E-3
758.023453E-3
756.667900E-3
756.144905E-3
756.576920E-3
755.675697E-3
756.974030E-3
756.988335E-3
756.932259E-3
757.893562E-3
757.143402E-3
758.173943E-3
757.461548E-3
756.941986E-3
757.085609E-3
755.397606E-3
755.952644E-3
754.807091E-3
753.783417E-3
753.513908E-3
751.937485E-3
752.338028E-3
751.599312E-3
750.831985E-3
750.738144E-3
749.331093E-3
750.093842E-3
749.490166E-3
749.557114E-3
749.487305E-3
748.412704E-3
749.704742E-3
748.912811E-3
749.077606E-3
749.520493E-3
748.551750E-3
749.823189E-3
749.262428E-3
748.944855E-3
749.519348E-3
748.622131E-3
749.832916E-3
749.193764E-3
748.679352E-3
749.051285E-3
747.990990E-3
749.349976E-3
748.602676E-3
748.072815E-3
748.446465E-3
747.263145E-3
748.558617E-3
747.488022E-3
746.716690E-3
746.999359E-3
745.903587E-3
747.027969E-3
746.123886E-3
745.626068E-3
745.865822E-3
744.697952E-3
745.961952E-3
745.124245E-3
744.498253E-3
744.832420E-3
743.978691E-3
745.452690E-3
744.564629E-3
743.895721E-3
744.245911E-3
743.541527E-3
744.779205E-3
744.171524E-3
743.442535E-3
744.193840E-3
743.117523E-3
744.106293E-3
743.464851E-3
742.441750E-3
742.804527E-3
741.809464E-3
743.365288E-3
743.784714E-3
744.901085E-3
748.360062E-3
