Notes :


2023-11-04 ¿ÀÈÄ 10:14:18
Volts
Ch : LED 2,
435.217094E-3
435.141563E-3
434.993362E-3
434.810829E-3
434.817696E-3
434.645462E-3
434.610558E-3
434.571648E-3
434.432030E-3
434.407425E-3
434.396553E-3
434.277534E-3
434.338760E-3
434.184837E-3
433.942795E-3
433.956528E-3
433.850670E-3
433.764267E-3
433.630371E-3
433.478737E-3
433.374596E-3
433.368301E-3
433.171463E-3
433.002663E-3
432.849312E-3
432.723427E-3
432.566071E-3
432.515717E-3
432.421303E-3
432.376099E-3
432.316589E-3
432.184410E-3
432.123184E-3
431.862259E-3
431.714630E-3
431.403351E-3
431.245995E-3
431.063461E-3
430.737305E-3
430.471230E-3
430.446053E-3
430.500984E-3
430.981636E-3
432.227898E-3
434.216309E-3
436.695099E-3
439.378738E-3
441.991997E-3
444.402695E-3
445.981979E-3
447.019958E-3
447.308350E-3
447.062302E-3
446.349335E-3
445.421219E-3
444.527435E-3
443.388748E-3
442.329597E-3
441.435242E-3
440.683365E-3
440.136909E-3
439.732361E-3
439.600182E-3
439.461136E-3
439.260864E-3
439.548683E-3
439.695168E-3
439.727783E-3
439.760399E-3
439.474297E-3
439.070320E-3
438.508987E-3
438.072968E-3
437.683868E-3
437.619209E-3
437.799454E-3
437.857246E-3
438.079834E-3
438.263512E-3
438.354492E-3
438.510132E-3
438.522720E-3
438.444901E-3
438.292122E-3
438.072395E-3
437.683296E-3
437.281609E-3
436.889076E-3
436.570358E-3
436.175537E-3
435.779572E-3
435.403633E-3
435.223389E-3
434.931564E-3
434.830856E-3
434.591675E-3
434.277534E-3
434.037781E-3
433.894157E-3
433.691025E-3
433.539963E-3
433.380318E-3
433.319664E-3
433.260727E-3
433.062744E-3
432.944870E-3
432.758904E-3
432.697678E-3
432.629585E-3
432.588387E-3
432.564354E-3
432.514000E-3
432.313728E-3
432.209015E-3
432.055664E-3
432.039070E-3
431.838799E-3
431.764412E-3
431.720352E-3
431.539536E-3
431.322670E-3
431.315804E-3
431.185913E-3
431.061745E-3
430.902100E-3
430.900955E-3
430.764771E-3
430.674362E-3
430.539894E-3
430.246925E-3
430.021477E-3
429.841232E-3
429.678154E-3
429.388618E-3
429.194069E-3
428.912544E-3
428.816414E-3
428.913116E-3
429.555130E-3
430.932999E-3
432.948303E-3
435.337257E-3
438.005447E-3
440.417290E-3
442.450905E-3
443.946075E-3
444.844437E-3
445.170593E-3
444.918251E-3
444.350052E-3
443.613052E-3
442.536163E-3
441.465569E-3
440.534592E-3
439.797592E-3
439.153862E-3
438.668060E-3
438.463783E-3
438.256073E-3
438.182259E-3
438.298988E-3
438.477516E-3
438.568497E-3
438.518143E-3
438.323593E-3
437.899590E-3
437.434959E-3
436.934280E-3
436.766052E-3
436.558914E-3
436.685944E-3
436.747169E-3
436.831284E-3
437.051582E-3
437.294197E-3
437.485886E-3
437.587166E-3
437.600327E-3
437.501335E-3
437.572861E-3
437.165451E-3
436.753464E-3
436.491394E-3
436.143494E-3
435.849380E-3
435.423088E-3
435.084343E-3
434.797096E-3
434.362793E-3
434.146500E-3
433.975983E-3
433.782005E-3
433.614922E-3
433.551407E-3
433.300781E-3
433.277321E-3
433.056450E-3
433.109093E-3
432.944298E-3
432.848740E-3
432.670212E-3
432.544899E-3
432.444763E-3
432.360649E-3
432.270241E-3
432.197571E-3
432.366943E-3
432.321167E-3
432.135773E-3
432.091713E-3
432.026482E-3
431.858253E-3
431.902885E-3
431.752968E-3
431.605339E-3
431.585884E-3
431.445694E-3
431.325531E-3
431.248856E-3
431.091499E-3
431.023979E-3
430.937576E-3
430.680084E-3
430.809402E-3
430.713272E-3
430.640602E-3
430.542755E-3
430.486679E-3
430.355644E-3
430.102158E-3
429.964828E-3
429.723930E-3
429.610062E-3
429.485893E-3
429.400635E-3
429.368591E-3
429.710770E-3
430.740738E-3
432.527161E-3
434.932709E-3
437.744522E-3
440.338326E-3
442.683220E-3
444.673347E-3
446.063805E-3
446.784210E-3
446.919250E-3
446.523285E-3
445.785141E-3
444.629288E-3
443.758965E-3
442.861748E-3
441.963959E-3
441.322517E-3
440.804100E-3
440.528297E-3
440.377235E-3
440.394974E-3
440.267372E-3
440.472794E-3
440.612984E-3
440.722847E-3
440.863609E-3
440.726280E-3
440.530014E-3
440.039062E-3
439.457130E-3
438.950729E-3
438.737297E-3
438.586235E-3
438.549614E-3
438.615990E-3
438.718987E-3
438.891792E-3
439.076042E-3
439.128685E-3
439.348412E-3
439.188194E-3
439.021111E-3
438.697815E-3
438.408279E-3
438.060379E-3
437.768555E-3
437.535667E-3
437.139702E-3
436.750603E-3
436.483955E-3
436.222458E-3
436.087990E-3
435.872269E-3
435.681725E-3
435.470009E-3
435.239410E-3
435.032272E-3
434.769630E-3
434.737587E-3
434.656334E-3
434.572792E-3
434.572792E-3
434.349632E-3
434.326172E-3
434.227753E-3
434.136200E-3
433.953094E-3
433.954811E-3
433.893013E-3
433.791733E-3
433.648109E-3
433.601761E-3
433.495903E-3
433.652115E-3
433.468437E-3
433.325386E-3
433.182335E-3
433.069038E-3
432.948875E-3
432.819557E-3
432.728004E-3
432.657623E-3
432.548904E-3
432.592964E-3
432.407570E-3
432.376099E-3
432.192993E-3
432.036209E-3
432.073975E-3
431.898880E-3
431.615067E-3
431.631088E-3
431.282616E-3
431.052589E-3
430.828857E-3
430.677223E-3
430.556488E-3
430.527878E-3
431.185341E-3
432.314873E-3
434.304428E-3
436.852455E-3
439.572144E-3
441.916466E-3
443.988419E-3
445.548248E-3
446.562767E-3
446.799660E-3
446.561623E-3
445.928764E-3
444.996643E-3
443.974686E-3
442.985916E-3
442.030334E-3
441.233253E-3
440.606689E-3
440.042496E-3
439.772415E-3
439.814186E-3
439.672279E-3
439.700317E-3
439.854813E-3
439.883995E-3
439.919472E-3
439.863396E-3
439.443970E-3
438.977051E-3
438.751602E-3
438.255501E-3
437.937355E-3
437.941360E-3
438.015747E-3
438.055229E-3
438.262939E-3
438.408279E-3
438.490677E-3
438.744164E-3
438.698959E-3
438.607407E-3
438.409996E-3
438.080406E-3
437.699890E-3
437.273026E-3
436.902237E-3
436.534882E-3
436.119461E-3
435.837364E-3
435.498619E-3
435.330963E-3
435.000801E-3
434.667778E-3
434.535599E-3
434.252357E-3
434.066391E-3
433.927917E-3
433.827782E-3
433.696175E-3
433.565712E-3
433.491325E-3
433.359718E-3
433.111382E-3
433.110237E-3
432.986641E-3
432.880783E-3
432.686806E-3
432.650185E-3
432.615852E-3
432.538605E-3
432.435036E-3
432.332611E-3
432.508850E-3
432.339478E-3
432.153511E-3
432.161522E-3
432.054520E-3
431.902885E-3
431.813049E-3
431.760979E-3
431.653976E-3
431.332397E-3
431.063461E-3
430.966187E-3
430.678368E-3
430.364227E-3
430.149078E-3
430.044937E-3
430.175972E-3
430.563354E-3
431.685448E-3
433.507347E-3
435.759544E-3
438.175392E-3
440.556335E-3
442.564201E-3
444.128036E-3
445.086479E-3
445.500755E-3
445.159721E-3
444.748306E-3
443.955231E-3
443.118668E-3
442.252922E-3
441.407204E-3
440.698814E-3
440.148926E-3
439.760971E-3
439.453697E-3
439.459991E-3
439.493179E-3
439.653397E-3
439.728355E-3
439.780426E-3
439.793587E-3
439.601898E-3
439.229393E-3
438.684082E-3
438.155937E-3
437.836647E-3
437.598610E-3
437.598610E-3
437.674141E-3
437.837791E-3
437.929916E-3
438.099861E-3
438.111877E-3
438.440895E-3
438.479233E-3
438.460922E-3
438.225746E-3
437.976837E-3
437.620926E-3
437.313080E-3
436.947441E-3
436.815262E-3
436.418152E-3
435.994720E-3
435.721207E-3
435.443115E-3
435.145569E-3
434.907532E-3
434.757042E-3
434.585381E-3
434.433174E-3
434.314728E-3
434.221458E-3
434.179115E-3
434.065819E-3
434.001160E-3
433.989716E-3
433.977127E-3
433.751106E-3
433.715630E-3
433.731651E-3
433.560562E-3
433.539963E-3
433.506203E-3
433.495331E-3
433.504486E-3
433.166313E-3
433.148575E-3
433.058167E-3
433.084488E-3
432.948875E-3
432.871056E-3
432.810974E-3
432.759476E-3
432.607841E-3
432.614136E-3
432.349777E-3
432.281685E-3
432.112312E-3
431.979561E-3
431.906891E-3
431.850243E-3
431.858253E-3
431.783295E-3
431.561279E-3
431.585312E-3
431.529236E-3
431.458855E-3
431.375885E-3
431.294632E-3
431.122398E-3
430.960464E-3
430.785942E-3
430.725288E-3
430.567360E-3
430.633163E-3
431.126976E-3
432.371521E-3
434.320450E-3
436.816978E-3
439.551544E-3
442.295265E-3
444.554901E-3
446.373940E-3
447.556686E-3
448.235321E-3
448.179817E-3
447.763824E-3
446.939278E-3
446.059799E-3
445.051003E-3
444.390106E-3
443.542671E-3
442.897797E-3
442.542458E-3
442.287254E-3
442.268944E-3
442.437744E-3
442.422295E-3
442.648315E-3
442.694664E-3
442.852592E-3
442.885208E-3
442.631721E-3
442.220879E-3
441.703033E-3
441.143417E-3
440.710258E-3
440.365219E-3
440.381813E-3
440.304565E-3
440.309715E-3
440.471649E-3
440.539742E-3
440.698814E-3
440.695381E-3
440.688515E-3
440.668488E-3
440.604973E-3
440.187263E-3
439.788437E-3
439.473152E-3
439.096642E-3
438.756752E-3
438.568497E-3
438.186264E-3
437.913322E-3
437.671280E-3
437.523651E-3
437.188911E-3
436.958885E-3
436.753464E-3
436.695671E-3
436.463356E-3
436.330032E-3
436.222458E-3
436.201859E-3
436.085701E-3
435.959244E-3
435.936928E-3
435.834503E-3
435.699463E-3
435.748100E-3
435.627365E-3
435.551834E-3
435.461426E-3
435.397911E-3
435.226250E-3
435.149574E-3
435.015678E-3
434.924126E-3
434.846878E-3
434.943008E-3
434.659195E-3
434.640312E-3
434.579659E-3
434.430313E-3
434.371948E-3
434.247780E-3
434.135056E-3
433.923912E-3
433.664131E-3
433.678436E-3
433.455849E-3
433.346558E-3
433.196068E-3
432.901955E-3
432.748604E-3
432.465363E-3
432.285118E-3
432.025337E-3
431.961250E-3
432.007599E-3
432.357788E-3
433.343124E-3
434.967041E-3
437.197495E-3
439.663696E-3
442.240906E-3
444.683075E-3
446.386528E-3
447.406197E-3
447.924614E-3
447.819901E-3
447.279739E-3
446.464920E-3
445.501900E-3
444.517136E-3
443.658257E-3
442.788506E-3
442.037773E-3
441.576576E-3
441.344833E-3
441.277313E-3
441.448402E-3
441.482162E-3
441.576004E-3
441.557121E-3
441.687584E-3
441.576004E-3
441.181183E-3
440.634727E-3
440.100861E-3
439.543533E-3
439.201927E-3
439.003944E-3
439.072609E-3
439.200783E-3
439.312363E-3
439.363289E-3
439.573288E-3
439.583588E-3
439.603043E-3
439.482880E-3
439.225388E-3
438.890648E-3
438.600540E-3
438.331604E-3
437.934494E-3
437.485313E-3
437.181473E-3
436.810684E-3
436.579514E-3
436.265945E-3
436.073685E-3
435.741806E-3
435.470009E-3
435.224533E-3
435.052872E-3
434.914970E-3
434.767342E-3
434.650612E-3
434.633446E-3
434.358215E-3
434.275246E-3
434.270668E-3
434.156227E-3
434.029770E-3
433.874130E-3
433.798599E-3
433.724213E-3
433.569145E-3
433.567429E-3
433.521080E-3
433.393478E-3
433.325386E-3
433.150864E-3
433.034706E-3
432.968903E-3
432.952309E-3
432.713699E-3
432.615280E-3
432.462502E-3
432.387543E-3
432.242775E-3
432.144356E-3
431.841087E-3
431.597900E-3
431.569290E-3
431.248856E-3
430.936432E-3
430.638885E-3
430.561638E-3
430.327606E-3
430.139351E-3
430.061531E-3
430.145645E-3
430.744171E-3
431.815910E-3
433.683586E-3
435.967255E-3
438.393974E-3
440.781784E-3
442.675781E-3
444.121742E-3
444.998932E-3
445.383453E-3
445.170593E-3
444.585228E-3
443.754959E-3
442.851448E-3
441.891861E-3
441.071892E-3
440.430450E-3
439.881134E-3
439.666557E-3
439.476585E-3
439.244270E-3
439.411926E-3
439.520073E-3
439.599609E-3
439.723206E-3
439.706612E-3
439.487457E-3
438.878632E-3
438.386536E-3
437.818336E-3
437.540817E-3
437.334251E-3
437.267303E-3
437.354851E-3
437.441826E-3
437.732506E-3
437.654114E-3
437.896156E-3
438.039780E-3
438.040352E-3
438.014603E-3
437.735367E-3
437.468719E-3
437.247849E-3
436.830711E-3
436.500549E-3
436.158943E-3
435.790443E-3
435.584450E-3
435.273170E-3
435.055161E-3
434.845734E-3
434.638023E-3
434.488106E-3
434.485245E-3
434.322739E-3
434.125900E-3
434.022903E-3
433.935356E-3
433.745956E-3
433.638954E-3
433.655548E-3
433.596039E-3
433.498764E-3
433.403206E-3
433.420944E-3
433.312225E-3
433.230400E-3
433.214951E-3
433.143997E-3
433.065033E-3
433.065605E-3
432.925987E-3
432.924271E-3
432.814407E-3
432.671928E-3
432.587814E-3
432.477379E-3
432.389259E-3
432.465935E-3
432.317162E-3
432.148933E-3
432.033920E-3
431.965828E-3
431.834221E-3
431.691170E-3
431.550980E-3
431.427383E-3
431.104088E-3
431.030273E-3
430.974197E-3
430.756760E-3
430.652046E-3
430.535316E-3
430.298424E-3
430.200005E-3
430.303001E-3
430.820847E-3
431.691170E-3
433.304214E-3
435.512352E-3
438.131905E-3
440.786362E-3
443.128395E-3
445.067024E-3
446.505547E-3
447.164154E-3
447.331810E-3
447.045708E-3
446.317863E-3
445.501900E-3
444.560051E-3
443.646812E-3
442.925262E-3
442.463493E-3
442.184830E-3
441.960526E-3
441.915321E-3
442.085838E-3
442.223740E-3
442.434883E-3
442.592239E-3
442.652893E-3
442.642021E-3
442.277527E-3
441.915894E-3
441.284180E-3
440.723991E-3
440.190125E-3
439.839363E-3
439.645386E-3
439.584160E-3
439.498329E-3
439.732361E-3
439.779854E-3
439.805603E-3
439.869690E-3
439.855385E-3
439.708328E-3
439.419937E-3
439.113235E-3
438.832283E-3
438.458633E-3
438.197136E-3
437.932777E-3
437.662697E-3
437.369728E-3
437.001228E-3
436.727715E-3
436.498260E-3
436.214447E-3
436.175537E-3
436.029053E-3
435.759544E-3
435.594177E-3
435.515213E-3
435.423088E-3
435.306931E-3
435.359001E-3
435.209084E-3
434.973335E-3
434.988213E-3
434.866333E-3
434.818268E-3
434.724998E-3
434.604263E-3
434.611702E-3
434.472084E-3
434.500122E-3
434.493828E-3
434.253502E-3
434.096146E-3
433.939934E-3
433.883286E-3
433.716774E-3
433.719635E-3
433.469009E-3
433.436966E-3
433.265877E-3
433.177185E-3
433.034706E-3
432.933998E-3
432.830429E-3
432.790947E-3
432.673073E-3
432.520866E-3
432.422447E-3
432.225037E-3
432.131767E-3
432.007599E-3
431.881714E-3
431.779289E-3
431.564140E-3
431.406784E-3
431.046867E-3
431.011963E-3
430.812836E-3
430.728722E-3
430.713272E-3
430.740166E-3
431.130981E-3
432.289124E-3
434.155083E-3
436.446190E-3
438.971329E-3
441.559410E-3
443.655968E-3
445.219803E-3
446.305275E-3
446.692085E-3
446.404266E-3
445.842934E-3
444.922829E-3
443.920326E-3
442.948151E-3
442.133331E-3
441.371155E-3
440.811539E-3
440.416718E-3
440.252495E-3
440.175819E-3
440.043068E-3
440.257645E-3
440.393257E-3
440.548325E-3
440.563774E-3
440.444756E-3
439.989853E-3
439.466858E-3
438.732147E-3
437.859535E-3
437.483597E-3
437.318230E-3
437.274742E-3
437.266731E-3
437.279320E-3
437.244415E-3
437.296486E-3
437.179184E-3
436.919975E-3
436.762619E-3
436.369514E-3
435.813332E-3
435.280609E-3
434.605408E-3
434.026337E-3
433.429527E-3
432.942009E-3
432.619858E-3
432.150078E-3
431.566429E-3
431.112099E-3
430.613708E-3
429.944801E-3
429.303932E-3
428.880501E-3
428.639603E-3
428.829002E-3
428.764343E-3
428.671074E-3
428.473091E-3
428.249931E-3
428.030777E-3
427.844810E-3
427.740669E-3
427.698898E-3
427.806473E-3
427.672577E-3
427.605057E-3
427.460861E-3
427.424812E-3
427.380180E-3
427.364159E-3
427.379608E-3
427.499771E-3
427.474594E-3
427.399063E-3
427.292061E-3
427.104950E-3
427.015686E-3
426.805687E-3
426.780510E-3
426.527023E-3
426.616287E-3
426.522446E-3
426.364517E-3
426.261520E-3
426.083565E-3
425.990868E-3
425.843811E-3
425.675583E-3
425.392914E-3
425.260162E-3
425.238419E-3
424.971771E-3
424.798393E-3
424.622726E-3
424.414444E-3
424.289703E-3
424.217033E-3
424.390411E-3
424.916267E-3
426.053810E-3
427.940369E-3
430.167961E-3
432.639313E-3
434.878349E-3
436.866760E-3
