Notes :


2023-11-04 ¿ÀÈÄ 6:59:22
Volts
Ch : LED 2,
465.570259E-3
466.097832E-3
466.508675E-3
466.748428E-3
467.015648E-3
466.885757E-3
466.747856E-3
466.444016E-3
466.021729E-3
465.607452E-3
465.075302E-3
464.471626E-3
463.870811E-3
463.201904E-3
462.572479E-3
461.832047E-3
461.590576E-3
461.196899E-3
460.946274E-3
460.626984E-3
460.369492E-3
460.190964E-3
459.979820E-3
459.850502E-3
459.925461E-3
459.735489E-3
459.692574E-3
459.678841E-3
459.689140E-3
459.626770E-3
459.589577E-3
459.639359E-3
459.631920E-3
459.589577E-3
459.625053E-3
459.523773E-3
459.539223E-3
459.407043E-3
459.351540E-3
459.300041E-3
459.136963E-3
459.179306E-3
458.794212E-3
458.810234E-3
458.635712E-3
458.440018E-3
458.415985E-3
458.287239E-3
457.996559E-3
457.842064E-3
457.620049E-3
457.559395E-3
457.257843E-3
456.997490E-3
456.705666E-3
456.338882E-3
456.119156E-3
455.823898E-3
455.612183E-3
455.615044E-3
455.601311E-3
455.425644E-3
455.476570E-3
455.937767E-3
457.170868E-3
459.302902E-3
462.276649E-3
465.587997E-3
468.959427E-3
472.077942E-3
474.478912E-3
476.208115E-3
476.915932E-3
476.836395E-3
476.115990E-3
474.929237E-3
473.537064E-3
472.076797E-3
470.540428E-3
469.231796E-3
468.140602E-3
467.274857E-3
466.681480E-3
466.461754E-3
466.444016E-3
466.615105E-3
466.765594E-3
466.900063E-3
466.887474E-3
466.453171E-3
465.826035E-3
465.322495E-3
464.889336E-3
464.773750E-3
464.752007E-3
465.126801E-3
465.621185E-3
466.112137E-3
466.621971E-3
466.927528E-3
467.126083E-3
467.237091E-3
467.186737E-3
466.742134E-3
466.563034E-3
466.124725E-3
465.640640E-3
465.052986E-3
464.373207E-3
463.738632E-3
463.112640E-3
462.516403E-3
462.079811E-3
461.646080E-3
461.170006E-3
460.898781E-3
460.756874E-3
460.509682E-3
460.373497E-3
460.219574E-3
460.177803E-3
459.978104E-3
460.004425E-3
459.961510E-3
460.019875E-3
459.998703E-3
460.069084E-3
460.066795E-3
460.055351E-3
460.058212E-3
459.852219E-3
459.930611E-3
459.937477E-3
459.893990E-3
459.811592E-3
459.683418E-3
459.566116E-3
459.517479E-3
459.292603E-3
459.378433E-3
459.178734E-3
458.952713E-3
458.797646E-3
458.718681E-3
458.644295E-3
458.514404E-3
458.271790E-3
458.231735E-3
458.060646E-3
457.915306E-3
457.734489E-3
457.527924E-3
457.213783E-3
456.901932E-3
456.747437E-3
456.325722E-3
456.124306E-3
455.970955E-3
455.912018E-3
456.039619E-3
456.160927E-3
456.730843E-3
458.123016E-3
460.449600E-3
463.784409E-3
467.290878E-3
470.817375E-3
474.046326E-3
476.730537E-3
478.511238E-3
479.183578E-3
479.184151E-3
478.426552E-3
477.290154E-3
475.871658E-3
474.231148E-3
472.777176E-3
471.432495E-3
470.377922E-3
469.729614E-3
469.277000E-3
469.075012E-3
469.133377E-3
469.321060E-3
469.777679E-3
470.116997E-3
470.277786E-3
470.154190E-3
469.668961E-3
468.959999E-3
468.276787E-3
467.915154E-3
467.706871E-3
467.607307E-3
467.864799E-3
468.171501E-3
468.553734E-3
468.843269E-3
468.958855E-3
469.164276E-3
469.391441E-3
469.077301E-3
468.794632E-3
468.441582E-3
468.013573E-3
467.405891E-3
466.794777E-3
466.170502E-3
465.592575E-3
465.123367E-3
464.511108E-3
464.080238E-3
463.648796E-3
463.271141E-3
463.029099E-3
462.778473E-3
462.702942E-3
462.548447E-3
462.417984E-3
462.294388E-3
462.165642E-3
462.011719E-3
461.961937E-3
461.933899E-3
461.863518E-3
461.897278E-3
461.717606E-3
461.667824E-3
461.588860E-3
461.479568E-3
461.365700E-3
461.186028E-3
461.121368E-3
460.972595E-3
461.108208E-3
460.767746E-3
460.594368E-3
460.354614E-3
460.166359E-3
460.173798E-3
460.038757E-3
459.901428E-3
459.714890E-3
459.522057E-3
459.317207E-3
459.228516E-3
459.138680E-3
458.930397E-3
458.708954E-3
458.436012E-3
458.216286E-3
458.008003E-3
457.930183E-3
457.430649E-3
457.103348E-3
456.875610E-3
456.790924E-3
456.771469E-3
456.773758E-3
456.849289E-3
457.253838E-3
458.483505E-3
460.463905E-3
463.319206E-3
466.708946E-3
470.137596E-3
473.362541E-3
475.929451E-3
477.661514E-3
478.527832E-3
478.508949E-3
477.898979E-3
476.733398E-3
475.313187E-3
473.807716E-3
472.337151E-3
471.113777E-3
470.008850E-3
469.208908E-3
468.772888E-3
468.589783E-3
468.711662E-3
468.836975E-3
469.053841E-3
469.230652E-3
469.247246E-3
468.976021E-3
468.529129E-3
467.842484E-3
467.333221E-3
466.963577E-3
466.920090E-3
467.171288E-3
467.564392E-3
467.966080E-3
468.450737E-3
468.668747E-3
468.890190E-3
468.903923E-3
468.874168E-3
468.648148E-3
468.242455E-3
467.716599E-3
467.144394E-3
466.543007E-3
466.029739E-3
465.441513E-3
464.872169E-3
464.222145E-3
463.783264E-3
463.310623E-3
462.981033E-3
462.714386E-3
462.760735E-3
462.387085E-3
462.220573E-3
462.004852E-3
461.954498E-3
461.889267E-3
461.862373E-3
461.791992E-3
461.759949E-3
461.863518E-3
461.721039E-3
461.738205E-3
461.664391E-3
461.726189E-3
461.826324E-3
461.753654E-3
461.755943E-3
461.726189E-3
461.758232E-3
461.619186E-3
461.396599E-3
461.421204E-3
461.308479E-3
461.152267E-3
460.994911E-3
460.870171E-3
460.715103E-3
460.320854E-3
460.223579E-3
460.099983E-3
459.922600E-3
459.728050E-3
459.503174E-3
459.108353E-3
458.800507E-3
458.563042E-3
458.258629E-3
458.023453E-3
457.811737E-3
457.669258E-3
457.605743E-3
457.536507E-3
457.650375E-3
457.858086E-3
458.823395E-3
460.564041E-3
463.188171E-3
466.455460E-3
469.734764E-3
472.804070E-3
475.551224E-3
477.483559E-3
478.745270E-3
478.751564E-3
478.199387E-3
477.217484E-3
475.977516E-3
474.568748E-3
473.122787E-3
471.905708E-3
470.738411E-3
470.005989E-3
469.361115E-3
469.109917E-3
469.049835E-3
469.083023E-3
469.351959E-3
469.531631E-3
469.477844E-3
469.104767E-3
468.355751E-3
467.978096E-3
467.484856E-3
467.211342E-3
467.288589E-3
467.488289E-3
467.952347E-3
468.456459E-3
468.818665E-3
469.476700E-3
469.535065E-3
469.611740E-3
469.550514E-3
469.244957E-3
468.872452E-3
468.352318E-3
467.904282E-3
467.399597E-3
466.812515E-3
466.152763E-3
465.524483E-3
465.030098E-3
464.509964E-3
464.077950E-3
463.699150E-3
463.381577E-3
463.095474E-3
463.097191E-3
462.757874E-3
462.736130E-3
462.568474E-3
462.512398E-3
462.469482E-3
462.374496E-3
462.381363E-3
462.314415E-3
462.297249E-3
462.318420E-3
462.198257E-3
462.235451E-3
462.139893E-3
462.195396E-3
462.078667E-3
462.091255E-3
461.952782E-3
461.791992E-3
461.619759E-3
461.424065E-3
461.285591E-3
461.110497E-3
460.933113E-3
460.731697E-3
460.405540E-3
460.390091E-3
460.344887E-3
460.235596E-3
460.129166E-3
460.038185E-3
459.892845E-3
459.748077E-3
459.573555E-3
459.180450E-3
459.085464E-3
458.903503E-3
458.751297E-3
458.424568E-3
458.142471E-3
458.002853E-3
457.775116E-3
457.880402E-3
457.851791E-3
458.165932E-3
458.756447E-3
460.257339E-3
462.727547E-3
465.775681E-3
469.333649E-3
472.845268E-3
475.986099E-3
478.634262E-3
480.064774E-3
480.725098E-3
480.605507E-3
479.884529E-3
478.749847E-3
477.334213E-3
475.979805E-3
474.611664E-3
473.518753E-3
472.664452E-3
472.077942E-3
471.873093E-3
471.905708E-3
472.072220E-3
472.331429E-3
472.617531E-3
472.888756E-3
472.757721E-3
472.573471E-3
472.105980E-3
471.228790E-3
470.498657E-3
470.038033E-3
469.722748E-3
469.783401E-3
469.885826E-3
470.098114E-3
470.399666E-3
470.582771E-3
470.824242E-3
470.803642E-3
470.765877E-3
470.676613E-3
470.361328E-3
470.015144E-3
469.421768E-3
468.837547E-3
468.228722E-3
467.628479E-3
467.051125E-3
466.473770E-3
465.971947E-3
465.687561E-3
465.255547E-3
465.071869E-3
464.781189E-3
464.575768E-3
464.401245E-3
464.253616E-3
464.191818E-3
464.058495E-3
463.887978E-3
463.938904E-3
463.873672E-3
463.942337E-3
463.753510E-3
463.676834E-3
463.602448E-3
463.468552E-3
463.430214E-3
463.275719E-3
463.223076E-3
463.169289E-3
463.037682E-3
462.880898E-3
462.801933E-3
462.618828E-3
462.453461E-3
462.126732E-3
462.025452E-3
461.771965E-3
461.531639E-3
461.432076E-3
461.208344E-3
461.036110E-3
460.800362E-3
460.621834E-3
460.545158E-3
460.574341E-3
460.303688E-3
460.134888E-3
459.944344E-3
459.718895E-3
459.502029E-3
459.311485E-3
459.032249E-3
458.762741E-3
458.786201E-3
458.445740E-3
458.485222E-3
458.470345E-3
458.620262E-3
458.977318E-3
459.919739E-3
461.875534E-3
464.714241E-3
468.070793E-3
471.480560E-3
474.620247E-3
477.341652E-3
479.133797E-3
480.000114E-3
480.191803E-3
479.496002E-3
478.540993E-3
477.381706E-3
476.161766E-3
475.021362E-3
473.986244E-3
473.316193E-3
473.020935E-3
473.127937E-3
473.606300E-3
474.189377E-3
474.884605E-3
475.328064E-3
475.614738E-3
475.800133E-3
475.525475E-3
474.758720E-3
473.758507E-3
472.967148E-3
472.321701E-3
471.741486E-3
471.534920E-3
471.610451E-3
471.962357E-3
472.294235E-3
472.595215E-3
472.840691E-3
472.904778E-3
472.744560E-3
472.386360E-3
471.845627E-3
471.366119E-3
470.667458E-3
469.958496E-3
469.307899E-3
468.612099E-3
468.275642E-3
467.642784E-3
467.100334E-3
466.752434E-3
466.361618E-3
466.111565E-3
465.790558E-3
465.676117E-3
465.673828E-3
465.384293E-3
465.550232E-3
465.406609E-3
465.335083E-3
465.196609E-3
465.162277E-3
465.145683E-3
465.206909E-3
465.111923E-3
465.174866E-3
464.911652E-3
464.836121E-3
464.705086E-3
464.714813E-3
464.694214E-3
464.398956E-3
464.071083E-3
464.051056E-3
463.993835E-3
463.946342E-3
463.715744E-3
463.662529E-3
463.463974E-3
463.204765E-3
463.134384E-3
462.752151E-3
462.740707E-3
462.640572E-3
462.450600E-3
462.260056E-3
461.949921E-3
461.643791E-3
461.305618E-3
460.989189E-3
460.992622E-3
460.519409E-3
460.153198E-3
460.070801E-3
459.968376E-3
459.972954E-3
460.031319E-3
460.362625E-3
461.396027E-3
463.122368E-3
465.848923E-3
469.046974E-3
472.503662E-3
475.740623E-3
478.509521E-3
480.568886E-3
481.706429E-3
481.985092E-3
481.385994E-3
480.499077E-3
479.289436E-3
477.858925E-3
476.497078E-3
475.250816E-3
474.236298E-3
473.491287E-3
472.858429E-3
472.872734E-3
472.778320E-3
472.854424E-3
473.030663E-3
473.175430E-3
473.136520E-3
472.748566E-3
472.112846E-3
471.484566E-3
470.805931E-3
470.478058E-3
470.413971E-3
470.503807E-3
470.882034E-3
471.232796E-3
471.663666E-3
471.824455E-3
472.091675E-3
472.318840E-3
472.277069E-3
472.058487E-3
471.574974E-3
471.049118E-3
470.514679E-3
469.881821E-3
469.301033E-3
468.744850E-3
468.027306E-3
467.389297E-3
466.729546E-3
466.238594E-3
465.864372E-3
465.645790E-3
465.426064E-3
464.991760E-3
465.016937E-3
464.909363E-3
464.785194E-3
464.794350E-3
464.786339E-3
464.663315E-3
464.666748E-3
464.595795E-3
464.649010E-3
464.484787E-3
464.378929E-3
464.368629E-3
464.354897E-3
464.367485E-3
464.164352E-3
464.080238E-3
464.128876E-3
463.852501E-3
463.742638E-3
463.648796E-3
463.399315E-3
463.219643E-3
462.952995E-3
462.919807E-3
462.735558E-3
462.689209E-3
462.335587E-3
462.264061E-3
462.159348E-3
461.984825E-3
461.804008E-3
461.656380E-3
461.467552E-3
461.404610E-3
461.183167E-3
460.933113E-3
460.597229E-3
460.405540E-3
460.188675E-3
459.918022E-3
459.742928E-3
459.483147E-3
459.482574E-3
459.544373E-3
459.635353E-3
460.145760E-3
461.541367E-3
463.826752E-3
466.956139E-3
470.500946E-3
474.140739E-3
477.401733E-3
480.371475E-3
482.430840E-3
483.465385E-3
483.575249E-3
483.049965E-3
481.940460E-3
480.628395E-3
479.189301E-3
477.794838E-3
476.594925E-3
475.551224E-3
474.950409E-3
474.576759E-3
474.510384E-3
474.718094E-3
475.019073E-3
475.425339E-3
475.773239E-3
475.724602E-3
475.507164E-3
474.913788E-3
474.163055E-3
473.303604E-3
472.665596E-3
472.341728E-3
471.977234E-3
472.176933E-3
472.347450E-3
472.536850E-3
472.876167E-3
473.135948E-3
473.275566E-3
473.147964E-3
472.964287E-3
472.587204E-3
472.405243E-3
471.886826E-3
471.257401E-3
470.533562E-3
469.905281E-3
469.192314E-3
468.545151E-3
467.880821E-3
467.357254E-3
466.976166E-3
466.533279E-3
466.275787E-3
466.003990E-3
465.958786E-3
465.776825E-3
465.650368E-3
465.571976E-3
465.400887E-3
465.238380E-3
465.200615E-3
465.131950E-3
465.106201E-3
464.977455E-3
464.909935E-3
464.838409E-3
464.926529E-3
464.714813E-3
464.500809E-3
464.431000E-3
464.250183E-3
464.013290E-3
463.901711E-3
463.746071E-3
463.379860E-3
462.861443E-3
462.704086E-3
462.597084E-3
462.375641E-3
462.196541E-3
462.062645E-3
461.872101E-3
461.709595E-3
461.484718E-3
461.466980E-3
461.305618E-3
461.077309E-3
460.927963E-3
460.667038E-3
460.506821E-3
460.326576E-3
459.938049E-3
459.773254E-3
459.431076E-3
459.179878E-3
459.043121E-3
458.843422E-3
458.846283E-3
458.803940E-3
458.689499E-3
458.989906E-3
459.784126E-3
461.533928E-3
464.102554E-3
467.378426E-3
470.887184E-3
474.185944E-3
477.048683E-3
479.244232E-3
480.500793E-3
480.869865E-3
480.434418E-3
479.472542E-3
478.093529E-3
476.570320E-3
475.043678E-3
473.634338E-3
472.610664E-3
471.784973E-3
471.199608E-3
471.093178E-3
470.863152E-3
470.985031E-3
471.129799E-3
471.430779E-3
471.549797E-3
471.344376E-3
470.882034E-3
470.081520E-3
469.361687E-3
468.985176E-3
468.779755E-3
468.872452E-3
469.145393E-3
469.480133E-3
469.980240E-3
470.253181E-3
470.695496E-3
470.933533E-3
470.762444E-3
470.577049E-3
470.149612E-3
469.668388E-3
469.072723E-3
468.475914E-3
467.921448E-3
467.174721E-3
466.603088E-3
466.013145E-3
465.378571E-3
464.913368E-3
464.453316E-3
464.171219E-3
463.906860E-3
463.732338E-3
463.466835E-3
463.158417E-3
463.160133E-3
463.111496E-3
463.106918E-3
463.224792E-3
463.116074E-3
463.067436E-3
463.052559E-3
463.070297E-3
463.098335E-3
462.967873E-3
463.062286E-3
462.999344E-3
462.810516E-3
462.813950E-3
462.839127E-3
462.891769E-3
462.726974E-3
462.633705E-3
462.526131E-3
462.325287E-3
462.234879E-3
462.103844E-3
461.907005E-3
461.750221E-3
461.372566E-3
461.418343E-3
461.206055E-3
461.004066E-3
460.764885E-3
460.596085E-3
460.491371E-3
460.224724E-3
459.833336E-3
459.734917E-3
459.408760E-3
459.098053E-3
458.930969E-3
458.840561E-3
458.835411E-3
458.877182E-3
459.254265E-3
459.948349E-3
461.381721E-3
463.772964E-3
466.684914E-3
470.090103E-3
473.446655E-3
476.521683E-3
479.019928E-3
480.825233E-3
481.407738E-3
481.314468E-3
480.537987E-3
479.467964E-3
478.019714E-3
476.574898E-3
475.181007E-3
473.929596E-3
473.016930E-3
472.269058E-3
471.865654E-3
471.755219E-3
471.837616E-3
471.933174E-3
472.126007E-3
472.162628E-3
472.063637E-3
471.903992E-3
471.122932E-3
470.463181E-3
470.033455E-3
469.733047E-3
469.575119E-3
469.858360E-3
470.136452E-3
470.566177E-3
471.148109E-3
471.415901E-3
471.655655E-3
471.667671E-3
471.584129E-3
471.342087E-3
470.999336E-3
470.504951E-3
469.976234E-3
469.450378E-3
468.851280E-3
468.148041E-3
467.531776E-3
466.886330E-3
466.411400E-3
465.890121E-3
465.517616E-3
465.153122E-3
465.153122E-3
464.793205E-3
464.554024E-3
464.458466E-3
464.450455E-3
464.398956E-3
464.258766E-3
464.136887E-3
464.071083E-3
464.092255E-3
463.981819E-3
463.968658E-3
463.980675E-3
463.878822E-3
463.899994E-3
463.838196E-3
463.867950E-3
463.685417E-3
463.550949E-3
463.419342E-3
