Notes :


2023-10-26 ¿ÀÈÄ 10:21:56
Volts
Ch : LED 2,
513.537598E-3
513.979340E-3
513.408279E-3
514.657974E-3
514.029121E-3
513.990211E-3
514.230537E-3
513.313866E-3
514.032555E-3
513.044930E-3
512.836647E-3
512.955093E-3
512.204361E-3
513.220596E-3
512.480736E-3
512.449265E-3
512.948227E-3
512.132263E-3
513.195419E-3
512.330818E-3
512.401772E-3
512.612915E-3
511.514282E-3
512.506485E-3
511.461639E-3
511.253357E-3
511.188698E-3
510.102081E-3
511.043358E-3
510.084915E-3
510.098076E-3
510.165596E-3
509.052658E-3
510.199356E-3
509.422874E-3
509.441185E-3
509.581375E-3
508.430672E-3
509.636879E-3
509.036636E-3
509.036064E-3
509.165382E-3
508.294487E-3
509.299850E-3
508.397484E-3
508.210373E-3
508.620644E-3
507.436752E-3
508.565712E-3
507.966614E-3
508.007240E-3
508.147430E-3
506.944656E-3
508.070755E-3
507.311440E-3
507.274246E-3
507.490540E-3
505.538750E-3
507.168388E-3
506.732368E-3
506.752968E-3
507.003021E-3
505.789375E-3
506.933784E-3
506.406212E-3
506.057739E-3
506.238556E-3
505.218887E-3
506.385612E-3
505.777359E-3
505.688667E-3
506.060028E-3
504.283905E-3
505.756187E-3
505.221176E-3
505.115891E-3
505.002022E-3
504.004669E-3
505.372810E-3
504.713631E-3
504.655838E-3
504.754257E-3
503.818130E-3
504.981995E-3
504.454994E-3
504.669571E-3
505.605125E-3
505.663490E-3
508.493042E-3
509.387970E-3
510.879135E-3
512.557411E-3
512.759972E-3
514.603615E-3
514.400482E-3
514.211082E-3
514.144707E-3
512.488174E-3
513.495827E-3
512.537956E-3
511.955452E-3
512.051010E-3
510.868835E-3
512.143707E-3
511.548615E-3
511.528015E-3
512.025261E-3
511.056519E-3
512.350273E-3
512.088776E-3
511.998940E-3
512.225533E-3
510.797310E-3
511.733437E-3
510.813904E-3
510.483742E-3
510.611916E-3
509.226036E-3
510.400200E-3
510.157013E-3
509.896088E-3
510.312080E-3
509.248924E-3
510.483742E-3
510.191917E-3
509.730148E-3
510.120964E-3
508.747101E-3
509.849739E-3
509.339333E-3
508.767128E-3
508.981133E-3
507.536888E-3
508.717918E-3
508.101082E-3
507.653618E-3
508.087349E-3
506.964684E-3
508.236122E-3
507.767487E-3
507.618141E-3
507.864189E-3
506.732368E-3
508.018112E-3
507.600403E-3
507.083702E-3
507.476807E-3
506.614494E-3
507.983208E-3
507.403564E-3
507.107162E-3
507.459641E-3
506.679726E-3
507.810974E-3
507.536316E-3
507.073975E-3
507.374382E-3
506.512070E-3
507.819557E-3
507.078552E-3
506.359291E-3
506.751251E-3
505.953598E-3
507.077408E-3
506.751251E-3
506.072044E-3
506.648254E-3
506.058884E-3
507.190132E-3
506.710052E-3
506.045151E-3
506.175613E-3
505.554771E-3
506.605911E-3
506.195068E-3
505.834007E-3
506.169319E-3
505.572510E-3
506.635094E-3
506.180763E-3
505.723000E-3
506.058884E-3
505.468369E-3
506.521797E-3
506.045151E-3
505.363083E-3
505.661201E-3
504.888725E-3
505.963326E-3
505.532455E-3
504.991150E-3
505.373383E-3
504.801178E-3
506.041145E-3
505.528450E-3
505.301857E-3
506.560135E-3
507.132912E-3
509.801674E-3
510.932922E-3
511.985207E-3
513.914108E-3
514.133263E-3
515.948296E-3
515.744019E-3
515.084267E-3
515.285683E-3
514.186478E-3
514.841080E-3
513.687515E-3
512.874413E-3
512.606049E-3
511.957741E-3
513.017464E-3
512.503624E-3
512.007523E-3
512.895012E-3
512.541389E-3
513.656044E-3
513.554192E-3
512.959099E-3
513.317299E-3
512.440109E-3
513.354492E-3
513.022614E-3
512.170601E-3
512.563705E-3
511.996078E-3
512.975693E-3
512.944794E-3
512.392616E-3
512.783432E-3
512.188911E-3
513.156509E-3
512.667274E-3
512.133408E-3
512.531662E-3
511.698532E-3
512.488747E-3
511.720848E-3
511.200714E-3
511.416435E-3
510.676575E-3
511.255074E-3
510.656548E-3
510.076904E-3
510.582733E-3
509.786224E-3
510.631371E-3
510.048866E-3
509.574509E-3
510.146713E-3
509.028053E-3
509.988213E-3
509.536171E-3
508.927917E-3
509.384537E-3
508.747101E-3
509.434891E-3
509.028625E-3
508.294487E-3
508.641815E-3
507.896233E-3
508.764267E-3
508.471870E-3
507.701683E-3
507.884216E-3
507.060814E-3
507.925987E-3
507.660484E-3
506.667137E-3
507.053947E-3
506.362724E-3
507.000160E-3
506.532669E-3
506.005669E-3
506.410217E-3
505.427170E-3
506.237411E-3
505.721283E-3
505.222321E-3
505.462646E-3
504.824066E-3
505.623436E-3
505.197144E-3
504.131126E-3
504.353714E-3
504.117393E-3
504.818916E-3
504.241562E-3
503.602982E-3
504.092789E-3
503.330040E-3
504.119110E-3
503.435326E-3
502.480316E-3
503.197861E-3
502.520370E-3
503.480530E-3
503.133202E-3
502.543831E-3
503.685951E-3
503.826141E-3
506.030846E-3
506.976700E-3
507.910538E-3
510.051155E-3
510.706329E-3
512.702179E-3
512.923050E-3
511.680222E-3
512.487030E-3
511.557198E-3
512.033844E-3
511.243057E-3
510.059166E-3
510.178757E-3
509.260368E-3
509.774208E-3
509.452629E-3
508.604622E-3
509.529305E-3
508.896446E-3
509.762764E-3
509.865761E-3
509.193993E-3
509.683800E-3
508.872986E-3
509.367943E-3
508.886719E-3
507.198143E-3
508.049583E-3
507.471657E-3
508.469582E-3
508.182907E-3
507.681084E-3
508.418083E-3
507.940865E-3
508.874702E-3
508.537674E-3
507.753181E-3
508.347702E-3
507.684517E-3
508.325958E-3
507.930565E-3
506.843376E-3
507.346344E-3
506.589890E-3
507.130051E-3
506.739235E-3
505.847168E-3
506.423950E-3
505.661774E-3
506.326675E-3
505.773354E-3
505.007744E-3
505.400848E-3
504.789162E-3
505.547333E-3
505.478096E-3
504.009247E-3
505.018044E-3
504.618073E-3
505.546188E-3
505.378532E-3
504.209518E-3
504.994011E-3
504.497337E-3
505.319023E-3
505.125618E-3
504.389763E-3
505.332756E-3
504.404640E-3
505.156517E-3
504.878998E-3
503.985214E-3
504.920769E-3
504.000092E-3
504.589462E-3
504.239273E-3
503.365517E-3
504.329681E-3
503.454208E-3
504.218102E-3
504.032135E-3
503.121185E-3
504.088211E-3
503.149796E-3
503.915977E-3
503.580093E-3
502.739525E-3
504.029274E-3
502.858543E-3
503.318596E-3
503.103447E-3
502.364159E-3
503.399277E-3
502.419090E-3
503.236771E-3
503.038216E-3
501.969910E-3
503.139496E-3
502.055168E-3
502.749825E-3
502.481461E-3
501.537323E-3
502.738380E-3
501.938438E-3
502.451706E-3
502.589035E-3
502.554131E-3
504.871559E-3
505.055237E-3
507.247353E-3
508.447266E-3
509.467506E-3
511.960030E-3
511.839294E-3
512.784576E-3
512.553406E-3
511.417580E-3
512.531090E-3
510.701180E-3
510.681152E-3
510.003090E-3
508.802032E-3
509.647751E-3
508.344269E-3
508.906746E-3
508.898735E-3
508.226395E-3
509.802246E-3
508.745956E-3
509.421158E-3
509.632301E-3
508.973694E-3
510.028839E-3
508.759689E-3
509.037781E-3
508.973694E-3
508.132553E-3
509.463501E-3
508.232689E-3
508.688736E-3
509.029198E-3
508.260727E-3
509.476089E-3
508.187485E-3
508.584023E-3
508.656120E-3
507.952309E-3
509.584808E-3
508.169174E-3
508.279610E-3
508.160591E-3
506.700897E-3
508.077621E-3
506.823921E-3
506.969833E-3
506.997299E-3
506.259727E-3
507.611847E-3
506.548119E-3
506.713486E-3
506.964111E-3
506.159592E-3
507.607269E-3
506.186485E-3
506.381035E-3
506.572723E-3
505.803680E-3
507.055092E-3
506.132126E-3
506.526947E-3
506.659698E-3
506.141281E-3
507.341766E-3
506.211090E-3
506.396484E-3
506.600189E-3
505.837440E-3
507.047081E-3
505.943871E-3
506.219101E-3
506.358147E-3
505.840302E-3
507.168388E-3
506.191063E-3
506.315231E-3
506.360435E-3
505.578232E-3
506.518936E-3
505.215454E-3
505.380821E-3
505.608559E-3
504.965401E-3
506.191063E-3
505.055237E-3
505.361366E-3
505.321884E-3
504.615211E-3
505.595398E-3
504.333687E-3
504.541969E-3
504.755974E-3
503.787804E-3
505.088425E-3
504.193497E-3
504.438972E-3
504.586029E-3
503.913689E-3
504.832649E-3
503.814125E-3
504.145432E-3
504.322243E-3
503.997803E-3
505.130768E-3
504.135704E-3
504.880142E-3
505.850029E-3
506.434822E-3
508.793449E-3
509.176254E-3
510.903740E-3
512.287331E-3
512.908745E-3
514.759254E-3
513.924980E-3
514.403343E-3
514.427948E-3
513.491249E-3
513.838005E-3
512.130547E-3
511.522865E-3
511.228752E-3
509.944153E-3
510.972404E-3
509.814262E-3
510.381317E-3
510.745811E-3
510.412216E-3
511.913681E-3
510.983849E-3
511.590958E-3
511.533737E-3
510.380173E-3
511.267090E-3
509.769630E-3
509.794235E-3
509.737015E-3
509.402847E-3
510.574722E-3
509.699821E-3
510.409927E-3
510.633087E-3
509.959030E-3
511.005592E-3
509.864044E-3
510.028267E-3
509.755325E-3
508.962250E-3
509.770203E-3
508.648682E-3
508.718491E-3
508.774567E-3
507.885933E-3
508.713341E-3
507.464790E-3
507.392120E-3
507.222176E-3
506.390762E-3
507.530022E-3
506.561852E-3
506.480598E-3
506.728935E-3
506.227112E-3
507.390404E-3
506.352997E-3
506.286621E-3
506.285477E-3
505.702972E-3
506.446266E-3
505.372810E-3
505.473518E-3
505.480385E-3
504.983711E-3
505.950737E-3
505.074120E-3
505.373383E-3
505.431747E-3
504.493904E-3
505.498123E-3
504.490471E-3
504.385185E-3
504.432678E-3
503.770065E-3
504.751968E-3
503.793526E-3
503.761482E-3
504.009247E-3
503.441048E-3
504.312515E-3
503.184700E-3
503.223038E-3
503.387260E-3
502.750397E-3
503.808403E-3
502.989006E-3
502.866554E-3
503.077126E-3
502.424812E-3
503.394127E-3
502.297211E-3
502.283478E-3
502.189636E-3
501.363945E-3
502.734947E-3
501.759338E-3
502.199364E-3
502.094650E-3
500.828362E-3
503.109169E-3
502.989006E-3
504.349709E-3
505.785370E-3
506.614494E-3
509.320450E-3
509.706116E-3
510.690880E-3
511.869621E-3
511.360931E-3
512.473869E-3
511.276817E-3
510.670280E-3
510.295486E-3
509.248924E-3
509.508705E-3
508.036995E-3
507.973480E-3
507.967758E-3
507.536316E-3
508.866692E-3
508.147430E-3
508.624077E-3
508.964539E-3
508.384895E-3
509.312439E-3
508.149719E-3
507.876778E-3
507.781219E-3
506.834793E-3
507.611847E-3
507.021332E-3
507.198143E-3
507.674217E-3
507.230759E-3
508.636665E-3
508.158875E-3
508.550835E-3
508.719635E-3
507.855606E-3
508.684158E-3
507.548904E-3
507.402420E-3
507.542038E-3
506.549835E-3
507.490540E-3
506.829643E-3
506.858826E-3
507.081413E-3
506.080055E-3
507.313728E-3
506.379890E-3
506.283188E-3
506.417084E-3
505.296135E-3
506.367302E-3
505.653191E-3
505.821419E-3
506.133842E-3
505.268097E-3
506.440544E-3
505.749893E-3
505.677223E-3
505.822563E-3
504.658127E-3
505.672073E-3
505.118179E-3
505.272102E-3
505.629730E-3
504.507065E-3
505.487251E-3
505.123329E-3
504.941940E-3
505.346489E-3
504.143143E-3
505.321312E-3
504.752541E-3
504.668427E-3
504.939079E-3
503.845024E-3
504.988289E-3
504.316521E-3
504.101944E-3
504.072189E-3
502.756691E-3
503.985214E-3
503.376389E-3
503.318024E-3
503.551483E-3
502.682304E-3
504.129982E-3
503.640175E-3
503.571510E-3
503.677940E-3
502.448845E-3
503.562927E-3
502.618217E-3
502.162743E-3
502.355576E-3
501.141930E-3
502.456856E-3
501.942444E-3
501.884651E-3
502.352142E-3
501.702118E-3
503.766060E-3
504.144859E-3
505.300713E-3
507.135773E-3
507.746887E-3
510.223961E-3
510.692024E-3
511.030197E-3
511.534882E-3
510.234833E-3
511.239052E-3
510.219955E-3
509.354210E-3
508.989143E-3
507.612419E-3
508.457565E-3
507.602692E-3
507.368088E-3
507.574654E-3
506.468010E-3
507.964897E-3
507.588387E-3
507.698250E-3
508.180618E-3
507.239914E-3
508.518791E-3
508.228111E-3
507.955742E-3
507.972336E-3
506.775856E-3
508.016396E-3
507.594681E-3
507.176971E-3
507.568932E-3
506.551552E-3
508.047295E-3
507.851028E-3
507.794380E-3
508.165741E-3
507.604408E-3
509.119034E-3
508.934212E-3
508.106804E-3
508.396339E-3
507.197571E-3
508.263016E-3
507.866478E-3
507.278824E-3
507.572937E-3
506.537247E-3
508.073044E-3
507.805824E-3
507.483101E-3
507.786369E-3
506.754112E-3
508.105659E-3
507.499695E-3
506.961250E-3
506.982994E-3
505.956459E-3
507.487106E-3
506.851959E-3
506.708336E-3
507.418442E-3
506.758118E-3
508.206940E-3
507.571793E-3
507.009315E-3
507.285118E-3
506.415939E-3
507.260513E-3
506.643677E-3
505.937576E-3
506.369019E-3
505.808830E-3
506.937218E-3
506.683159E-3
506.265450E-3
506.743813E-3
506.087494E-3
507.057381E-3
506.327820E-3
505.614281E-3
505.918121E-3
504.996872E-3
505.907822E-3
505.414581E-3
504.990005E-3
505.404854E-3
504.912758E-3
506.173897E-3
505.921555E-3
505.174255E-3
505.411720E-3
504.487610E-3
505.442619E-3
504.925346E-3
504.117393E-3
504.357147E-3
503.932571E-3
505.269241E-3
505.151367E-3
504.941940E-3
506.100655E-3
506.572723E-3
508.897591E-3
509.901237E-3
510.585594E-3
512.145424E-3
512.360001E-3
514.062309E-3
513.801384E-3
513.472939E-3
513.779068E-3
512.907600E-3
513.651466E-3
512.753677E-3
511.973190E-3
512.014389E-3
511.067390E-3
511.735725E-3
511.031914E-3
510.432243E-3
510.604477E-3
510.252571E-3
511.600113E-3
511.511421E-3
511.051941E-3
511.408424E-3
510.503769E-3
511.234474E-3
510.651398E-3
509.573936E-3
510.063171E-3
509.378242E-3
510.360718E-3
510.298920E-3
509.775925E-3
510.335541E-3
509.826851E-3
510.760117E-3
510.386467E-3
510.009956E-3
510.457420E-3
509.340477E-3
509.843445E-3
509.178543E-3
507.928276E-3
508.492470E-3
507.678795E-3
508.474731E-3
508.027267E-3
507.518005E-3
508.219528E-3
507.400703E-3
508.287048E-3
508.031845E-3
507.100296E-3
507.476234E-3
506.453133E-3
506.949234E-3
506.411362E-3
505.413437E-3
505.767632E-3
505.139923E-3
505.967903E-3
505.739594E-3
505.387115E-3
505.981064E-3
505.177116E-3
505.975342E-3
505.440331E-3
504.701042E-3
505.035782E-3
503.932571E-3
504.577446E-3
503.858757E-3
503.472519E-3
503.975487E-3
503.265953E-3
504.341698E-3
503.933144E-3
503.346062E-3
503.897095E-3
502.983284E-3
503.732872E-3
502.970123E-3
502.136993E-3
502.788734E-3
501.906967E-3
502.730370E-3
502.267456E-3
501.067543E-3
502.056885E-3
501.378250E-3
502.413368E-3
502.009964E-3
501.258659E-3
501.730728E-3
501.236916E-3
502.078056E-3
502.138710E-3
502.374458E-3
504.236412E-3
505.275536E-3
508.076477E-3
509.584808E-3
510.463715E-3
512.313080E-3
512.300491E-3
513.317299E-3
512.801743E-3
511.566925E-3
511.284828E-3
510.403633E-3
510.663414E-3
509.884071E-3
509.054947E-3
509.483528E-3
509.105873E-3
510.078621E-3
510.002518E-3
509.512138E-3
510.183907E-3
509.575081E-3
510.550690E-3
510.452843E-3
509.468079E-3
509.960175E-3
509.173393E-3
509.884071E-3
509.498405E-3
508.861542E-3
509.402275E-3
508.936501E-3
509.853172E-3
509.493256E-3
508.826065E-3
509.568787E-3
508.779716E-3
509.487534E-3
509.179687E-3
508.398628E-3
508.738518E-3
507.931137E-3
508.610916E-3
508.006096E-3
506.989861E-3
507.606697E-3
506.598473E-3
507.210159E-3
506.936646E-3
506.059456E-3
506.706619E-3
505.944443E-3
506.862831E-3
506.523514E-3
505.660057E-3
506.601334E-3
505.451202E-3
506.178474E-3
505.791092E-3
504.894447E-3
505.903816E-3
504.975700E-3
505.724716E-3
505.590820E-3
504.854965E-3
506.229973E-3
505.228043E-3
505.653191E-3
505.297279E-3
503.374672E-3
505.152512E-3
504.383469E-3
504.985428E-3
504.801178E-3
503.982925E-3
505.289841E-3
504.269600E-3
504.915619E-3
504.669571E-3
503.973198E-3
504.968834E-3
503.884506E-3
504.400635E-3
504.033852E-3
503.352356E-3
504.551125E-3
503.458786E-3
504.267311E-3
504.144287E-3
503.406143E-3
504.782867E-3
503.402710E-3
503.868484E-3
503.628731E-3
502.609062E-3
