Notes :


2023-11-13 ¿ÀÀü 12:14:47
Volts
Ch : LED 2,
994.409180E-3
994.334221E-3
993.766594E-3
993.909645E-3
993.992043E-3
993.642426E-3
993.665314E-3
993.493652E-3
993.290520E-3
993.069077E-3
992.707443E-3
992.897987E-3
992.506599E-3
991.928673E-3
991.696930E-3
991.612816E-3
991.654587E-3
991.564751E-3
991.802788E-3
992.604446E-3
993.717384E-3
996.289444E-3
998.909569E-3
1.001422E+0
1.003800E+0
1.005707E+0
1.007094E+0
1.008079E+0
1.008057E+0
1.007950E+0
1.007282E+0
1.006767E+0
1.006026E+0
1.005270E+0
1.004672E+0
1.004196E+0
1.003782E+0
1.003568E+0
1.003484E+0
1.003694E+0
1.003792E+0
1.003893E+0
1.003900E+0
1.003756E+0
1.003750E+0
1.003431E+0
1.002849E+0
1.002072E+0
1.001264E+0
1.000758E+0
1.000287E+0
1.000193E+0
1.000283E+0
1.000471E+0
1.000931E+0
1.001039E+0
1.001353E+0
1.001401E+0
1.001464E+0
1.001551E+0
1.001520E+0
1.001320E+0
1.001178E+0
1.000040E+0
1.000574E+0
1.000457E+0
1.000582E+0
1.000352E+0
1.000095E+0
999.874878E-3
999.390221E-3
999.183655E-3
999.109840E-3
998.760796E-3
998.736191E-3
998.503304E-3
998.316193E-3
998.087311E-3
997.869301E-3
997.837830E-3
997.527695E-3
997.336578E-3
997.112274E-3
996.843338E-3
996.818733E-3
996.411896E-3
996.258545E-3
996.096039E-3
995.328712E-3
995.624542E-3
995.540428E-3
995.538139E-3
995.372200E-3
995.219994E-3
995.245171E-3
995.179939E-3
995.009422E-3
995.239449E-3
994.987106E-3
994.953918E-3
994.763947E-3
994.718742E-3
994.518471E-3
994.322205E-3
994.201469E-3
993.840981E-3
993.321419E-3
993.462753E-3
993.284798E-3
993.251610E-3
993.201828E-3
993.491936E-3
994.110489E-3
995.468330E-3
997.472191E-3
999.044037E-3
1.002129E+0
1.005004E+0
1.006974E+0
1.008811E+0
1.009760E+0
1.010385E+0
1.010531E+0
1.010092E+0
1.009677E+0
1.008911E+0
1.008242E+0
1.007735E+0
1.007264E+0
1.007205E+0
1.006863E+0
1.005927E+0
1.006421E+0
1.006637E+0
1.006927E+0
1.006929E+0
1.006961E+0
1.007086E+0
1.006868E+0
1.006543E+0
1.005713E+0
1.004898E+0
1.004162E+0
1.003425E+0
1.003110E+0
1.002835E+0
1.002826E+0
1.002912E+0
1.003096E+0
1.003035E+0
1.003310E+0
1.003550E+0
1.003630E+0
1.003492E+0
1.003508E+0
1.003092E+0
1.002798E+0
1.002670E+0
1.001769E+0
1.001811E+0
1.001531E+0
1.001324E+0
1.001127E+0
1.000781E+0
1.000623E+0
1.000408E+0
1.000210E+0
999.641418E-3
999.781609E-3
999.567604E-3
999.305534E-3
999.276924E-3
999.046326E-3
998.666382E-3
997.636986E-3
997.863007E-3
997.830963E-3
997.821236E-3
997.568893E-3
997.629547E-3
997.349167E-3
997.324562E-3
997.130585E-3
995.969582E-3
996.487427E-3
996.546936E-3
996.389580E-3
996.292305E-3
996.272278E-3
996.218491E-3
996.304321E-3
996.148682E-3
996.432495E-3
995.903206E-3
995.687485E-3
995.704079E-3
995.440865E-3
995.624542E-3
995.286942E-3
995.282936E-3
995.002556E-3
995.032883E-3
994.856071E-3
994.410324E-3
994.148254E-3
993.788338E-3
993.570328E-3
993.420410E-3
993.160057E-3
993.153191E-3
993.122292E-3
993.748856E-3
995.022583E-3
996.776390E-3
999.177361E-3
1.001888E+0
1.004444E+0
1.006809E+0
1.008495E+0
1.009887E+0
1.010580E+0
1.010668E+0
1.010554E+0
1.009930E+0
1.009286E+0
1.008715E+0
1.008238E+0
1.007601E+0
1.006923E+0
1.006736E+0
1.006627E+0
1.006685E+0
1.006615E+0
1.006602E+0
1.006664E+0
1.006952E+0
1.006647E+0
1.006377E+0
1.005949E+0
1.005450E+0
1.004536E+0
1.003629E+0
1.002770E+0
1.002023E+0
1.000896E+0
1.001008E+0
1.000601E+0
1.001014E+0
1.001268E+0
1.001549E+0
1.001588E+0
1.001581E+0
1.001557E+0
1.002545E+0
1.001641E+0
1.001170E+0
1.000820E+0
1.000476E+0
1.001449E+0
1.000388E+0
999.884605E-3
999.544144E-3
999.436569E-3
999.033165E-3
999.113846E-3
998.917007E-3
997.658157E-3
998.372841E-3
998.509026E-3
998.587418E-3
998.484993E-3
997.237015E-3
997.895622E-3
997.913361E-3
998.001480E-3
997.869301E-3
997.254753E-3
997.496223E-3
997.350883E-3
997.468185E-3
997.291946E-3
997.330856E-3
997.301674E-3
996.890831E-3
996.826744E-3
996.584129E-3
996.594429E-3
996.010208E-3
996.005058E-3
995.746422E-3
995.774460E-3
995.558167E-3
995.484352E-3
995.226288E-3
995.059204E-3
994.827461E-3
994.470406E-3
994.215202E-3
994.044685E-3
993.821526E-3
993.443871E-3
993.054771E-3
992.671394E-3
992.437935E-3
992.186165E-3
993.196678E-3
991.925812E-3
991.525841E-3
991.193390E-3
991.267776E-3
991.418839E-3
992.065430E-3
993.411255E-3
995.195961E-3
997.714806E-3
1.000174E+0
1.002517E+0
1.004331E+0
1.005844E+0
1.006919E+0
1.007506E+0
1.007234E+0
1.006928E+0
1.006343E+0
1.005806E+0
1.005141E+0
1.004468E+0
1.003899E+0
1.003485E+0
1.003314E+0
1.004321E+0
1.003663E+0
1.003545E+0
1.003730E+0
1.004059E+0
1.003987E+0
1.003879E+0
1.003598E+0
1.002956E+0
1.002351E+0
1.001609E+0
1.001050E+0
999.831963E-3
1.000257E+0
1.000542E+0
1.000844E+0
1.001054E+0
1.001555E+0
1.001836E+0
1.001967E+0
1.001917E+0
1.001771E+0
1.001597E+0
1.001446E+0
1.001119E+0
1.000760E+0
1.000416E+0
1.001256E+0
1.000111E+0
999.512672E-3
999.212265E-3
998.853493E-3
998.477554E-3
998.167419E-3
998.204613E-3
997.669601E-3
997.241020E-3
997.144318E-3
996.966934E-3
996.882248E-3
996.647644E-3
996.671104E-3
996.337509E-3
997.106552E-3
996.143532E-3
995.747566E-3
995.355606E-3
995.272064E-3
995.147896E-3
995.023155E-3
994.915581E-3
994.622612E-3
993.451309E-3
993.876457E-3
994.165421E-3
994.213486E-3
994.060707E-3
994.234085E-3
994.044113E-3
994.184875E-3
994.028664E-3
992.864227E-3
993.584061E-3
993.198967E-3
993.617821E-3
993.487358E-3
993.348885E-3
993.190384E-3
992.835617E-3
992.487717E-3
992.733765E-3
992.195320E-3
992.068291E-3
992.048836E-3
992.154121E-3
992.546082E-3
993.572617E-3
995.545006E-3
997.625542E-3
1.000052E+0
1.002803E+0
1.005161E+0
1.007187E+0
1.008484E+0
1.009415E+0
1.009565E+0
1.009601E+0
1.009266E+0
1.008610E+0
1.007926E+0
1.007211E+0
1.006730E+0
1.006401E+0
1.005968E+0
1.005664E+0
1.005162E+0
1.005295E+0
1.005452E+0
1.005658E+0
1.005606E+0
1.005640E+0
1.005487E+0
1.005009E+0
1.004677E+0
1.004703E+0
1.003532E+0
1.002571E+0
1.001840E+0
1.001306E+0
1.001043E+0
1.001160E+0
1.001218E+0
1.001544E+0
1.001562E+0
1.001727E+0
1.001817E+0
1.001768E+0
1.002006E+0
1.001661E+0
1.000405E+0
1.000787E+0
1.000840E+0
1.000646E+0
1.000172E+0
999.889183E-3
999.602509E-3
999.411392E-3
998.903847E-3
998.832321E-3
998.870659E-3
998.604012E-3
998.447800E-3
998.257256E-3
997.856712E-3
997.711945E-3
997.540855E-3
997.149467E-3
997.038460E-3
997.615814E-3
996.814728E-3
996.503448E-3
996.331787E-3
996.082306E-3
995.829391E-3
995.710373E-3
995.495796E-3
995.864868E-3
995.388794E-3
995.043755E-3
994.968796E-3
994.867516E-3
994.652367E-3
994.462967E-3
994.263840E-3
994.343376E-3
994.171715E-3
993.874168E-3
993.954277E-3
993.634415E-3
993.508530E-3
993.424988E-3
993.307114E-3
993.300819E-3
993.129158E-3
992.918015E-3
992.765236E-3
992.519760E-3
992.704010E-3
992.068863E-3
991.764450E-3
991.567612E-3
991.244888E-3
991.008568E-3
990.961647E-3
991.203690E-3
991.821671E-3
992.909431E-3
993.822098E-3
996.852493E-3
999.810791E-3
1.002540E+0
1.004903E+0
1.006930E+0
1.009061E+0
1.009420E+0
1.009425E+0
1.009222E+0
1.008917E+0
1.008286E+0
1.007694E+0
1.007085E+0
1.006533E+0
1.005967E+0
1.005860E+0
1.005813E+0
1.005833E+0
1.005941E+0
1.006148E+0
1.006178E+0
1.006500E+0
1.006545E+0
1.006591E+0
1.006354E+0
1.005872E+0
1.005155E+0
1.004422E+0
1.003549E+0
1.003051E+0
1.003269E+0
1.002619E+0
1.002448E+0
1.002387E+0
1.002649E+0
1.002750E+0
1.002755E+0
1.002933E+0
1.002778E+0
1.003008E+0
1.002520E+0
1.002417E+0
1.002120E+0
1.001672E+0
1.001410E+0
1.001232E+0
1.000972E+0
1.000626E+0
1.000407E+0
1.000179E+0
999.617958E-3
999.390793E-3
999.183083E-3
998.819160E-3
998.570251E-3
998.331070E-3
998.053551E-3
998.034668E-3
997.481346E-3
997.301674E-3
996.994972E-3
996.776390E-3
996.577263E-3
996.267700E-3
996.065712E-3
995.818520E-3
995.985031E-3
995.512390E-3
995.198250E-3
994.960785E-3
994.829750E-3
994.695854E-3
994.665527E-3
994.499016E-3
994.405746E-3
994.362259E-3
994.334221E-3
994.212341E-3
994.234657E-3
994.145393E-3
994.034386E-3
993.881607E-3
994.604301E-3
993.881035E-3
993.705940E-3
993.360901E-3
993.043327E-3
992.990112E-3
992.574120E-3
992.272568E-3
992.119789E-3
992.889404E-3
992.257690E-3
992.103195E-3
992.338371E-3
993.372917E-3
994.925880E-3
997.153473E-3
999.496651E-3
1.001877E+0
1.003833E+0
1.005544E+0
1.006875E+0
1.007418E+0
1.007635E+0
1.007402E+0
1.006943E+0
1.006297E+0
1.005438E+0
1.004229E+0
1.003987E+0
1.003556E+0
1.003171E+0
1.002993E+0
1.003076E+0
1.003158E+0
1.003130E+0
1.003266E+0
1.003772E+0
1.003527E+0
1.003196E+0
1.002683E+0
1.002092E+0
1.001264E+0
1.000939E+0
1.000570E+0
1.000336E+0
1.000756E+0
1.000691E+0
1.001075E+0
1.001342E+0
1.001690E+0
1.002061E+0
1.002252E+0
1.002237E+0
1.002322E+0
1.002064E+0
1.001969E+0
1.001603E+0
1.001295E+0
1.001075E+0
1.000673E+0
1.000356E+0
999.665451E-3
999.661446E-3
999.552727E-3
999.264336E-3
999.136162E-3
998.894119E-3
998.766518E-3
998.597717E-3
998.355103E-3
998.628616E-3
998.085022E-3
997.793770E-3
997.515678E-3
997.097397E-3
996.997833E-3
996.680260E-3
996.568680E-3
996.459389E-3
995.970726E-3
995.969582E-3
995.802498E-3
995.583344E-3
995.384789E-3
995.229149E-3
995.064354E-3
994.821167E-3
994.787979E-3
994.858932E-3
994.549942E-3
994.583702E-3
994.303322E-3
994.202614E-3
994.210625E-3
994.091034E-3
993.993759E-3
993.833542E-3
994.125366E-3
993.507385E-3
993.142319E-3
992.796707E-3
992.441940E-3
992.300606E-3
992.136383E-3
991.932678E-3
992.098618E-3
992.384148E-3
993.523979E-3
995.158195E-3
997.413826E-3
1.000103E+0
1.002622E+0
1.005015E+0
1.007310E+0
1.008547E+0
1.009422E+0
1.009569E+0
1.009365E+0
1.008905E+0
1.008319E+0
1.007613E+0
1.007109E+0
1.006561E+0
1.006194E+0
1.005554E+0
1.005684E+0
1.005597E+0
1.005793E+0
1.005805E+0
1.005888E+0
1.006122E+0
1.006446E+0
1.006428E+0
1.005987E+0
1.005612E+0
1.004993E+0
1.004059E+0
1.003338E+0
1.002797E+0
1.002264E+0
1.002731E+0
1.002174E+0
1.002179E+0
1.002418E+0
1.002470E+0
1.002612E+0
1.002662E+0
1.002935E+0
1.002731E+0
1.002600E+0
1.002417E+0
1.002104E+0
1.001782E+0
1.001580E+0
1.001190E+0
1.000960E+0
1.000767E+0
1.000406E+0
1.000233E+0
999.988174E-3
999.845695E-3
999.625969E-3
999.466324E-3
999.247742E-3
999.146461E-3
999.294662E-3
998.696709E-3
998.576546E-3
998.289299E-3
997.993469E-3
997.863007E-3
997.643280E-3
997.493362E-3
997.305679E-3
997.084808E-3
996.865654E-3
996.293449E-3
996.330643E-3
996.206474E-3
996.342659E-3
996.098328E-3
995.903206E-3
995.891190E-3
995.593071E-3
995.808220E-3
995.822525E-3
995.828819E-3
995.606804E-3
995.490646E-3
995.246315E-3
995.258904E-3
995.040321E-3
995.280075E-3
994.870377E-3
994.525909E-3
994.270706E-3
994.056702E-3
993.671036E-3
993.218422E-3
992.883682E-3
992.635345E-3
992.079163E-3
992.179871E-3
992.445946E-3
993.362617E-3
994.763947E-3
996.778679E-3
999.231148E-3
1.002753E+0
1.004455E+0
1.006514E+0
1.007960E+0
1.008900E+0
1.010502E+0
1.009813E+0
1.009455E+0
1.008818E+0
1.008128E+0
1.007524E+0
1.006955E+0
1.006595E+0
1.006567E+0
1.006159E+0
1.006008E+0
1.006021E+0
1.006095E+0
1.006075E+0
1.006007E+0
1.006124E+0
1.005952E+0
1.005801E+0
1.005214E+0
1.004484E+0
1.003766E+0
1.002957E+0
1.002452E+0
1.001880E+0
1.001754E+0
1.001689E+0
1.001705E+0
1.001855E+0
1.001883E+0
1.002077E+0
1.002204E+0
1.001998E+0
1.002061E+0
1.001870E+0
1.001571E+0
1.001496E+0
1.001164E+0
1.000901E+0
1.000562E+0
1.000241E+0
999.398232E-3
999.460602E-3
999.498940E-3
999.390221E-3
999.182510E-3
998.803711E-3
998.571396E-3
998.456955E-3
998.241234E-3
998.178864E-3
998.149109E-3
997.690201E-3
997.467041E-3
997.342873E-3
997.142601E-3
996.922302E-3
997.238159E-3
996.792984E-3
996.384430E-3
996.082878E-3
996.133804E-3
995.684052E-3
995.682335E-3
995.394516E-3
995.360756E-3
995.110130E-3
995.121574E-3
995.079231E-3
994.931602E-3
994.861221E-3
994.833755E-3
994.724464E-3
994.528770E-3
994.347382E-3
994.312477E-3
994.034386E-3
993.515396E-3
993.554306E-3
993.360901E-3
993.078232E-3
992.950630E-3
992.723465E-3
992.674255E-3
992.138672E-3
992.123795E-3
992.532921E-3
993.153191E-3
994.627762E-3
996.585274E-3
999.070930E-3
1.001359E+0
1.004053E+0
1.005518E+0
1.006729E+0
1.007528E+0
1.007912E+0
1.007786E+0
1.007518E+0
1.006950E+0
1.006742E+0
1.005968E+0
1.005180E+0
1.004700E+0
1.004264E+0
1.003940E+0
1.003874E+0
1.003877E+0
1.004184E+0
1.004462E+0
1.004437E+0
1.004452E+0
1.004375E+0
1.003933E+0
1.003167E+0
1.002411E+0
1.001838E+0
1.001384E+0
1.001148E+0
1.001270E+0
1.001327E+0
1.001529E+0
1.001847E+0
1.002214E+0
1.002429E+0
1.002572E+0
1.002626E+0
1.002692E+0
1.002581E+0
1.002153E+0
1.001719E+0
1.001628E+0
1.001258E+0
1.000984E+0
1.000707E+0
1.000373E+0
1.000671E+0
1.000117E+0
999.821663E-3
999.458313E-3
999.200249E-3
999.058342E-3
998.787117E-3
998.652649E-3
998.460960E-3
998.696136E-3
998.256683E-3
997.999191E-3
997.660446E-3
997.472191E-3
997.282791E-3
997.174644E-3
996.844482E-3
996.731186E-3
997.265053E-3
996.808434E-3
996.559525E-3
996.280289E-3
996.364403E-3
996.177864E-3
996.050262E-3
996.137238E-3
996.038818E-3
996.087456E-3
995.938110E-3
995.808220E-3
995.735550E-3
995.562744E-3
995.428848E-3
995.312119E-3
995.405388E-3
995.031166E-3
994.538498E-3
994.428062E-3
994.120789E-3
993.795204E-3
993.749428E-3
993.671608E-3
993.995476E-3
995.142746E-3
996.372986E-3
998.301888E-3
1.000725E+0
1.003374E+0
1.005786E+0
1.007766E+0
1.009268E+0
1.010116E+0
1.010791E+0
1.010542E+0
1.010224E+0
1.009575E+0
1.009026E+0
1.008399E+0
1.007846E+0
1.007339E+0
1.007188E+0
1.007522E+0
1.007124E+0
1.007084E+0
1.006983E+0
1.007078E+0
1.007033E+0
1.007228E+0
1.007179E+0
1.006978E+0
1.007114E+0
1.006129E+0
1.005373E+0
1.004493E+0
1.003915E+0
1.003516E+0
1.003207E+0
1.003847E+0
1.003433E+0
1.003404E+0
1.003789E+0
1.003771E+0
1.003958E+0
1.003848E+0
1.003812E+0
1.003868E+0
