Notes :


2023-10-26 ¿ÀÈÄ 10:37:09
Volts
Ch : LED 2,
397.100258E-3
396.902275E-3
396.538353E-3
397.125435E-3
396.454239E-3
398.019218E-3
397.845268E-3
396.735191E-3
397.377205E-3
396.843910E-3
397.390938E-3
395.468330E-3
392.728615E-3
390.336227E-3
386.537361E-3
384.457397E-3
381.213570E-3
378.551674E-3
378.095055E-3
377.069092E-3
378.362274E-3
378.360558E-3
378.758812E-3
380.125809E-3
380.474854E-3
382.274437E-3
382.414055E-3
382.276726E-3
382.740211E-3
382.010078E-3
382.816315E-3
382.038689E-3
381.100845E-3
381.198120E-3
380.252838E-3
381.865311E-3
381.840706E-3
381.904221E-3
383.361626E-3
383.810806E-3
385.687065E-3
386.010361E-3
385.362625E-3
385.778618E-3
385.014725E-3
386.041832E-3
385.424423E-3
384.340668E-3
384.906578E-3
384.234810E-3
385.557747E-3
385.584641E-3
385.155487E-3
386.012077E-3
385.882759E-3
387.504387E-3
387.745857E-3
387.508965E-3
388.504028E-3
388.119507E-3
389.563179E-3
389.480782E-3
388.558960E-3
389.725113E-3
389.227295E-3
390.534782E-3
390.213776E-3
389.670753E-3
390.482712E-3
389.853859E-3
390.954208E-3
390.862656E-3
389.382362E-3
390.615463E-3
390.158844E-3
391.595078E-3
391.298676E-3
390.347672E-3
390.846634E-3
390.648079E-3
391.928673E-3
391.561890E-3
391.312408E-3
392.166710E-3
391.403389E-3
392.787552E-3
392.575836E-3
392.292595E-3
392.975807E-3
392.506599E-3
393.708229E-3
393.430710E-3
393.108559E-3
393.210983E-3
393.175507E-3
394.747353E-3
394.334221E-3
393.942833E-3
394.762802E-3
394.016647E-3
395.114136E-3
394.539070E-3
394.325638E-3
394.964218E-3
394.436646E-3
395.660591E-3
395.387077E-3
394.824028E-3
395.722389E-3
395.151901E-3
396.299171E-3
396.104050E-3
395.196533E-3
396.409035E-3
395.895195E-3
397.120285E-3
396.615028E-3
396.059418E-3
396.245384E-3
394.168282E-3
392.974091E-3
389.808083E-3
385.111427E-3
383.215714E-3
379.777908E-3
378.654671E-3
377.150917E-3
375.765610E-3
376.440811E-3
376.183891E-3
378.146553E-3
378.673553E-3
378.865242E-3
380.307770E-3
380.131531E-3
381.454468E-3
381.333160E-3
380.231094E-3
380.828476E-3
379.683495E-3
380.270004E-3
379.638290E-3
378.555107E-3
379.474068E-3
378.684998E-3
380.282021E-3
380.791283E-3
381.083679E-3
382.860947E-3
382.674980E-3
384.227943E-3
384.231949E-3
383.176231E-3
383.838844E-3
382.862091E-3
383.818245E-3
383.345032E-3
382.016945E-3
383.296394E-3
382.873535E-3
384.274292E-3
384.412193E-3
383.998489E-3
384.826469E-3
384.657097E-3
386.140823E-3
386.319351E-3
386.108208E-3
387.382507E-3
386.789131E-3
388.108635E-3
388.047981E-3
387.251472E-3
388.289452E-3
387.692642E-3
388.906288E-3
388.737488E-3
387.982178E-3
388.972664E-3
388.255119E-3
389.180374E-3
389.192963E-3
388.487434E-3
389.410973E-3
388.803291E-3
389.765167E-3
389.766884E-3
388.221359E-3
389.777756E-3
389.529991E-3
390.507889E-3
390.339661E-3
389.531708E-3
390.760231E-3
390.258408E-3
391.356468E-3
391.206551E-3
389.550018E-3
391.311836E-3
391.086960E-3
392.082024E-3
392.240524E-3
391.497803E-3
392.858505E-3
392.156982E-3
392.882538E-3
393.045044E-3
392.218208E-3
393.747139E-3
392.638779E-3
393.489075E-3
393.212700E-3
392.689705E-3
394.362259E-3
393.332291E-3
394.218063E-3
394.220352E-3
393.514824E-3
395.276642E-3
394.266129E-3
395.145035E-3
395.180511E-3
394.358253E-3
396.106339E-3
394.914436E-3
395.464897E-3
395.209122E-3
393.876457E-3
394.405746E-3
391.173935E-3
388.957787E-3
385.893059E-3
382.135391E-3
380.883408E-3
377.548599E-3
376.744652E-3
375.956726E-3
375.340462E-3
377.496529E-3
377.272224E-3
378.730774E-3
379.668617E-3
379.571915E-3
381.616974E-3
380.901146E-3
381.449318E-3
381.367493E-3
380.371857E-3
381.586647E-3
379.954720E-3
380.348969E-3
380.196190E-3
379.609680E-3
381.543732E-3
380.982971E-3
382.331657E-3
383.127022E-3
382.886696E-3
384.721756E-3
383.599663E-3
383.627129E-3
383.474922E-3
382.438660E-3
383.525848E-3
382.115364E-3
382.535934E-3
382.990837E-3
382.476425E-3
384.126091E-3
383.259773E-3
384.118652E-3
384.847069E-3
384.468269E-3
386.394882E-3
385.289383E-3
385.968018E-3
386.484146E-3
385.931396E-3
387.695503E-3
386.568832E-3
387.286377E-3
387.361908E-3
386.783409E-3
388.544083E-3
387.274361E-3
387.742424E-3
387.804222E-3
385.980606E-3
388.366127E-3
387.690353E-3
388.247681E-3
388.603020E-3
388.035965E-3
389.773750E-3
388.417053E-3
388.840485E-3
389.117432E-3
388.621902E-3
390.280151E-3
389.193535E-3
389.760590E-3
389.928818E-3
388.463402E-3
390.842628E-3
389.955139E-3
390.423775E-3
390.900421E-3
390.691566E-3
392.167854E-3
390.915871E-3
391.331291E-3
391.614532E-3
391.149902E-3
392.486572E-3
391.341019E-3
391.880608E-3
392.366409E-3
392.004204E-3
393.648148E-3
392.278862E-3
393.134880E-3
393.220139E-3
392.750359E-3
394.384003E-3
393.283653E-3
393.897629E-3
393.984032E-3
393.400955E-3
394.657516E-3
392.579842E-3
391.378784E-3
389.348030E-3
385.993767E-3
384.413338E-3
380.053711E-3
377.791214E-3
376.060295E-3
374.398041E-3
375.155640E-3
374.131966E-3
374.818611E-3
375.913811E-3
376.341820E-3
378.401184E-3
378.064156E-3
378.751945E-3
379.096985E-3
378.657532E-3
379.698944E-3
378.505325E-3
378.365135E-3
378.178596E-3
376.009369E-3
377.938271E-3
377.294540E-3
378.114510E-3
379.194832E-3
379.461479E-3
381.471634E-3
381.154633E-3
381.900215E-3
382.260132E-3
381.642723E-3
382.563400E-3
381.103134E-3
381.076241E-3
381.102562E-3
380.616760E-3
381.916809E-3
380.770111E-3
381.587219E-3
382.265282E-3
382.039261E-3
383.591652E-3
382.985115E-3
383.836555E-3
384.347534E-3
384.213638E-3
385.923386E-3
384.975243E-3
385.565758E-3
385.909081E-3
385.541725E-3
386.960793E-3
385.822105E-3
386.497307E-3
386.814308E-3
386.307907E-3
387.685204E-3
386.563110E-3
386.774826E-3
387.042046E-3
386.008072E-3
387.901497E-3
386.995697E-3
387.587929E-3
387.863731E-3
387.386513E-3
388.655090E-3
387.579918E-3
388.010216E-3
388.506889E-3
387.990761E-3
389.365196E-3
388.425636E-3
388.867378E-3
389.445877E-3
387.820244E-3
390.004349E-3
389.189529E-3
389.703369E-3
390.269852E-3
389.726830E-3
391.171074E-3
390.386581E-3
390.776253E-3
390.994263E-3
390.425491E-3
391.825676E-3
390.641212E-3
391.081238E-3
391.387367E-3
390.807724E-3
392.116356E-3
391.144753E-3
391.533279E-3
391.991043E-3
391.578484E-3
392.985535E-3
392.220497E-3
392.440224E-3
392.952919E-3
392.407036E-3
393.858719E-3
393.061066E-3
393.175507E-3
393.003845E-3
391.398811E-3
390.894127E-3
387.289238E-3
384.345818E-3
381.363487E-3
377.791214E-3
376.674271E-3
373.998642E-3
373.283958E-3
373.221016E-3
372.841072E-3
374.974823E-3
374.678421E-3
375.759315E-3
376.959229E-3
376.877975E-3
378.606606E-3
377.735710E-3
377.818680E-3
378.086472E-3
376.923180E-3
377.990341E-3
376.436234E-3
376.242828E-3
376.677704E-3
376.146698E-3
377.770042E-3
377.523422E-3
378.637505E-3
379.795647E-3
378.833199E-3
381.124878E-3
380.553818E-3
380.544090E-3
380.956078E-3
379.899788E-3
380.962944E-3
379.918671E-3
380.112076E-3
380.464554E-3
379.887199E-3
381.278229E-3
380.781555E-3
381.381226E-3
382.204056E-3
380.046844E-3
382.934761E-3
382.888985E-3
383.432007E-3
384.110641E-3
383.435440E-3
385.033607E-3
384.332085E-3
384.639359E-3
385.316849E-3
382.752800E-3
385.443306E-3
385.115433E-3
385.553169E-3
386.054993E-3
383.323860E-3
385.957718E-3
385.756302E-3
386.131096E-3
386.878395E-3
385.974312E-3
387.477493E-3
386.842346E-3
386.976242E-3
387.257195E-3
386.543083E-3
388.073730E-3
387.475777E-3
387.558746E-3
388.125229E-3
387.039185E-3
388.689423E-3
388.142395E-3
388.281441E-3
388.926315E-3
387.340736E-3
389.580917E-3
389.075089E-3
389.186096E-3
389.970016E-3
387.863731E-3
390.031815E-3
389.905357E-3
390.117073E-3
390.667534E-3
389.499092E-3
391.123581E-3
390.518188E-3
390.579987E-3
391.037178E-3
389.307404E-3
391.172791E-3
390.973663E-3
391.127586E-3
391.561317E-3
390.233803E-3
392.033386E-3
391.733551E-3
391.991615E-3
392.029381E-3
391.338158E-3
393.109131E-3
392.697716E-3
392.744637E-3
393.114281E-3
391.686058E-3
392.290878E-3
389.968300E-3
387.600517E-3
384.938049E-3
380.937767E-3
379.355621E-3
376.346970E-3
374.768829E-3
374.420929E-3
373.131752E-3
375.041199E-3
375.295258E-3
376.114082E-3
377.408409E-3
377.331161E-3
379.652023E-3
379.605675E-3
379.615402E-3
380.197906E-3
378.838921E-3
380.108643E-3
379.323578E-3
378.823471E-3
378.980827E-3
377.958870E-3
379.870033E-3
380.022240E-3
380.351257E-3
381.541443E-3
381.025314E-3
382.832336E-3
382.529640E-3
381.954575E-3
382.021523E-3
380.603600E-3
381.768608E-3
380.846786E-3
380.500603E-3
380.954933E-3
380.090332E-3
382.074738E-3
381.719971E-3
381.867027E-3
382.974243E-3
382.229233E-3
384.417915E-3
384.369850E-3
384.234238E-3
384.685135E-3
384.064293E-3
385.885620E-3
385.650444E-3
385.487366E-3
386.044693E-3
385.241318E-3
387.012291E-3
386.521339E-3
386.082458E-3
386.673546E-3
385.895920E-3
387.547302E-3
387.058640E-3
386.701012E-3
387.296677E-3
386.449814E-3
387.989044E-3
387.524414E-3
387.025452E-3
387.890053E-3
387.205124E-3
388.796997E-3
388.242531E-3
387.800789E-3
388.540649E-3
387.834549E-3
389.359474E-3
388.852501E-3
388.555527E-3
388.914871E-3
388.552666E-3
390.094185E-3
389.768600E-3
389.252472E-3
390.063858E-3
389.390945E-3
390.622902E-3
390.385437E-3
389.857292E-3
390.474129E-3
389.828682E-3
391.113853E-3
390.720177E-3
390.291023E-3
390.416336E-3
390.390015E-3
391.857719E-3
391.736984E-3
391.284370E-3
392.057991E-3
391.697502E-3
393.107986E-3
392.881393E-3
392.011642E-3
392.770386E-3
392.016220E-3
392.428207E-3
390.834045E-3
388.074875E-3
385.983467E-3
382.391167E-3
380.444527E-3
377.306557E-3
374.693298E-3
373.785782E-3
372.548103E-3
373.698235E-3
373.998070E-3
373.630142E-3
375.185394E-3
375.759315E-3
377.809525E-3
378.132248E-3
377.887344E-3
378.327370E-3
377.872467E-3
378.961372E-3
378.348541E-3
377.349472E-3
377.606392E-3
376.729202E-3
378.037834E-3
377.906799E-3
377.786064E-3
379.189110E-3
379.253197E-3
381.037903E-3
381.155205E-3
380.783272E-3
381.406975E-3
380.514908E-3
381.294250E-3
380.860519E-3
380.013084E-3
380.493164E-3
379.784775E-3
381.095695E-3
381.024742E-3
380.557823E-3
381.173515E-3
381.267929E-3
382.904434E-3
383.257484E-3
382.916451E-3
384.070015E-3
383.732414E-3
384.937477E-3
384.851074E-3
384.607887E-3
385.649300E-3
385.005569E-3
386.347961E-3
386.183167E-3
385.000420E-3
385.429573E-3
385.451317E-3
386.762810E-3
386.658669E-3
386.225510E-3
387.045479E-3
386.248398E-3
387.354469E-3
387.374496E-3
386.824608E-3
387.617111E-3
386.628914E-3
387.943840E-3
387.975311E-3
387.183380E-3
388.182449E-3
387.569618E-3
388.627052E-3
388.550377E-3
387.197685E-3
388.668251E-3
388.317490E-3
389.471054E-3
389.483643E-3
388.900566E-3
389.790344E-3
389.266205E-3
390.395737E-3
390.264702E-3
389.574623E-3
390.459251E-3
389.841270E-3
391.071510E-3
390.958786E-3
390.105057E-3
391.055489E-3
390.316200E-3
391.199112E-3
391.138458E-3
389.907646E-3
391.121292E-3
390.937614E-3
391.854858E-3
392.074013E-3
391.365623E-3
392.459679E-3
392.025375E-3
392.952347E-3
392.974663E-3
392.262268E-3
393.186951E-3
392.387009E-3
392.304039E-3
390.622330E-3
387.347603E-3
385.380363E-3
381.537437E-3
379.185677E-3
376.464272E-3
373.715973E-3
373.710823E-3
372.576141E-3
373.521996E-3
374.001503E-3
374.011230E-3
376.202202E-3
376.111794E-3
377.669334E-3
378.170586E-3
377.639008E-3
378.986549E-3
377.851868E-3
378.397751E-3
377.878761E-3
376.812744E-3
378.135681E-3
376.599884E-3
377.273941E-3
377.526855E-3
377.337456E-3
379.848289E-3
379.329872E-3
380.661392E-3
381.314850E-3
380.071449E-3
382.043266E-3
380.977821E-3
381.459618E-3
380.937767E-3
380.014801E-3
381.441879E-3
380.252266E-3
381.167221E-3
381.179810E-3
380.509186E-3
382.531357E-3
381.685066E-3
382.919884E-3
383.350182E-3
382.917023E-3
384.872818E-3
383.893776E-3
384.650230E-3
384.803581E-3
384.433365E-3
386.088753E-3
385.093117E-3
385.644722E-3
386.033249E-3
385.305977E-3
386.852646E-3
385.887909E-3
386.460686E-3
386.732483E-3
386.130524E-3
387.614822E-3
386.424065E-3
386.977959E-3
387.345314E-3
386.492729E-3
388.051414E-3
387.047195E-3
387.586784E-3
387.788200E-3
387.210274E-3
388.905144E-3
387.624550E-3
388.170433E-3
388.247108E-3
388.048553E-3
389.666176E-3
388.461113E-3
389.105415E-3
389.293098E-3
387.491798E-3
389.924812E-3
389.124870E-3
389.702225E-3
390.157127E-3
389.758873E-3
391.275787E-3
389.895630E-3
390.348816E-3
390.600586E-3
388.766098E-3
391.062355E-3
390.115929E-3
390.783691E-3
391.078377E-3
390.669250E-3
392.412186E-3
391.053772E-3
391.621399E-3
391.904068E-3
391.556168E-3
393.159485E-3
391.819954E-3
392.408180E-3
392.637062E-3
392.277718E-3
393.585205E-3
391.698647E-3
391.052628E-3
389.144325E-3
385.872459E-3
384.205055E-3
379.884911E-3
377.786064E-3
375.679779E-3
374.050713E-3
374.945641E-3
373.843002E-3
374.883270E-3
375.977898E-3
376.465988E-3
378.792000E-3
378.294182E-3
379.641724E-3
380.047417E-3
379.839706E-3
381.205559E-3
379.784203E-3
379.848289E-3
379.572487E-3
378.841209E-3
380.098915E-3
379.213715E-3
379.868317E-3
380.763817E-3
379.707527E-3
382.503891E-3
381.944847E-3
382.671547E-3
382.765388E-3
381.928253E-3
382.840347E-3
381.244469E-3
381.174660E-3
381.075668E-3
380.110931E-3
381.876755E-3
381.147766E-3
381.890488E-3
382.369995E-3
382.107925E-3
383.946991E-3
383.357620E-3
384.147263E-3
384.471703E-3
383.422852E-3
385.688210E-3
385.081673E-3
385.632706E-3
386.119652E-3
385.620689E-3
387.112999E-3
385.893631E-3
386.432648E-3
386.365700E-3
385.125732E-3
387.143898E-3
386.326218E-3
386.875534E-3
387.217140E-3
386.695290E-3
388.165283E-3
387.115288E-3
387.428856E-3
387.843132E-3
387.342453E-3
388.702583E-3
387.696075E-3
387.997627E-3
388.208771E-3
387.694931E-3
389.250183E-3
388.211632E-3
388.824463E-3
389.070511E-3
388.570976E-3
390.086174E-3
389.118576E-3
389.551163E-3
389.881897E-3
389.241600E-3
390.720749E-3
389.849281E-3
390.120506E-3
390.249252E-3
389.822960E-3
391.286659E-3
390.207481E-3
390.737343E-3
391.082954E-3
389.063644E-3
391.591072E-3
391.084099E-3
391.636848E-3
391.898346E-3
391.596794E-3
393.044472E-3
392.122650E-3
392.400742E-3
392.381859E-3
391.592216E-3
392.234802E-3
389.616966E-3
387.516975E-3
384.851074E-3
381.254196E-3
379.631996E-3
376.043701E-3
374.374580E-3
373.515701E-3
372.605896E-3
374.135971E-3
373.601532E-3
374.717331E-3
375.775337E-3
376.140404E-3
378.308487E-3
377.902794E-3
378.408051E-3
378.982544E-3
377.613831E-3
378.887558E-3
377.833557E-3
377.657318E-3
377.695084E-3
376.931763E-3
378.468704E-3
377.637291E-3
378.513336E-3
379.541016E-3
379.558182E-3
381.495667E-3
380.744934E-3
381.147194E-3
381.515121E-3
380.514336E-3
381.679344E-3
380.439949E-3
380.371857E-3
380.490303E-3
379.773331E-3
381.352615E-3
380.525208E-3
381.106567E-3
381.669044E-3
380.829620E-3
382.759666E-3
382.368851E-3
382.926178E-3
