Notes :


2023-11-13 ¿ÀÀü 12:45:05
Volts
Ch : LED 2,
918.731689E-3
918.520546E-3
918.336296E-3
918.311691E-3
918.039894E-3
918.064499E-3
917.798996E-3
917.710304E-3
917.764664E-3
917.670822E-3
917.639351E-3
917.590141E-3
917.413330E-3
917.358971E-3
917.236519E-3
917.279434E-3
917.209625E-3
917.126083E-3
916.988182E-3
916.821671E-3
916.881180E-3
916.772461E-3
916.731262E-3
916.581345E-3
916.341019E-3
916.378212E-3
916.230011E-3
916.006279E-3
915.872955E-3
915.621758E-3
915.313339E-3
915.070724E-3
914.690208E-3
914.396095E-3
913.930893E-3
913.609886E-3
913.302040E-3
913.093185E-3
913.020515E-3
913.041115E-3
913.770676E-3
915.299606E-3
917.708015E-3
920.935249E-3
924.279785E-3
928.098106E-3
931.342506E-3
933.840179E-3
935.549355E-3
936.433983E-3
936.721230E-3
936.516953E-3
935.706139E-3
934.800911E-3
933.495140E-3
932.196236E-3
930.986595E-3
929.954910E-3
928.938675E-3
928.157616E-3
927.769661E-3
927.618599E-3
927.442360E-3
927.452087E-3
927.417755E-3
927.464104E-3
927.314186E-3
927.144814E-3
926.667023E-3
925.945473E-3
925.538063E-3
925.067711E-3
924.892044E-3
924.775887E-3
924.814796E-3
925.030518E-3
925.293159E-3
925.582695E-3
925.790405E-3
925.975227E-3
925.948906E-3
925.835609E-3
925.635338E-3
925.374413E-3
925.018501E-3
924.645996E-3
924.132156E-3
923.673820E-3
923.225784E-3
922.737122E-3
922.331429E-3
921.739197E-3
921.330643E-3
921.059990E-3
920.623398E-3
920.472908E-3
920.105553E-3
919.935608E-3
919.792557E-3
919.602013E-3
919.525337E-3
919.299316E-3
919.056129E-3
918.899345E-3
918.728256E-3
918.620682E-3
918.513680E-3
918.264771E-3
918.181801E-3
917.975235E-3
917.897987E-3
917.809868E-3
917.820740E-3
917.828751E-3
917.554092E-3
917.548943E-3
917.376709E-3
917.203903E-3
917.219353E-3
916.990471E-3
917.015648E-3
916.900063E-3
916.717529E-3
916.723251E-3
916.524124E-3
916.465187E-3
916.320419E-3
915.962791E-3
915.730476E-3
915.397453E-3
915.333366E-3
914.916801E-3
914.519691E-3
914.199257E-3
913.864517E-3
913.758087E-3
913.630486E-3
913.968086E-3
914.941406E-3
916.580200E-3
919.214058E-3
922.374916E-3
925.797272E-3
929.268837E-3
932.399368E-3
934.692192E-3
936.136436E-3
936.890602E-3
936.992455E-3
936.590195E-3
935.675240E-3
934.666443E-3
933.293724E-3
931.956482E-3
930.738258E-3
929.792404E-3
928.957558E-3
928.286934E-3
927.976227E-3
927.804565E-3
927.807426E-3
927.742767E-3
927.750778E-3
927.840614E-3
927.376556E-3
927.012062E-3
926.438713E-3
925.714874E-3
925.443077E-3
925.215340E-3
925.147820E-3
925.143242E-3
925.414467E-3
925.756645E-3
926.013565E-3
926.356316E-3
926.635551E-3
926.696205E-3
926.668167E-3
926.360321E-3
926.171494E-3
925.827026E-3
925.326347E-3
924.915504E-3
924.379349E-3
923.939323E-3
923.470116E-3
923.138237E-3
922.888184E-3
922.582054E-3
922.251320E-3
921.960640E-3
921.653366E-3
921.618462E-3
921.211052E-3
921.083450E-3
920.836258E-3
920.616531E-3
920.491219E-3
920.362473E-3
920.139313E-3
919.982529E-3
919.795990E-3
919.732475E-3
919.568253E-3
919.576836E-3
919.417191E-3
919.271278E-3
919.358253E-3
919.222641E-3
919.165421E-3
919.049263E-3
918.873024E-3
918.863297E-3
918.704796E-3
918.601227E-3
918.483925E-3
918.338585E-3
918.214417E-3
918.005562E-3
917.813873E-3
917.540359E-3
917.269135E-3
917.005348E-3
916.654587E-3
916.330147E-3
915.909004E-3
915.689278E-3
915.309334E-3
914.915657E-3
914.743996E-3
914.666748E-3
914.686775E-3
915.450668E-3
916.845131E-3
919.086456E-3
922.029305E-3
925.079727E-3
928.552437E-3
931.363106E-3
933.704567E-3
935.208321E-3
935.853767E-3
935.957336E-3
935.499573E-3
934.667587E-3
933.575249E-3
932.197380E-3
930.867577E-3
929.515457E-3
928.328705E-3
927.305031E-3
926.669312E-3
926.279640E-3
925.936317E-3
925.584412E-3
925.563812E-3
925.328636E-3
925.084305E-3
924.542427E-3
924.123001E-3
923.616600E-3
923.139954E-3
922.956848E-3
922.781181E-3
923.099899E-3
923.498154E-3
923.838615E-3
924.300385E-3
924.551010E-3
924.965858E-3
925.186157E-3
925.298309E-3
925.131798E-3
924.910927E-3
924.570465E-3
924.092102E-3
923.598862E-3
923.141670E-3
922.551155E-3
922.116280E-3
921.658516E-3
921.084023E-3
920.785332E-3
920.472908E-3
919.973373E-3
919.655800E-3
919.401741E-3
919.323349E-3
918.943977E-3
918.830109E-3
918.736839E-3
918.523407E-3
918.443298E-3
918.265915E-3
918.205833E-3
918.130875E-3
917.827034E-3
917.926598E-3
917.740059E-3
917.667389E-3
917.621613E-3
917.345810E-3
917.515755E-3
917.281151E-3
917.160416E-3
917.052269E-3
916.776466E-3
916.799927E-3
916.644859E-3
916.514969E-3
916.490364E-3
916.359901E-3
916.391373E-3
916.172791E-3
916.005135E-3
915.848351E-3
915.618896E-3
915.489006E-3
915.170288E-3
914.953995E-3
914.618111E-3
914.218712E-3
914.129448E-3
913.591003E-3
913.379288E-3
913.022232E-3
912.817955E-3
912.955856E-3
913.403320E-3
914.837837E-3
917.075729E-3
920.007706E-3
923.496437E-3
927.135086E-3
930.674744E-3
933.381844E-3
935.119629E-3
936.184502E-3
936.468887E-3
936.380196E-3
935.597992E-3
934.675026E-3
933.607292E-3
932.274628E-3
931.127357E-3
930.190659E-3
929.173851E-3
928.650856E-3
928.191376E-3
928.064919E-3
927.932167E-3
927.942467E-3
928.130722E-3
928.099823E-3
927.866936E-3
927.655220E-3
927.135658E-3
926.698494E-3
926.102829E-3
925.667953E-3
925.402451E-3
925.354385E-3
925.438499E-3
925.699997E-3
926.050758E-3
926.338005E-3
926.430130E-3
926.568604E-3
926.493073E-3
926.466751E-3
926.235580E-3
925.763512E-3
925.530624E-3
925.035667E-3
924.678040E-3
924.193954E-3
923.597717E-3
923.333359E-3
922.829247E-3
922.528267E-3
922.086525E-3
921.683693E-3
921.524048E-3
921.317482E-3
921.000481E-3
920.903778E-3
920.601654E-3
920.584488E-3
920.328712E-3
920.125580E-3
920.034599E-3
919.937897E-3
919.725037E-3
919.567108E-3
919.492149E-3
919.423485E-3
919.141960E-3
919.161987E-3
919.187164E-3
918.990898E-3
918.907928E-3
918.822670E-3
918.820381E-3
918.699074E-3
918.547440E-3
918.321991E-3
918.149185E-3
918.252754E-3
918.082237E-3
918.057632E-3
918.009567E-3
917.869949E-3
917.761230E-3
917.523193E-3
917.370987E-3
917.242813E-3
916.890335E-3
916.817665E-3
916.515541E-3
916.020012E-3
915.862083E-3
915.408897E-3
915.283012E-3
914.928246E-3
914.703369E-3
914.742851E-3
914.833832E-3
915.657234E-3
917.003059E-3
919.361687E-3
922.319984E-3
925.733757E-3
929.193878E-3
932.327271E-3
934.570885E-3
935.987663E-3
936.832237E-3
937.100029E-3
936.673164E-3
935.882378E-3
934.912491E-3
933.691978E-3
932.591629E-3
931.621742E-3
930.533981E-3
929.952621E-3
929.304886E-3
928.987885E-3
928.782463E-3
928.811646E-3
928.884315E-3
928.882027E-3
928.888893E-3
928.787041E-3
928.281784E-3
927.806854E-3
927.179718E-3
926.714516E-3
926.496506E-3
926.323700E-3
926.350594E-3
926.485634E-3
926.919365E-3
927.081871E-3
927.351952E-3
927.586555E-3
927.613449E-3
927.630043E-3
927.452660E-3
927.000618E-3
926.689911E-3
926.152039E-3
925.854492E-3
925.311470E-3
924.815941E-3
924.548149E-3
924.003410E-3
923.747063E-3
923.436356E-3
923.051834E-3
922.797203E-3
922.483635E-3
922.329712E-3
922.123718E-3
921.982956E-3
921.726608E-3
921.474838E-3
921.486855E-3
921.286583E-3
921.138954E-3
921.065140E-3
920.859146E-3
920.871735E-3
920.720100E-3
920.657158E-3
920.539856E-3
920.416260E-3
920.317268E-3
920.266914E-3
920.077515E-3
920.025444E-3
919.834328E-3
919.885254E-3
919.766808E-3
919.452667E-3
919.487000E-3
919.216347E-3
918.974304E-3
918.891335E-3
918.812943E-3
918.637276E-3
918.292236E-3
918.030739E-3
917.639351E-3
917.273140E-3
917.061996E-3
916.609955E-3
916.376495E-3
916.003418E-3
915.678978E-3
915.435219E-3
915.078735E-3
915.119934E-3
915.080452E-3
915.403748E-3
916.672325E-3
918.559456E-3
921.208191E-3
924.333000E-3
927.476120E-3
930.496216E-3
932.767296E-3
934.411240E-3
935.101891E-3
935.050964E-3
934.720802E-3
933.888817E-3
932.722092E-3
931.359673E-3
929.845619E-3
928.673172E-3
927.610016E-3
926.619530E-3
925.841904E-3
925.310898E-3
925.038528E-3
924.814796E-3
924.686050E-3
924.477768E-3
924.195671E-3
923.879814E-3
923.358536E-3
922.770309E-3
922.206116E-3
921.996117E-3
921.956062E-3
922.062492E-3
922.438431E-3
922.842407E-3
923.194885E-3
923.673248E-3
923.883820E-3
924.053192E-3
924.062347E-3
923.963356E-3
923.704147E-3
923.192024E-3
922.817230E-3
922.262192E-3
921.685410E-3
921.142387E-3
920.522690E-3
920.067787E-3
919.627190E-3
919.160271E-3
918.874741E-3
918.487358E-3
918.236160E-3
918.154335E-3
917.985535E-3
917.796135E-3
917.413330E-3
917.407036E-3
917.331505E-3
917.142677E-3
917.082596E-3
916.830254E-3
916.818810E-3
916.798210E-3
916.634560E-3
916.544151E-3
916.330719E-3
916.214561E-3
916.215134E-3
916.160202E-3
916.168785E-3
915.883255E-3
915.812302E-3
915.566254E-3
915.491867E-3
915.594292E-3
915.248680E-3
915.083885E-3
914.991188E-3
914.855576E-3
914.746857E-3
914.583778E-3
914.382935E-3
914.231300E-3
914.155769E-3
913.952637E-3
913.576126E-3
913.276863E-3
913.114357E-3
912.664032E-3
912.464333E-3
912.020874E-3
911.714745E-3
911.540794E-3
911.256409E-3
911.112785E-3
911.260414E-3
912.005997E-3
913.547516E-3
915.946198E-3
919.242668E-3
922.806931E-3
926.379204E-3
929.704857E-3
932.057190E-3
933.637047E-3
934.280205E-3
934.333992E-3
933.987808E-3
933.301735E-3
932.276917E-3
931.004906E-3
929.990387E-3
928.940964E-3
927.874947E-3
927.441216E-3
926.787758E-3
926.489067E-3
926.498222E-3
926.387215E-3
926.587486E-3
926.556587E-3
926.596642E-3
926.619530E-3
926.077080E-3
925.677681E-3
924.969864E-3
924.446297E-3
923.997116E-3
923.432350E-3
923.500443E-3
923.532486E-3
923.721313E-3
924.110413E-3
924.249458E-3
924.542427E-3
924.486351E-3
924.496078E-3
924.342155E-3
924.125290E-3
923.755074E-3
923.210335E-3
922.782898E-3
922.412109E-3
921.871948E-3
921.374130E-3
920.901489E-3
920.385361E-3
920.028877E-3
919.631195E-3
919.375992E-3
919.028664E-3
918.713379E-3
918.510246E-3
918.154335E-3
917.979240E-3
917.705727E-3
917.488289E-3
917.340660E-3
917.020798E-3
916.889191E-3
916.676903E-3
916.593361E-3
916.461182E-3
916.263199E-3
916.070938E-3
915.928459E-3
915.729904E-3
915.595436E-3
915.344238E-3
915.317345E-3
914.960289E-3
914.868164E-3
914.646149E-3
914.318848E-3
914.077377E-3
913.857079E-3
913.620758E-3
913.319206E-3
912.958717E-3
912.912369E-3
912.621117E-3
912.571907E-3
912.395096E-3
912.070084E-3
911.983109E-3
911.731339E-3
911.623764E-3
911.177444E-3
910.782051E-3
910.590363E-3
910.200691E-3
909.822464E-3
909.606171E-3
909.206772E-3
908.975601E-3
908.729553E-3
908.705521E-3
908.858871E-3
909.486008E-3
911.161423E-3
913.589287E-3
916.817093E-3
920.566177E-3
924.200249E-3
927.373695E-3
929.465103E-3
930.941391E-3
931.691551E-3
931.513023E-3
931.200600E-3
930.474472E-3
929.612732E-3
928.388214E-3
927.002907E-3
926.053619E-3
925.166130E-3
924.312401E-3
923.808289E-3
923.372269E-3
923.416901E-3
923.493576E-3
923.531914E-3
923.621750E-3
923.549080E-3
923.530197E-3
923.048973E-3
922.377777E-3
921.742630E-3
921.191025E-3
920.725250E-3
920.471764E-3
920.508957E-3
920.523834E-3
920.642281E-3
921.056557E-3
921.264267E-3
921.486855E-3
921.524620E-3
921.499443E-3
921.262550E-3
920.910072E-3
920.536423E-3
920.205116E-3
919.597435E-3
919.131660E-3
918.535423E-3
917.994118E-3
917.588425E-3
917.192459E-3
916.754150E-3
916.342163E-3
915.969658E-3
915.662384E-3
915.335083E-3
915.161705E-3
914.932823E-3
914.738846E-3
914.518547E-3
914.461899E-3
914.325714E-3
914.139748E-3
913.883400E-3
913.772392E-3
913.435364E-3
913.364983E-3
913.072014E-3
913.065720E-3
912.875175E-3
912.592506E-3
912.433434E-3
912.302971E-3
911.985970E-3
911.750793E-3
911.591148E-3
911.379433E-3
911.067009E-3
910.729980E-3
910.573769E-3
910.178375E-3
910.041046E-3
909.779549E-3
909.384155E-3
909.011650E-3
908.913803E-3
908.745575E-3
908.496666E-3
908.375931E-3
908.033752E-3
907.748795E-3
907.491302E-3
907.184601E-3
906.999207E-3
906.552315E-3
906.039619E-3
905.665398E-3
905.286598E-3
904.932404E-3
904.643440E-3
904.549026E-3
904.384232E-3
904.677200E-3
905.211639E-3
906.792641E-3
909.174156E-3
912.610817E-3
916.522408E-3
920.183372E-3
923.372269E-3
925.532913E-3
927.001762E-3
927.496719E-3
927.338791E-3
926.847267E-3
925.783539E-3
924.591064E-3
923.286438E-3
921.784401E-3
920.694923E-3
919.271278E-3
918.473625E-3
917.911148E-3
917.559814E-3
917.424202E-3
917.199326E-3
917.250252E-3
917.247963E-3
917.041969E-3
916.862869E-3
916.104698E-3
915.506744E-3
914.887047E-3
914.217567E-3
914.056206E-3
914.115715E-3
914.412117E-3
914.746857E-3
914.940834E-3
915.321350E-3
915.406609E-3
915.588570E-3
915.397453E-3
915.035248E-3
914.729118E-3
914.036751E-3
913.343239E-3
912.555885E-3
911.622620E-3
910.709953E-3
909.676552E-3
908.732986E-3
907.957077E-3
907.194328E-3
906.633568E-3
905.857086E-3
905.179596E-3
904.688072E-3
904.217720E-3
903.871536E-3
903.420067E-3
903.027534E-3
902.793503E-3
902.316284E-3
902.274513E-3
901.987839E-3
901.783562E-3
901.431656E-3
901.411629E-3
901.199341E-3
900.877762E-3
900.759315E-3
900.597382E-3
900.381660E-3
900.337029E-3
899.977684E-3
899.850655E-3
899.721909E-3
899.415779E-3
899.295616E-3
899.006081E-3
898.740005E-3
898.511696E-3
898.257637E-3
897.978401E-3
897.867393E-3
897.601891E-3
897.423935E-3
897.314644E-3
897.229385E-3
896.907234E-3
896.737862E-3
896.658897E-3
896.381378E-3
896.291542E-3
895.956802E-3
895.824051E-3
895.654106E-3
895.266724E-3
894.899940E-3
894.533730E-3
894.201279E-3
893.947792E-3
893.497467E-3
893.418503E-3
893.282890E-3
893.696022E-3
894.925690E-3
896.927834E-3
900.216293E-3
904.045486E-3
908.126450E-3
911.868095E-3
914.707947E-3
916.713524E-3
917.847061E-3
918.410683E-3
918.471336E-3
918.021584E-3
917.482567E-3
916.509247E-3
915.424347E-3
914.315414E-3
913.192177E-3
912.508392E-3
911.733055E-3
911.285019E-3
911.007500E-3
910.895920E-3
910.952568E-3
910.989761E-3
911.195183E-3
911.448097E-3
911.294746E-3
910.960007E-3
910.381508E-3
909.813881E-3
909.276581E-3
908.741570E-3
908.419418E-3
908.278656E-3
908.379936E-3
908.692360E-3
908.826828E-3
909.199905E-3
909.399033E-3
909.552956E-3
909.559822E-3
909.525490E-3
909.243393E-3
908.837700E-3
908.433151E-3
908.020592E-3
907.565689E-3
906.958008E-3
906.426430E-3
905.965233E-3
905.486870E-3
904.854012E-3
904.532433E-3
904.185677E-3
903.965950E-3
903.650093E-3
903.386879E-3
903.339386E-3
903.025246E-3
902.834129E-3
902.691078E-3
902.420998E-3
902.355766E-3
902.165222E-3
902.001572E-3
902.007866E-3
901.911736E-3
901.839066E-3
901.681137E-3
901.601601E-3
901.489449E-3
901.152992E-3
901.122665E-3
900.988197E-3
900.916672E-3
900.819397E-3
900.525856E-3
900.475502E-3
900.176811E-3
899.937630E-3
899.783707E-3
899.454689E-3
899.230385E-3
899.021530E-3
898.769760E-3
898.642159E-3
898.322296E-3
898.245049E-3
898.166084E-3
898.025322E-3
897.905731E-3
897.677422E-3
