Notes :


2023-10-27 ¿ÀÈÄ 11:14:01
Volts
Ch : LED 2,
554.974937E-3
553.544426E-3
554.366112E-3
553.820801E-3
554.431915E-3
554.089165E-3
552.899551E-3
552.658081E-3
552.004051E-3
552.810860E-3
552.192879E-3
551.477051E-3
551.814651E-3
550.675964E-3
551.279640E-3
550.866508E-3
550.413895E-3
550.774384E-3
550.047112E-3
550.840187E-3
550.270271E-3
549.637985E-3
550.094032E-3
549.462318E-3
550.205040E-3
549.482918E-3
548.491859E-3
548.431206E-3
547.670174E-3
548.435783E-3
548.190880E-3
546.898270E-3
547.467041E-3
546.797562E-3
548.330498E-3
550.219345E-3
552.054977E-3
558.313751E-3
563.354874E-3
569.891739E-3
574.995804E-3
578.261948E-3
581.770134E-3
581.969833E-3
582.479095E-3
580.987930E-3
578.006744E-3
576.955605E-3
573.375893E-3
571.585464E-3
569.643974E-3
567.590904E-3
567.811203E-3
566.060829E-3
566.369820E-3
566.652489E-3
566.582108E-3
568.619156E-3
568.111038E-3
568.939018E-3
569.118690E-3
567.851830E-3
568.090439E-3
565.819359E-3
565.441704E-3
564.742470E-3
563.586044E-3
565.137863E-3
564.710999E-3
566.203308E-3
566.884232E-3
565.608788E-3
567.544556E-3
566.534042E-3
566.377831E-3
566.090012E-3
564.866066E-3
565.559578E-3
563.402367E-3
563.018417E-3
562.442207E-3
560.852623E-3
561.445999E-3
559.146881E-3
559.122276E-3
558.415031E-3
557.578468E-3
558.422470E-3
556.649208E-3
556.923294E-3
556.985092E-3
556.190872E-3
557.193947E-3
555.974007E-3
556.202316E-3
556.541061E-3
555.825806E-3
556.840897E-3
555.718803E-3
555.697632E-3
555.963707E-3
555.358887E-3
556.393433E-3
555.006409E-3
555.138016E-3
555.233002E-3
554.335213E-3
555.406952E-3
553.807640E-3
553.930664E-3
553.754425E-3
552.768517E-3
553.547859E-3
552.131653E-3
552.397728E-3
552.087593E-3
551.078796E-3
551.838112E-3
550.487137E-3
550.794411E-3
550.610161E-3
549.755859E-3
550.674820E-3
549.583626E-3
549.548149E-3
549.789047E-3
549.074364E-3
550.109482E-3
548.920441E-3
548.904419E-3
548.716736E-3
546.794701E-3
548.581696E-3
547.323990E-3
547.412109E-3
547.242737E-3
546.667099E-3
547.518539E-3
546.220779E-3
546.490860E-3
546.862793E-3
546.918869E-3
549.992180E-3
552.567101E-3
557.447433E-3
563.199806E-3
567.954826E-3
574.043083E-3
576.881218E-3
579.116249E-3
580.167961E-3
578.952599E-3
578.676796E-3
575.420380E-3
573.052025E-3
570.848465E-3
568.163681E-3
567.254448E-3
565.005112E-3
564.058113E-3
563.906479E-3
563.245583E-3
564.589119E-3
564.249802E-3
564.935875E-3
565.791321E-3
565.215111E-3
566.142082E-3
564.760208E-3
563.799477E-3
563.521957E-3
561.676025E-3
562.906837E-3
562.247658E-3
562.442780E-3
563.483620E-3
563.067627E-3
565.062904E-3
564.628601E-3
565.112686E-3
565.489197E-3
563.797760E-3
564.554787E-3
563.283920E-3
562.149811E-3
561.876297E-3
559.729958E-3
560.015488E-3
558.732033E-3
558.020210E-3
557.797623E-3
556.303596E-3
556.809425E-3
556.091881E-3
555.682755E-3
555.634117E-3
554.394150E-3
555.665016E-3
554.940033E-3
554.668808E-3
554.940605E-3
553.898621E-3
555.404091E-3
554.782677E-3
554.367256E-3
554.974937E-3
553.756142E-3
555.254745E-3
554.465675E-3
554.136658E-3
554.542923E-3
553.225708E-3
554.294586E-3
553.837395E-3
553.309250E-3
553.401375E-3
552.291298E-3
553.428841E-3
552.691841E-3
552.030945E-3
551.910782E-3
550.733185E-3
551.642990E-3
550.679970E-3
550.221634E-3
550.264549E-3
549.682617E-3
550.950050E-3
549.794197E-3
549.208260E-3
549.538994E-3
548.776245E-3
549.700928E-3
549.128723E-3
547.947693E-3
548.669815E-3
547.806358E-3
548.637199E-3
548.237801E-3
547.418404E-3
547.527122E-3
546.477699E-3
547.345161E-3
547.188950E-3
546.889687E-3
548.129654E-3
549.275780E-3
553.469467E-3
557.869720E-3
561.904907E-3
567.911339E-3
571.583748E-3
575.573158E-3
576.730728E-3
576.856613E-3
576.572227E-3
574.230766E-3
572.979927E-3
570.161819E-3
567.522812E-3
565.874290E-3
563.500786E-3
562.878799E-3
561.359596E-3
560.665512E-3
560.960197E-3
560.667229E-3
561.817932E-3
561.904907E-3
560.968208E-3
561.529541E-3
560.079002E-3
560.436058E-3
559.404373E-3
558.821297E-3
559.316826E-3
559.213257E-3
560.878372E-3
561.410522E-3
561.875725E-3
563.398933E-3
563.341713E-3
564.255524E-3
563.705063E-3
562.845039E-3
562.762642E-3
561.215973E-3
561.201096E-3
559.834671E-3
558.483696E-3
558.131218E-3
556.446648E-3
556.547356E-3
555.900192E-3
554.387856E-3
554.137230E-3
553.127861E-3
553.749275E-3
553.598213E-3
552.302170E-3
553.287506E-3
552.571678E-3
553.055191E-3
553.268051E-3
552.338219E-3
553.403664E-3
552.328491E-3
552.874947E-3
552.817726E-3
552.140808E-3
553.546715E-3
552.446938E-3
552.985954E-3
552.535629E-3
551.668739E-3
552.965355E-3
551.848984E-3
552.030373E-3
551.493645E-3
550.627327E-3
552.046394E-3
550.678825E-3
550.686836E-3
550.420761E-3
549.251175E-3
550.461960E-3
548.880959E-3
548.945618E-3
548.831749E-3
547.896767E-3
549.315834E-3
548.003769E-3
548.163414E-3
548.490715E-3
547.488213E-3
548.538780E-3
547.034454E-3
547.195816E-3
547.226143E-3
546.275711E-3
547.274208E-3
546.039963E-3
546.107483E-3
546.179581E-3
545.150185E-3
546.302605E-3
545.211411E-3
545.782471E-3
546.487427E-3
547.549438E-3
551.922798E-3
555.566025E-3
561.105537E-3
567.141724E-3
571.534538E-3
576.906967E-3
578.087425E-3
579.797745E-3
579.934502E-3
578.179550E-3
577.217102E-3
573.692894E-3
572.042656E-3
569.677734E-3
567.172623E-3
566.845894E-3
564.942741E-3
564.812851E-3
565.177917E-3
565.040588E-3
566.836166E-3
566.428757E-3
567.482185E-3
568.328476E-3
567.261887E-3
568.576813E-3
566.613579E-3
565.567017E-3
564.462662E-3
563.003540E-3
563.499641E-3
562.483406E-3
563.107109E-3
563.861275E-3
563.150597E-3
565.216255E-3
564.828300E-3
565.334129E-3
565.301514E-3
564.174271E-3
564.828300E-3
563.051605E-3
562.343216E-3
561.987877E-3
560.512733E-3
561.007118E-3
558.857346E-3
558.392143E-3
557.870293E-3
556.502151E-3
557.171631E-3
555.943680E-3
556.018639E-3
555.861282E-3
555.207825E-3
556.090164E-3
555.247307E-3
555.344009E-3
555.450439E-3
554.771233E-3
555.655861E-3
554.827881E-3
554.869652E-3
555.147171E-3
554.398155E-3
555.758286E-3
554.790115E-3
554.629898E-3
554.514313E-3
553.690338E-3
554.294014E-3
553.248596E-3
553.153610E-3
553.374481E-3
552.176285E-3
553.209686E-3
552.199173E-3
551.834106E-3
551.809502E-3
550.420189E-3
551.330566E-3
550.319481E-3
550.366402E-3
550.547218E-3
549.244881E-3
550.475121E-3
549.536705E-3
549.350739E-3
549.597359E-3
548.642349E-3
549.595070E-3
548.760223E-3
548.759651E-3
548.616028E-3
547.213554E-3
547.991753E-3
547.327423E-3
546.925163E-3
547.194099E-3
545.785332E-3
547.125435E-3
546.864510E-3
546.586418E-3
547.291374E-3
547.958565E-3
552.314758E-3
555.991745E-3
560.822868E-3
566.652489E-3
570.398712E-3
575.623512E-3
577.759552E-3
578.687668E-3
579.034424E-3
576.675224E-3
576.295280E-3
573.722076E-3
570.842743E-3
569.278908E-3
566.447067E-3
566.396141E-3
565.468597E-3
564.666939E-3
564.923859E-3
564.237785E-3
565.872574E-3
566.451645E-3
566.676521E-3
567.665863E-3
566.803551E-3
567.657280E-3
566.251373E-3
564.585114E-3
563.615799E-3
562.017059E-3
562.988091E-3
562.540054E-3
562.586975E-3
563.725662E-3
563.814926E-3
565.676880E-3
565.335846E-3
564.475822E-3
564.862061E-3
563.595200E-3
563.781738E-3
562.838173E-3
561.236572E-3
560.992241E-3
559.416389E-3
559.732246E-3
558.536339E-3
557.717514E-3
557.761002E-3
556.345367E-3
556.874084E-3
555.932236E-3
555.145454E-3
555.600929E-3
554.932594E-3
555.957985E-3
555.578041E-3
554.687119E-3
555.289650E-3
554.553795E-3
555.537987E-3
555.183220E-3
554.420471E-3
554.865074E-3
553.914070E-3
554.823875E-3
554.588127E-3
554.005051E-3
554.387283E-3
553.335571E-3
554.091454E-3
553.772736E-3
553.148460E-3
553.280640E-3
552.035522E-3
552.733040E-3
551.767159E-3
550.436211E-3
551.039886E-3
550.413895E-3
551.148605E-3
550.453949E-3
549.714088E-3
550.229073E-3
549.529266E-3
550.305748E-3
549.902916E-3
548.784256E-3
549.427986E-3
548.577118E-3
549.085808E-3
549.070358E-3
547.864723E-3
548.601723E-3
547.577477E-3
548.127937E-3
547.856712E-3
546.222496E-3
546.775246E-3
545.987892E-3
546.971512E-3
546.900558E-3
546.157837E-3
547.268486E-3
547.612953E-3
550.886536E-3
554.348373E-3
558.251953E-3
564.430046E-3
568.234062E-3
573.125839E-3
575.843239E-3
576.498413E-3
578.015327E-3
575.771141E-3
574.438477E-3
572.067833E-3
569.074059E-3
568.277550E-3
565.220261E-3
564.282417E-3
563.091660E-3
561.990166E-3
563.052750E-3
562.351227E-3
563.653564E-3
564.081001E-3
563.828659E-3
565.488052E-3
564.068985E-3
563.535690E-3
562.660217E-3
561.016846E-3
561.884880E-3
560.323906E-3
561.223412E-3
561.999321E-3
561.490059E-3
564.027214E-3
563.880157E-3
564.668655E-3
564.806557E-3
563.658714E-3
564.614868E-3
562.648773E-3
561.780167E-3
561.087227E-3
559.525681E-3
560.054970E-3
557.935524E-3
557.596779E-3
557.057762E-3
555.782890E-3
556.413460E-3
554.601860E-3
554.771233E-3
554.735756E-3
553.991318E-3
555.004692E-3
553.843689E-3
554.122925E-3
554.487991E-3
553.614807E-3
554.589844E-3
553.214264E-3
553.778458E-3
554.018211E-3
553.382492E-3
554.593277E-3
553.095245E-3
553.271484E-3
553.347588E-3
552.694702E-3
553.454018E-3
552.339363E-3
552.537918E-3
552.401161E-3
551.377487E-3
552.202606E-3
551.079369E-3
551.061630E-3
550.740623E-3
548.773384E-3
550.619316E-3
549.332428E-3
549.358177E-3
549.420547E-3
548.575401E-3
549.779892E-3
548.265266E-3
548.311615E-3
548.423195E-3
547.603798E-3
548.327065E-3
547.216988E-3
546.973801E-3
547.001266E-3
546.232224E-3
547.214699E-3
545.931816E-3
545.962143E-3
546.356392E-3
545.799065E-3
547.779465E-3
548.367119E-3
551.834106E-3
556.550217E-3
560.865784E-3
567.181206E-3
571.058464E-3
574.721718E-3
577.636528E-3
577.956963E-3
579.158020E-3
576.810265E-3
574.820137E-3
573.128700E-3
569.924927E-3
569.403076E-3
566.936302E-3
566.007042E-3
565.375328E-3
564.854622E-3
566.008186E-3
565.694618E-3
566.522598E-3
567.725372E-3
567.564583E-3
569.265747E-3
568.558502E-3
567.774010E-3
567.067337E-3
564.406586E-3
564.774513E-3
563.266182E-3
562.919426E-3
563.300514E-3
562.611008E-3
564.504433E-3
564.522743E-3
565.040588E-3
565.560150E-3
564.446640E-3
565.286636E-3
564.335060E-3
563.701057E-3
563.032150E-3
560.200310E-3
561.312675E-3
560.073853E-3
559.215546E-3
559.026718E-3
557.502365E-3
558.159828E-3
556.978226E-3
556.488991E-3
556.624603E-3
555.112267E-3
556.136513E-3
555.789185E-3
555.555153E-3
555.723953E-3
554.685974E-3
556.050110E-3
555.544853E-3
555.087662E-3
555.307388E-3
554.304886E-3
555.571747E-3
554.833603E-3
554.534912E-3
554.831314E-3
553.657722E-3
554.695702E-3
554.482269E-3
553.752708E-3
553.485489E-3
552.148247E-3
553.552437E-3
552.937889E-3
552.235794E-3
552.176857E-3
550.916290E-3
551.963425E-3
551.052475E-3
550.331497E-3
550.443649E-3
549.242592E-3
550.865936E-3
550.234222E-3
549.219704E-3
549.760437E-3
548.962212E-3
550.013924E-3
549.490356E-3
548.506737E-3
548.908997E-3
548.044968E-3
548.542786E-3
547.841835E-3
547.182655E-3
547.390366E-3
546.637917E-3
547.372627E-3
546.567535E-3
546.398163E-3
546.972084E-3
546.857071E-3
549.139023E-3
551.178932E-3
554.349518E-3
560.017776E-3
564.854622E-3
571.176910E-3
574.865341E-3
576.940155E-3
578.478241E-3
578.086281E-3
578.193283E-3
576.369095E-3
573.637390E-3
571.658707E-3
569.100952E-3
568.326759E-3
567.142296E-3
566.041946E-3
566.254807E-3
565.649986E-3
567.179489E-3
567.457008E-3
567.881584E-3
569.127274E-3
568.861198E-3
569.686890E-3
569.136429E-3
567.642975E-3
566.592979E-3
564.425468E-3
564.058113E-3
563.093376E-3
562.813568E-3
563.443565E-3
563.557434E-3
565.003395E-3
564.794540E-3
564.765930E-3
565.381622E-3
564.408302E-3
564.804268E-3
563.936234E-3
562.347794E-3
562.122917E-3
560.591125E-3
560.821152E-3
559.972572E-3
558.242798E-3
557.899475E-3
556.704140E-3
557.347870E-3
557.088089E-3
555.817795E-3
556.129074E-3
555.259323E-3
555.722237E-3
555.335426E-3
554.958916E-3
555.321121E-3
554.439926E-3
555.140877E-3
555.120850E-3
554.548073E-3
555.063629E-3
554.334068E-3
554.839897E-3
554.652214E-3
553.697777E-3
554.586983E-3
553.456306E-3
553.930092E-3
553.589630E-3
552.434921E-3
553.546143E-3
551.970291E-3
552.424049E-3
551.910782E-3
550.831032E-3
552.009773E-3
550.705147E-3
551.065063E-3
550.461960E-3
549.468040E-3
550.741196E-3
549.662018E-3
549.930382E-3
549.607086E-3
548.646355E-3
550.154686E-3
548.613739E-3
548.911285E-3
549.082375E-3
548.096466E-3
549.024582E-3
547.705650E-3
547.950554E-3
547.548866E-3
546.588135E-3
547.654724E-3
546.354103E-3
546.479416E-3
546.906281E-3
546.042252E-3
547.542572E-3
546.645355E-3
547.923088E-3
550.045967E-3
553.003693E-3
559.206390E-3
563.231277E-3
568.635750E-3
572.805405E-3
574.982071E-3
577.599907E-3
576.306725E-3
575.546837E-3
573.926353E-3
571.242142E-3
570.093727E-3
567.062759E-3
565.966988E-3
564.654350E-3
563.541412E-3
564.242935E-3
563.282204E-3
563.973999E-3
565.120125E-3
565.154457E-3
566.887665E-3
566.318893E-3
566.538620E-3
565.917206E-3
563.833237E-3
563.974571E-3
561.672592E-3
561.421967E-3
561.515808E-3
561.399651E-3
563.457870E-3
562.847328E-3
564.074707E-3
564.795685E-3
564.348793E-3
565.325546E-3
563.330269E-3
562.858772E-3
562.102890E-3
560.747910E-3
560.900116E-3
558.875084E-3
558.574677E-3
557.885742E-3
556.605721E-3
557.009697E-3
555.425262E-3
555.389786E-3
555.178070E-3
554.395866E-3
555.350304E-3
554.239655E-3
554.278564E-3
554.540062E-3
553.853416E-3
554.973793E-3
554.003334E-3
553.982735E-3
554.201317E-3
553.302956E-3
554.695702E-3
553.411102E-3
553.557014E-3
553.578758E-3
552.888680E-3
553.776741E-3
552.531052E-3
552.451515E-3
552.043533E-3
551.435852E-3
552.558517E-3
551.150322E-3
551.237297E-3
550.992393E-3
550.037956E-3
550.921440E-3
549.861717E-3
549.723244E-3
549.481773E-3
547.525406E-3
549.765015E-3
548.858070E-3
548.688698E-3
548.674393E-3
547.748566E-3
548.887253E-3
547.596931E-3
547.148895E-3
547.128868E-3
546.198463E-3
547.011566E-3
545.820808E-3
545.845985E-3
546.165276E-3
545.585632E-3
546.769524E-3
546.767807E-3
548.506165E-3
551.650429E-3
555.545425E-3
562.060547E-3
566.453934E-3
570.901680E-3
575.032997E-3
576.180840E-3
578.436470E-3
577.076912E-3
575.676155E-3
574.129486E-3
571.143150E-3
570.291138E-3
567.711639E-3
566.345787E-3
565.728378E-3
564.343071E-3
565.477753E-3
565.214539E-3
566.046524E-3
567.079926E-3
566.077423E-3
568.820572E-3
568.714142E-3
568.434906E-3
567.679596E-3
565.374756E-3
565.551567E-3
563.519669E-3
562.513161E-3
562.493706E-3
561.409950E-3
562.916565E-3
563.004684E-3
563.618088E-3
564.365387E-3
563.687325E-3
564.748764E-3
563.913345E-3
563.212967E-3
562.533760E-3
560.999107E-3
561.456871E-3
560.015488E-3
559.039307E-3
558.610153E-3
556.824303E-3
557.516670E-3
556.476974E-3
555.762863E-3
555.998039E-3
554.588127E-3
555.679321E-3
555.133438E-3
554.393005E-3
