Notes :


2023-11-13 ¿ÀÀü 12:51:53
Volts
Ch : LED 2,
905.113792E-3
905.006218E-3
904.900360E-3
904.727554E-3
904.596519E-3
904.547310E-3
904.293251E-3
904.215431E-3
904.094124E-3
903.912163E-3
903.971672E-3
903.599739E-3
903.610039E-3
903.568268E-3
903.063583E-3
902.832413E-3
902.421570E-3
902.105141E-3
901.951218E-3
901.514626E-3
901.425362E-3
901.320648E-3
901.348114E-3
901.817894E-3
902.988052E-3
905.068016E-3
907.686424E-3
910.630417E-3
913.636208E-3
915.603447E-3
917.671967E-3
919.083023E-3
919.779396E-3
920.080376E-3
919.896126E-3
919.620895E-3
919.083023E-3
918.400955E-3
917.582703E-3
916.983032E-3
916.759872E-3
916.292381E-3
916.040611E-3
916.042328E-3
915.847206E-3
916.101265E-3
916.007423E-3
915.461540E-3
915.815735E-3
915.883255E-3
915.846634E-3
915.379715E-3
914.627838E-3
914.090538E-3
913.491440E-3
913.253975E-3
913.678551E-3
913.216782E-3
913.231659E-3
913.269997E-3
913.548660E-3
913.628769E-3
913.643646E-3
913.680840E-3
913.649368E-3
913.445663E-3
913.276863E-3
913.058281E-3
912.635422E-3
912.229156E-3
911.793137E-3
911.494446E-3
911.069870E-3
910.812378E-3
910.563469E-3
910.350609E-3
909.967232E-3
909.714317E-3
909.534073E-3
909.196472E-3
909.104919E-3
908.841133E-3
908.638000E-3
909.095192E-3
908.546448E-3
908.298683E-3
907.965088E-3
907.715607E-3
907.662392E-3
907.475281E-3
908.029747E-3
907.436943E-3
907.109070E-3
907.145119E-3
906.995773E-3
906.823540E-3
906.727982E-3
906.553459E-3
906.445312E-3
905.624199E-3
906.077957E-3
906.004715E-3
905.929184E-3
905.973244E-3
905.777550E-3
905.710602E-3
905.554962E-3
905.389023E-3
905.626488E-3
905.400467E-3
905.320358E-3
905.126381E-3
905.010796E-3
905.004501E-3
904.751587E-3
904.689789E-3
904.409981E-3
903.859520E-3
903.959656E-3
903.653526E-3
903.434944E-3
903.146553E-3
903.123665E-3
903.155136E-3
903.363419E-3
904.262924E-3
906.028748E-3
908.127594E-3
910.906792E-3
913.700867E-3
916.235161E-3
918.411255E-3
919.829750E-3
920.881462E-3
921.232796E-3
921.144104E-3
920.922089E-3
920.542145E-3
920.070076E-3
919.298744E-3
918.918228E-3
918.499947E-3
917.927170E-3
917.591286E-3
917.312050E-3
917.334366E-3
917.337799E-3
917.514610E-3
917.658806E-3
917.619324E-3
917.591858E-3
918.039322E-3
917.222214E-3
916.593361E-3
915.841484E-3
915.386581E-3
915.060997E-3
914.735985E-3
914.928818E-3
914.826965E-3
914.552879E-3
915.063286E-3
915.437508E-3
915.652657E-3
915.650940E-3
915.548515E-3
915.466118E-3
915.298462E-3
915.117073E-3
914.081955E-3
914.259338E-3
913.998413E-3
913.694572E-3
913.387871E-3
913.232231E-3
912.982750E-3
912.605095E-3
912.262344E-3
912.561607E-3
912.075233E-3
911.699295E-3
911.630058E-3
911.445808E-3
911.393738E-3
911.038971E-3
911.004066E-3
910.763741E-3
910.680199E-3
910.599518E-3
910.426712E-3
910.419273E-3
910.121727E-3
910.051346E-3
910.011864E-3
909.841347E-3
909.785843E-3
909.736061E-3
909.614182E-3
909.544945E-3
909.343529E-3
909.342384E-3
909.334373E-3
909.114075E-3
909.167862E-3
909.100342E-3
908.953285E-3
908.786774E-3
908.612823E-3
908.571053E-3
908.278656E-3
908.160210E-3
908.032608E-3
907.779694E-3
907.731628E-3
907.428932E-3
907.268715E-3
907.060432E-3
906.655312E-3
906.427002E-3
906.262779E-3
905.992126E-3
905.314636E-3
905.595016E-3
906.095695E-3
906.883621E-3
908.610535E-3
910.889626E-3
913.324356E-3
916.188240E-3
918.471336E-3
920.617104E-3
921.536636E-3
922.064781E-3
922.277069E-3
921.998405E-3
921.661949E-3
921.051407E-3
920.326996E-3
919.737625E-3
918.889618E-3
918.344879E-3
917.970085E-3
917.586708E-3
917.419052E-3
917.144966E-3
917.203331E-3
917.314911E-3
917.163277E-3
917.357254E-3
916.945267E-3
916.402817E-3
915.666962E-3
915.041542E-3
914.623260E-3
914.249039E-3
914.048767E-3
914.083099E-3
914.421272E-3
914.480209E-3
914.672470E-3
914.790916E-3
914.857864E-3
914.904213E-3
914.935112E-3
914.752579E-3
914.553452E-3
914.215279E-3
913.784409E-3
913.475418E-3
912.994766E-3
912.683487E-3
912.194252E-3
911.679840E-3
911.123657E-3
910.931969E-3
910.807800E-3
910.524559E-3
910.199547E-3
910.077667E-3
909.734917E-3
909.713173E-3
909.495163E-3
909.508324E-3
909.229088E-3
908.959007E-3
908.723831E-3
908.549309E-3
908.396530E-3
908.572769E-3
908.198547E-3
908.081818E-3
907.443237E-3
907.665253E-3
907.763100E-3
907.640648E-3
907.499313E-3
907.481575E-3
907.254410E-3
907.201195E-3
907.099915E-3
907.216072E-3
906.988907E-3
906.729126E-3
906.663322E-3
906.454468E-3
906.392097E-3
906.210136E-3
906.053925E-3
905.988121E-3
905.747795E-3
905.791855E-3
905.588150E-3
905.304337E-3
905.259132E-3
904.789925E-3
904.581642E-3
904.298401E-3
903.901863E-3
903.591156E-3
903.377724E-3
903.488731E-3
903.719902E-3
904.121017E-3
905.468559E-3
907.324219E-3
910.101128E-3
912.856865E-3
915.602875E-3
917.891121E-3
919.506454E-3
920.568466E-3
921.306038E-3
921.398735E-3
921.379280E-3
920.850563E-3
920.385361E-3
919.932747E-3
919.184303E-3
918.738556E-3
918.295670E-3
917.901421E-3
917.761803E-3
917.666245E-3
917.489433E-3
917.669678E-3
917.761230E-3
917.857361E-3
917.736626E-3
917.654800E-3
917.219353E-3
916.853714E-3
916.270065E-3
915.964508E-3
915.377426E-3
914.833260E-3
915.070724E-3
915.046692E-3
915.108490E-3
915.189743E-3
915.261269E-3
915.460968E-3
915.887833E-3
915.610313E-3
915.498734E-3
915.291595E-3
915.075302E-3
914.779472E-3
914.403534E-3
914.096260E-3
913.687706E-3
913.433075E-3
913.017082E-3
912.616539E-3
912.327003E-3
912.051201E-3
911.818314E-3
911.629486E-3
911.321640E-3
911.219215E-3
910.522270E-3
910.681915E-3
910.664177E-3
910.465050E-3
910.300827E-3
910.116577E-3
909.953499E-3
909.848213E-3
909.594727E-3
909.589577E-3
909.480286E-3
909.351540E-3
909.284019E-3
909.214211E-3
909.032249E-3
908.834267E-3
908.550453E-3
908.607101E-3
908.371925E-3
908.454895E-3
908.323860E-3
908.281517E-3
908.168793E-3
907.994270E-3
908.048058E-3
907.788277E-3
907.750511E-3
907.704163E-3
907.417488E-3
907.319069E-3
907.208633E-3
906.974030E-3
906.813812E-3
906.512833E-3
905.986977E-3
905.809021E-3
905.361557E-3
905.252838E-3
905.055428E-3
905.010796E-3
904.938126E-3
905.124664E-3
905.677414E-3
906.980896E-3
908.862305E-3
911.240959E-3
913.920593E-3
916.569328E-3
918.618965E-3
920.270348E-3
921.323776E-3
921.996689E-3
922.533989E-3
922.093964E-3
921.559525E-3
920.986176E-3
920.416832E-3
919.932747E-3
919.239807E-3
918.943977E-3
918.585205E-3
918.371773E-3
918.426704E-3
918.283653E-3
918.535423E-3
918.579483E-3
918.659019E-3
918.605232E-3
918.822670E-3
918.270493E-3
917.460251E-3
916.869736E-3
916.164780E-3
915.797997E-3
915.766525E-3
915.604591E-3
915.816879E-3
915.700722E-3
915.910721E-3
916.198540E-3
916.268349E-3
916.265488E-3
916.257477E-3
916.155052E-3
916.016006E-3
915.818024E-3
916.174507E-3
915.446091E-3
914.815521E-3
914.523697E-3
914.068794E-3
913.860512E-3
913.461685E-3
913.185310E-3
912.898064E-3
913.164139E-3
912.669754E-3
912.414551E-3
912.217140E-3
912.238884E-3
911.951065E-3
911.974525E-3
911.844063E-3
911.504745E-3
910.589218E-3
910.836983E-3
911.015511E-3
911.062431E-3
910.878181E-3
910.895920E-3
910.686493E-3
910.527420E-3
910.581207E-3
910.208130E-3
910.305405E-3
910.189819E-3
910.213852E-3
910.130882E-3
910.015869E-3
910.000992E-3
909.570694E-3
909.805870E-3
909.677124E-3
909.500313E-3
909.499741E-3
909.334373E-3
909.383011E-3
909.377861E-3
908.983040E-3
909.544373E-3
908.858871E-3
908.533287E-3
908.356476E-3
908.016014E-3
907.787704E-3
907.541656E-3
907.428932E-3
907.122231E-3
907.234955E-3
907.015800E-3
907.139397E-3
907.569122E-3
908.383942E-3
910.008430E-3
912.328148E-3
914.859009E-3
917.378426E-3
919.955063E-3
921.303177E-3
922.476768E-3
923.085022E-3
923.379707E-3
923.205757E-3
922.903061E-3
922.433281E-3
921.934319E-3
921.253395E-3
920.788193E-3
920.308685E-3
920.162773E-3
919.781685E-3
919.753647E-3
919.769669E-3
919.731903E-3
919.858932E-3
920.077515E-3
920.042038E-3
919.795990E-3
919.496155E-3
918.984604E-3
918.394661E-3
917.768669E-3
917.492294E-3
917.386436E-3
917.360687E-3
917.436790E-3
917.784119E-3
918.049622E-3
918.146896E-3
918.305397E-3
918.324852E-3
917.788124E-3
917.958069E-3
917.742920E-3
917.507172E-3
917.225075E-3
916.959572E-3
916.715813E-3
916.248894E-3
916.014290E-3
916.383934E-3
915.724182E-3
915.357971E-3
914.995766E-3
914.801216E-3
914.585495E-3
914.354897E-3
914.340591E-3
914.072227E-3
913.211060E-3
913.485146E-3
913.337517E-3
913.462830E-3
913.239098E-3
913.261986E-3
913.068581E-3
913.031960E-3
912.958145E-3
913.060570E-3
912.670898E-3
912.493515E-3
912.474632E-3
912.387085E-3
912.288666E-3
912.233162E-3
912.110710E-3
912.054634E-3
911.859512E-3
911.798286E-3
911.702728E-3
911.637497E-3
911.360550E-3
911.372566E-3
910.994339E-3
910.853004E-3
910.610962E-3
910.941124E-3
910.364914E-3
909.887123E-3
909.606171E-3
909.199905E-3
908.973312E-3
908.763313E-3
908.473778E-3
908.448601E-3
908.386803E-3
908.562469E-3
909.364128E-3
910.726547E-3
912.866592E-3
915.266991E-3
917.633057E-3
919.729042E-3
921.256828E-3
922.473335E-3
923.107338E-3
923.272133E-3
923.147964E-3
922.665024E-3
922.368622E-3
921.705437E-3
921.103477E-3
920.666885E-3
920.197105E-3
919.799423E-3
919.522476E-3
919.323349E-3
919.327354E-3
919.113350E-3
919.233513E-3
919.766235E-3
919.351959E-3
918.865013E-3
918.230438E-3
917.677689E-3
916.929245E-3
916.444588E-3
916.159630E-3
916.090393E-3
916.377640E-3
916.423988E-3
916.507530E-3
916.532135E-3
916.772461E-3
916.878891E-3
916.913223E-3
916.793060E-3
916.649437E-3
916.924095E-3
916.216278E-3
915.779686E-3
915.487862E-3
915.145111E-3
914.500809E-3
914.251328E-3
913.754082E-3
913.593292E-3
913.245964E-3
912.836838E-3
912.750435E-3
912.475777E-3
912.316704E-3
912.118149E-3
911.831474E-3
912.270927E-3
911.760521E-3
911.424065E-3
911.366844E-3
911.125946E-3
910.846138E-3
910.806084E-3
910.648155E-3
910.574913E-3
910.567474E-3
910.428429E-3
910.257912E-3
910.146904E-3
910.058784E-3
909.811592E-3
909.812164E-3
909.658813E-3
909.453964E-3
908.660889E-3
909.091759E-3
909.124374E-3
909.140396E-3
909.200478E-3
909.087181E-3
909.003639E-3
909.005356E-3
908.700371E-3
908.886909E-3
908.407974E-3
907.954788E-3
907.767677E-3
907.340240E-3
907.158279E-3
906.956863E-3
906.702232E-3
906.440735E-3
906.923103E-3
906.549454E-3
906.718254E-3
907.514191E-3
909.088326E-3
911.448669E-3
913.948631E-3
916.680336E-3
918.918228E-3
921.050262E-3
922.063065E-3
922.655296E-3
922.940254E-3
922.751427E-3
922.658730E-3
922.223282E-3
921.540642E-3
921.106911E-3
920.587921E-3
920.307541E-3
919.894981E-3
919.808006E-3
919.636345E-3
919.715309E-3
919.850922E-3
920.530701E-3
920.285225E-3
920.283508E-3
919.978523E-3
919.844627E-3
919.456100E-3
918.845558E-3
918.321419E-3
917.618179E-3
917.187881E-3
916.897774E-3
917.048264E-3
917.136955E-3
917.083168E-3
917.234230E-3
917.334366E-3
917.482567E-3
917.556953E-3
916.598511E-3
917.027092E-3
916.740990E-3
916.635704E-3
916.425133E-3
916.009712E-3
915.763092E-3
915.454674E-3
915.114212E-3
914.998627E-3
914.647293E-3
914.421844E-3
914.223289E-3
913.894844E-3
913.699722E-3
913.508034E-3
913.496017E-3
913.217354E-3
912.767029E-3
912.709236E-3
912.563896E-3
912.622833E-3
912.329865E-3
912.131882E-3
912.036324E-3
911.803436E-3
911.734772E-3
911.345100E-3
911.318779E-3
911.361122E-3
911.247253E-3
911.246109E-3
911.090469E-3
910.922813E-3
910.993195E-3
910.677338E-3
910.697937E-3
910.554886E-3
910.326576E-3
910.260773E-3
910.110283E-3
909.993553E-3
910.062790E-3
909.599876E-3
909.663963E-3
909.435654E-3
909.389305E-3
909.139252E-3
909.003639E-3
908.861732E-3
908.506966E-3
908.332443E-3
908.218575E-3
907.838631E-3
907.579422E-3
907.489014E-3
907.629776E-3
907.890701E-3
908.491516E-3
909.944916E-3
911.957359E-3
914.042473E-3
917.110062E-3
919.523621E-3
921.455956E-3
922.755432E-3
923.633766E-3
923.945045E-3
923.935318E-3
923.677254E-3
923.168564E-3
922.866440E-3
922.312546E-3
921.714020E-3
921.277428E-3
920.922661E-3
920.841980E-3
920.686913E-3
920.734978E-3
920.723534E-3
920.662308E-3
921.022797E-3
920.847130E-3
920.758438E-3
920.612526E-3
920.211411E-3
919.624329E-3
918.956566E-3
918.467331E-3
918.003845E-3
917.737198E-3
917.776108E-3
917.910576E-3
917.980385E-3
918.184090E-3
919.034386E-3
918.736839E-3
918.590355E-3
918.342018E-3
918.283653E-3
917.951775E-3
917.720032E-3
917.406464E-3
917.008209E-3
916.289520E-3
916.232300E-3
916.190529E-3
915.838051E-3
915.506172E-3
915.324783E-3
915.240097E-3
915.026093E-3
914.764023E-3
914.208412E-3
914.296532E-3
914.073944E-3
914.168358E-3
913.889694E-3
913.811302E-3
913.570976E-3
913.389015E-3
913.281441E-3
913.638496E-3
913.136101E-3
912.965584E-3
912.700653E-3
912.668610E-3
912.619972E-3
912.571907E-3
912.516403E-3
912.410545E-3
913.065147E-3
912.543869E-3
912.179375E-3
912.066650E-3
911.812019E-3
911.851501E-3
911.673546E-3
911.550522E-3
911.350250E-3
911.905861E-3
911.253548E-3
911.042976E-3
910.676765E-3
910.442734E-3
910.029030E-3
909.840775E-3
909.370995E-3
909.155273E-3
908.951569E-3
908.773613E-3
908.847427E-3
908.714104E-3
909.011078E-3
910.123444E-3
911.802864E-3
913.439369E-3
916.385651E-3
918.982887E-3
920.990181E-3
922.481346E-3
923.444366E-3
923.847771E-3
923.832321E-3
923.688698E-3
923.577118E-3
922.785187E-3
922.023010E-3
921.423340E-3
920.969009E-3
920.375633E-3
920.034599E-3
919.836617E-3
919.766235E-3
919.491005E-3
919.592857E-3
919.591141E-3
919.600868E-3
919.478416E-3
919.220924E-3
918.705940E-3
918.121719E-3
917.518616E-3
916.555023E-3
916.598511E-3
916.418266E-3
916.534424E-3
916.600227E-3
916.812515E-3
917.063713E-3
917.129517E-3
917.231369E-3
916.624832E-3
916.971016E-3
916.890335E-3
916.662025E-3
916.465187E-3
915.975952E-3
915.470123E-3
915.018082E-3
914.638710E-3
914.857864E-3
914.075089E-3
913.439369E-3
913.201904E-3
912.873459E-3
912.519264E-3
912.293243E-3
911.848640E-3
911.831474E-3
911.522484E-3
911.422348E-3
911.231232E-3
910.965157E-3
910.877609E-3
910.640144E-3
910.419273E-3
910.789490E-3
910.264778E-3
910.184097E-3
909.860802E-3
909.693146E-3
909.537506E-3
909.401321E-3
909.374428E-3
909.214211E-3
909.588432E-3
909.082603E-3
908.688927E-3
908.829117E-3
908.569908E-3
908.577919E-3
908.362770E-3
908.161926E-3
908.065796E-3
907.266426E-3
907.333374E-3
907.157135E-3
906.993484E-3
906.752586E-3
906.243896E-3
906.068230E-3
905.632210E-3
905.267143E-3
904.698372E-3
904.911232E-3
905.251122E-3
905.732346E-3
907.066727E-3
909.234810E-3
911.650085E-3
914.510536E-3
916.860580E-3
918.897629E-3
920.373344E-3
921.276855E-3
921.848488E-3
921.918869E-3
921.649933E-3
921.399307E-3
920.736694E-3
920.089531E-3
919.347382E-3
918.879890E-3
918.437576E-3
918.073654E-3
917.905998E-3
917.823029E-3
917.761230E-3
917.633057E-3
917.785263E-3
917.861366E-3
