Notes :


2023-11-04 ¿ÀÈÄ 10:01:34
Volts
Ch : LED 2,
550.068283E-3
549.853706E-3
549.571609E-3
549.292374E-3
548.747063E-3
548.498726E-3
547.777748E-3
547.253609E-3
546.904564E-3
546.348381E-3
546.066284E-3
545.635414E-3
545.199966E-3
544.961357E-3
544.568253E-3
544.409752E-3
544.181442E-3
544.041252E-3
543.826103E-3
543.646431E-3
543.509674E-3
543.279648E-3
543.025017E-3
542.643929E-3
542.649078E-3
542.496872E-3
542.392731E-3
542.152405E-3
542.005920E-3
541.761017E-3
541.667175E-3
541.412544E-3
541.220284E-3
541.071510E-3
540.816307E-3
540.749359E-3
540.634346E-3
540.448380E-3
540.335083E-3
540.180588E-3
540.048981E-3
539.711952E-3
539.529991E-3
539.395523E-3
539.102554E-3
538.936615E-3
538.536644E-3
538.228798E-3
537.927246E-3
537.568474E-3
537.504959E-3
537.036324E-3
536.769676E-3
536.629486E-3
536.599731E-3
537.189674E-3
538.657379E-3
541.046906E-3
544.069862E-3
547.441292E-3
550.537491E-3
553.298378E-3
555.333138E-3
556.534195E-3
556.914711E-3
556.661224E-3
555.773163E-3
554.692268E-3
553.678322E-3
552.218628E-3
550.965500E-3
549.977303E-3
549.276924E-3
548.917007E-3
548.568535E-3
548.571968E-3
548.706436E-3
548.946190E-3
549.188232E-3
549.213409E-3
549.168777E-3
548.746490E-3
548.080444E-3
547.402382E-3
546.855354E-3
546.386147E-3
546.075439E-3
545.976448E-3
546.187019E-3
546.365547E-3
546.619034E-3
546.769524E-3
546.885109E-3
546.919441E-3
546.866226E-3
546.693420E-3
546.475410E-3
545.971298E-3
545.729256E-3
545.119286E-3
544.708443E-3
544.250107E-3
543.589783E-3
543.406105E-3
542.978096E-3
542.738342E-3
542.521477E-3
542.173004E-3
542.020798E-3
541.782761E-3
541.632843E-3
541.589928E-3
541.370201E-3
541.315269E-3
541.258621E-3
541.118431E-3
541.017151E-3
540.861511E-3
540.712166E-3
540.567398E-3
540.593147E-3
540.429497E-3
540.204620E-3
540.178299E-3
540.020943E-3
539.967155E-3
539.838409E-3
539.633560E-3
539.570045E-3
539.532852E-3
539.313698E-3
539.187813E-3
538.997269E-3
538.922882E-3
538.760948E-3
538.685417E-3
538.508034E-3
538.452530E-3
538.577271E-3
538.262558E-3
538.113213E-3
537.899780E-3
537.553024E-3
537.359619E-3
537.044334E-3
536.929321E-3
536.563683E-3
536.232376E-3
536.135101E-3
535.906792E-3
535.984039E-3
536.407471E-3
537.664032E-3
539.895630E-3
542.958069E-3
546.240234E-3
549.493217E-3
552.478981E-3
554.886818E-3
556.380844E-3
557.219696E-3
557.102966E-3
556.463242E-3
555.375481E-3
554.094315E-3
552.880096E-3
551.656723E-3
550.614738E-3
549.980736E-3
549.473190E-3
549.209404E-3
549.225998E-3
549.050331E-3
549.523544E-3
549.767876E-3
550.059128E-3
550.120926E-3
549.993324E-3
549.470329E-3
548.863220E-3
548.081017E-3
547.672462E-3
547.052193E-3
546.723175E-3
546.536064E-3
546.656227E-3
546.755791E-3
546.812439E-3
547.053909E-3
547.050476E-3
546.901131E-3
547.057343E-3
546.864510E-3
546.687698E-3
546.273422E-3
545.902061E-3
545.571899E-3
544.960785E-3
544.710732E-3
544.420624E-3
544.009209E-3
543.602943E-3
543.175507E-3
542.974663E-3
542.732048E-3
542.605019E-3
542.422485E-3
542.183876E-3
542.071724E-3
541.968155E-3
541.883469E-3
541.754723E-3
541.693497E-3
541.653442E-3
541.410255E-3
541.539001E-3
541.352463E-3
541.247177E-3
541.195679E-3
541.139030E-3
541.012001E-3
540.916443E-3
540.803719E-3
540.739059E-3
540.368843E-3
540.434074E-3
540.264130E-3
540.057564E-3
540.000916E-3
539.884758E-3
539.860153E-3
539.745712E-3
539.512253E-3
539.525986E-3
539.293098E-3
539.139175E-3
539.106560E-3
539.006996E-3
538.849068E-3
538.586998E-3
538.365555E-3
538.250542E-3
537.899780E-3
537.716103E-3
537.450600E-3
537.183952E-3
536.983681E-3
536.907578E-3
536.925888E-3
536.950493E-3
537.634277E-3
539.264488E-3
541.676331E-3
544.766808E-3
548.143959E-3
551.344872E-3
554.100037E-3
556.006622E-3
557.136726E-3
557.374191E-3
556.739044E-3
556.013489E-3
554.826736E-3
553.597641E-3
552.350235E-3
551.195526E-3
550.321770E-3
549.655724E-3
549.310684E-3
549.284935E-3
549.282646E-3
549.375916E-3
549.540710E-3
549.783897E-3
549.771881E-3
549.685478E-3
549.367332E-3
548.738480E-3
548.006058E-3
547.298813E-3
546.930885E-3
546.726608E-3
546.702576E-3
546.894264E-3
547.010994E-3
547.176933E-3
547.495079E-3
547.641563E-3
547.701073E-3
547.677040E-3
547.481918E-3
547.327423E-3
546.898270E-3
546.490288E-3
546.173859E-3
545.512390E-3
544.982529E-3
544.490433E-3
544.060135E-3
543.686485E-3
543.263054E-3
543.022156E-3
542.661667E-3
542.278290E-3
542.253685E-3
542.018509E-3
541.995049E-3
541.765594E-3
541.623688E-3
541.444016E-3
541.312981E-3
541.171646E-3
541.223145E-3
540.942764E-3
540.830612E-3
540.692711E-3
540.545082E-3
540.284157E-3
540.207481E-3
540.003204E-3
539.856720E-3
539.499092E-3
539.535713E-3
539.351463E-3
539.284515E-3
539.189529E-3
539.024734E-3
538.726044E-3
538.605881E-3
538.421631E-3
538.128090E-3
538.046265E-3
537.835693E-3
537.704086E-3
537.488365E-3
537.131882E-3
536.902428E-3
536.588860E-3
536.327362E-3
535.964012E-3
535.676193E-3
535.526848E-3
535.319710E-3
535.294533E-3
535.584068E-3
536.588860E-3
538.336372E-3
541.162491E-3
544.426346E-3
547.591209E-3
550.530624E-3
552.892113E-3
554.362106E-3
555.124855E-3
555.099678E-3
554.404449E-3
553.632545E-3
552.385139E-3
551.295662E-3
550.091743E-3
549.062920E-3
548.316765E-3
547.683334E-3
547.557449E-3
547.534561E-3
547.547722E-3
547.630119E-3
547.741699E-3
547.920227E-3
548.050117E-3
547.805786E-3
547.328568E-3
546.545792E-3
545.997047E-3
545.341873E-3
544.987106E-3
544.819450E-3
544.814301E-3
544.941902E-3
545.106697E-3
545.185661E-3
545.328140E-3
545.450592E-3
545.458031E-3
545.434570E-3
545.172501E-3
544.861794E-3
544.452667E-3
544.081306E-3
543.559456E-3
543.101120E-3
542.625618E-3
542.115784E-3
541.803932E-3
541.460037E-3
541.093826E-3
540.820885E-3
540.602875E-3
540.451813E-3
540.230370E-3
540.133095E-3
540.021515E-3
539.801216E-3
539.827538E-3
539.645576E-3
539.574051E-3
539.473915E-3
539.251900E-3
539.293098E-3
538.988113E-3
539.004707E-3
538.887405E-3
538.733482E-3
538.615608E-3
538.514328E-3
538.386154E-3
538.275146E-3
538.096619E-3
537.919235E-3
537.848282E-3
537.729836E-3
537.685204E-3
537.419701E-3
537.316132E-3
537.239456E-3
537.093544E-3
536.942482E-3
536.871529E-3
536.719322E-3
536.628914E-3
536.441803E-3
536.354828E-3
536.025810E-3
535.808372E-3
535.446739E-3
535.285378E-3
534.952927E-3
534.675980E-3
534.518623E-3
534.382439E-3
534.452820E-3
534.951210E-3
535.964584E-3
538.064575E-3
541.006279E-3
544.060135E-3
547.320557E-3
550.249100E-3
552.618599E-3
554.310608E-3
554.970360E-3
555.091667E-3
554.486275E-3
553.562164E-3
552.338219E-3
551.177788E-3
550.081444E-3
549.041176E-3
548.387718E-3
547.873878E-3
547.574615E-3
547.657585E-3
547.639847E-3
547.920227E-3
548.055840E-3
548.199463E-3
548.243523E-3
548.114204E-3
547.735405E-3
547.113991E-3
546.574974E-3
545.870018E-3
545.341873E-3
545.165634E-3
545.066071E-3
545.123863E-3
545.296097E-3
545.482635E-3
545.636559E-3
545.733261E-3
545.692062E-3
545.696640E-3
545.547867E-3
545.350456E-3
545.016861E-3
544.540215E-3
544.023514E-3
543.598366E-3
543.287086E-3
542.798996E-3
542.480850E-3
542.164421E-3
541.759872E-3
541.505241E-3
541.312981E-3
541.221428E-3
540.907860E-3
540.717316E-3
540.645218E-3
540.578270E-3
540.386009E-3
540.376854E-3
540.211487E-3
540.184593E-3
540.138245E-3
539.904785E-3
539.900780E-3
539.784050E-3
539.709663E-3
539.644432E-3
539.544296E-3
539.511108E-3
539.298248E-3
539.372063E-3
539.198112E-3
538.989258E-3
538.937187E-3
538.681412E-3
538.634491E-3
538.542366E-3
538.509750E-3
538.386154E-3
538.392448E-3
538.289452E-3
538.104057E-3
537.998199E-3
537.848854E-3
537.717247E-3
537.618256E-3
537.306404E-3
537.043190E-3
536.951637E-3
536.670685E-3
536.432076E-3
536.115074E-3
535.973740E-3
535.947990E-3
535.907936E-3
536.322212E-3
537.567902E-3
539.845848E-3
542.598724E-3
545.786476E-3
548.977661E-3
551.707649E-3
553.928947E-3
555.301094E-3
555.949402E-3
555.656433E-3
554.905701E-3
553.801918E-3
552.675819E-3
551.392365E-3
550.353813E-3
549.360466E-3
548.535347E-3
547.871590E-3
547.695351E-3
547.723961E-3
547.869301E-3
547.989464E-3
548.265266E-3
548.306465E-3
548.249245E-3
547.949409E-3
547.603226E-3
546.917152E-3
546.228790E-3
545.979881E-3
545.753288E-3
545.701218E-3
545.851135E-3
546.026230E-3
546.277428E-3
546.399307E-3
546.550941E-3
546.747208E-3
546.578407E-3
546.497154E-3
546.141815E-3
545.790482E-3
545.265198E-3
544.693565E-3
544.025803E-3
543.601799E-3
543.161774E-3
542.740059E-3
542.283440E-3
541.930962E-3
541.676903E-3
541.363335E-3
541.093826E-3
540.854073E-3
540.676689E-3
540.399170E-3
540.123367E-3
539.997482E-3
539.820099E-3
539.747429E-3
539.651299E-3
539.446449E-3
539.417839E-3
539.156914E-3
539.067650E-3
538.973808E-3
538.772392E-3
538.682556E-3
538.371849E-3
538.379288E-3
538.228798E-3
538.107491E-3
537.969017E-3
537.742424E-3
537.662888E-3
537.507248E-3
537.410545E-3
537.316132E-3
537.204552E-3
537.019157E-3
536.726761E-3
536.504173E-3
536.363983E-3
535.955429E-3
535.792351E-3
535.517693E-3
535.138321E-3
534.733200E-3
534.530640E-3
534.338951E-3
534.217644E-3
534.173012E-3
534.791565E-3
536.164856E-3
538.455963E-3
541.470909E-3
544.349670E-3
547.511101E-3
550.171280E-3
552.124214E-3
553.390503E-3
553.779602E-3
553.682899E-3
553.046036E-3
552.099609E-3
551.081085E-3
549.784470E-3
548.655510E-3
547.672462E-3
547.107697E-3
546.590996E-3
546.324348E-3
546.399307E-3
546.516609E-3
546.672821E-3
546.867943E-3
546.889687E-3
546.890259E-3
546.461105E-3
545.944977E-3
545.193672E-3
544.448090E-3
544.011497E-3
543.953133E-3
543.726540E-3
543.820953E-3
543.911934E-3
544.089890E-3
544.129944E-3
544.379997E-3
544.448090E-3
544.368553E-3
544.247818E-3
544.097900E-3
543.904495E-3
543.396950E-3
542.948341E-3
542.513466E-3
541.931534E-3
541.573334E-3
541.163635E-3
540.777969E-3
540.552521E-3
540.141678E-3
539.965439E-3
539.753151E-3
539.459610E-3
539.266205E-3
539.015579E-3
539.009857E-3
538.809013E-3
538.753510E-3
538.637924E-3
538.513756E-3
538.364983E-3
538.272285E-3
538.109207E-3
538.075447E-3
537.916946E-3
537.768745E-3
537.598228E-3
537.430573E-3
537.380791E-3
537.194824E-3
537.122154E-3
537.064362E-3
536.808586E-3
536.808586E-3
536.536789E-3
536.680412E-3
536.521912E-3
536.437225E-3
536.302757E-3
536.149406E-3
536.120796E-3
535.721970E-3
535.670471E-3
535.594368E-3
535.283661E-3
535.109711E-3
534.899139E-3
534.597588E-3
534.278870E-3
533.960152E-3
533.690643E-3
533.626556E-3
533.641434E-3
534.286880E-3
535.584068E-3
537.854004E-3
540.685272E-3
543.799782E-3
546.976089E-3
549.652290E-3
552.038956E-3
553.404808E-3
554.044533E-3
554.027939E-3
553.274345E-3
552.362251E-3
551.340294E-3
550.041389E-3
549.026871E-3
548.154831E-3
547.527122E-3
547.134590E-3
546.940613E-3
547.041321E-3
547.126007E-3
547.578049E-3
547.581482E-3
547.615242E-3
547.706795E-3
547.437286E-3
546.879959E-3
546.197891E-3
545.340157E-3
544.820023E-3
544.220352E-3
544.156265E-3
544.159126E-3
544.244385E-3
544.392586E-3
544.577980E-3
544.701004E-3
544.804573E-3
544.765663E-3
544.971085E-3
544.517326E-3
544.169426E-3
543.758583E-3
543.275642E-3
542.935181E-3
542.429924E-3
542.047691E-3
541.567039E-3
541.151619E-3
540.763664E-3
540.402603E-3
540.002632E-3
539.730263E-3
539.481354E-3
539.384651E-3
539.131165E-3
539.059639E-3
538.810158E-3
538.711166E-3
538.796425E-3
538.587570E-3
538.470268E-3
538.332367E-3
538.247681E-3
538.167572E-3
538.033676E-3
537.741852E-3
537.720680E-3
537.684059E-3
537.603378E-3
537.360191E-3
537.296104E-3
537.155914E-3
537.026596E-3
537.030602E-3
536.885834E-3
536.840057E-3
536.754227E-3
536.644363E-3
536.699867E-3
536.612320E-3
536.521339E-3
536.746788E-3
536.439514E-3
536.328506E-3
536.111641E-3
535.900497E-3
535.653877E-3
535.589218E-3
535.430717E-3
535.182381E-3
534.778404E-3
534.646225E-3
534.478569E-3
534.472275E-3
534.438515E-3
534.788132E-3
535.724831E-3
537.720108E-3
540.378571E-3
543.561745E-3
546.649933E-3
549.275208E-3
551.632690E-3
553.256607E-3
554.003334E-3
554.188156E-3
553.657722E-3
552.721596E-3
551.740265E-3
550.433350E-3
549.353027E-3
548.403168E-3
547.651291E-3
547.251320E-3
546.861076E-3
546.780396E-3
546.965790E-3
547.296524E-3
547.465897E-3
547.454453E-3
547.485352E-3
547.390938E-3
546.718025E-3
546.156120E-3
545.363045E-3
544.873238E-3
544.511032E-3
544.400597E-3
544.481277E-3
544.587708E-3
544.751930E-3
544.945908E-3
545.059204E-3
544.941902E-3
545.050049E-3
545.098686E-3
544.933891E-3
544.571114E-3
544.174004E-3
543.712807E-3
543.249893E-3
542.878532E-3
542.537498E-3
542.122078E-3
541.774750E-3
541.442299E-3
541.120720E-3
540.866661E-3
540.739632E-3
540.501595E-3
540.337372E-3
539.898491E-3
540.005493E-3
540.007782E-3
539.948273E-3
539.774323E-3
539.717102E-3
539.538002E-3
539.437294E-3
539.416695E-3
539.360046E-3
539.246750E-3
539.027023E-3
538.927460E-3
538.794136E-3
538.481712E-3
538.276863E-3
538.098335E-3
538.038254E-3
537.520409E-3
537.520981E-3
537.504959E-3
537.314987E-3
537.182808E-3
536.928177E-3
536.819458E-3
536.648941E-3
536.394882E-3
536.186028E-3
536.076164E-3
535.935974E-3
535.582352E-3
535.240173E-3
534.999275E-3
534.710312E-3
534.511757E-3
534.312630E-3
533.949280E-3
533.866310E-3
533.627701E-3
533.529282E-3
533.793640E-3
534.813881E-3
536.592865E-3
538.887405E-3
541.972733E-3
545.058060E-3
547.709084E-3
549.985313E-3
551.497650E-3
552.267838E-3
552.328491E-3
551.889038E-3
551.244164E-3
549.977875E-3
548.685837E-3
547.635841E-3
546.520042E-3
545.786476E-3
545.182228E-3
544.769096E-3
544.715881E-3
544.593430E-3
544.730186E-3
544.711876E-3
544.834900E-3
544.732475E-3
544.390869E-3
543.969154E-3
543.173218E-3
542.520905E-3
542.258263E-3
541.877747E-3
541.926384E-3
541.814804E-3
542.028809E-3
542.198181E-3
542.393875E-3
542.550087E-3
542.494011E-3
542.228508E-3
542.240524E-3
542.037392E-3
541.749573E-3
541.376495E-3
540.966225E-3
540.460968E-3
539.936829E-3
539.546585E-3
538.975525E-3
538.591003E-3
538.368416E-3
537.941551E-3
537.676048E-3
537.415695E-3
537.333870E-3
537.268066E-3
536.932755E-3
536.844635E-3
536.639786E-3
536.583710E-3
536.562538E-3
536.386871E-3
536.361122E-3
536.229515E-3
535.901070E-3
535.890198E-3
535.830688E-3
535.903931E-3
535.725403E-3
535.550880E-3
535.478783E-3
535.316849E-3
535.211563E-3
534.852791E-3
534.851074E-3
534.789848E-3
534.618187E-3
534.532928E-3
534.353828E-3
534.234238E-3
534.081459E-3
533.913231E-3
534.180450E-3
533.844566E-3
533.596802E-3
533.571625E-3
533.437157E-3
533.393097E-3
533.140755E-3
533.018303E-3
532.884979E-3
532.685852E-3
532.396317E-3
532.051849E-3
531.873322E-3
531.612396E-3
531.373787E-3
531.349754E-3
531.387520E-3
531.822968E-3
533.345032E-3
535.270500E-3
537.942696E-3
540.986824E-3
544.222641E-3
