Notes :


2023-11-04 ¿ÀÈÄ 7:11:42
Volts
Ch : LED 2
5.44E-01
5.44E-01
5.44E-01
5.43E-01
5.43E-01
5.43E-01
5.43E-01
5.43E-01
5.43E-01
5.43E-01
5.43E-01
5.43E-01
5.43E-01
5.43E-01
5.43E-01
5.42E-01
5.42E-01
5.42E-01
5.42E-01
5.42E-01
5.41E-01
5.41E-01
5.41E-01
5.41E-01
5.41E-01
5.41E-01
5.41E-01
5.43E-01
5.45E-01
5.49E-01
5.54E-01
5.59E-01
5.64E-01
5.68E-01
5.71E-01
5.73E-01
5.74E-01
5.73E-01
5.72E-01
5.70E-01
5.68E-01
5.66E-01
5.64E-01
5.62E-01
5.61E-01
5.60E-01
5.59E-01
5.59E-01
5.59E-01
5.59E-01
5.60E-01
5.60E-01
5.60E-01
5.60E-01
5.59E-01
5.58E-01
5.57E-01
5.56E-01
5.55E-01
5.55E-01
5.54E-01
5.55E-01
5.55E-01
5.56E-01
5.56E-01
5.56E-01
5.57E-01
5.57E-01
5.57E-01
5.56E-01
5.56E-01
5.55E-01
5.55E-01
5.54E-01
5.54E-01
5.53E-01
5.52E-01
5.52E-01
5.51E-01
5.51E-01
5.50E-01
5.50E-01
5.49E-01
5.49E-01
5.49E-01
5.48E-01
5.48E-01
5.48E-01
5.47E-01
5.47E-01
5.47E-01
5.47E-01
5.47E-01
5.46E-01
5.46E-01
5.46E-01
5.46E-01
5.46E-01
5.46E-01
5.45E-01
5.45E-01
5.45E-01
5.45E-01
5.44E-01
5.44E-01
5.43E-01
5.43E-01
5.43E-01
5.43E-01
5.42E-01
5.42E-01
5.42E-01
5.42E-01
5.41E-01
5.41E-01
5.41E-01
5.41E-01
5.40E-01
5.40E-01
5.40E-01
5.39E-01
5.39E-01
5.38E-01
5.38E-01
5.38E-01
5.38E-01
5.37E-01
5.37E-01
5.38E-01
5.39E-01
5.42E-01
5.45E-01
5.49E-01
5.54E-01
5.59E-01
5.63E-01
5.66E-01
5.67E-01
5.67E-01
5.67E-01
5.65E-01
5.63E-01
5.61E-01
5.59E-01
5.57E-01
5.56E-01
5.54E-01
5.54E-01
5.53E-01
5.53E-01
5.53E-01
5.53E-01
5.53E-01
5.53E-01
5.53E-01
5.53E-01
5.52E-01
5.51E-01
5.50E-01
5.50E-01
5.50E-01
5.50E-01
5.50E-01
5.51E-01
5.52E-01
5.52E-01
5.53E-01
5.53E-01
5.54E-01
5.53E-01
5.53E-01
5.53E-01
5.52E-01
5.52E-01
5.51E-01
5.51E-01
5.50E-01
5.49E-01
5.49E-01
5.49E-01
5.48E-01
5.48E-01
5.48E-01
5.47E-01
5.47E-01
5.47E-01
5.47E-01
5.47E-01
5.47E-01
5.46E-01
5.46E-01
5.46E-01
5.46E-01
5.46E-01
5.46E-01
5.46E-01
5.46E-01
5.46E-01
5.46E-01
5.46E-01
5.46E-01
5.46E-01
5.46E-01
5.46E-01
5.46E-01
5.47E-01
5.47E-01
5.46E-01
5.46E-01
5.46E-01
5.46E-01
5.46E-01
5.46E-01
5.46E-01
5.45E-01
5.45E-01
5.45E-01
5.44E-01
5.44E-01
5.44E-01
5.44E-01
5.44E-01
5.44E-01
5.45E-01
5.46E-01
5.49E-01
5.53E-01
5.58E-01
5.63E-01
5.67E-01
5.71E-01
5.74E-01
5.76E-01
5.77E-01
5.76E-01
5.75E-01
5.73E-01
5.71E-01
5.69E-01
5.67E-01
5.66E-01
5.65E-01
5.64E-01
5.64E-01
5.64E-01
5.64E-01
5.64E-01
5.64E-01
5.64E-01
5.64E-01
5.64E-01
5.63E-01
5.61E-01
5.60E-01
5.60E-01
5.59E-01
5.59E-01
5.59E-01
5.60E-01
5.60E-01
5.61E-01
5.61E-01
5.62E-01
5.62E-01
5.62E-01
5.62E-01
5.61E-01
5.61E-01
5.60E-01
5.60E-01
5.59E-01
5.58E-01
5.58E-01
5.57E-01
5.56E-01
5.56E-01
5.56E-01
5.55E-01
5.55E-01
5.54E-01
5.54E-01
5.54E-01
5.54E-01
5.54E-01
5.53E-01
5.53E-01
5.53E-01
5.53E-01
5.53E-01
5.53E-01
5.53E-01
5.53E-01
5.53E-01
5.53E-01
5.53E-01
5.53E-01
5.52E-01
5.52E-01
5.52E-01
5.52E-01
5.52E-01
5.52E-01
5.52E-01
5.51E-01
5.51E-01
5.51E-01
5.51E-01
5.51E-01
5.51E-01
5.51E-01
5.51E-01
5.51E-01
5.50E-01
5.50E-01
5.50E-01
5.49E-01
5.49E-01
5.49E-01
5.49E-01
5.48E-01
5.48E-01
5.48E-01
5.48E-01
5.49E-01
5.51E-01
5.54E-01
5.58E-01
5.63E-01
5.68E-01
5.73E-01
5.77E-01
5.80E-01
5.81E-01
5.82E-01
5.81E-01
5.79E-01
5.77E-01
5.75E-01
5.73E-01
5.72E-01
5.70E-01
5.69E-01
5.68E-01
5.68E-01
5.68E-01
5.68E-01
5.68E-01
5.69E-01
5.69E-01
5.69E-01
5.68E-01
5.67E-01
5.66E-01
5.64E-01
5.63E-01
5.63E-01
5.62E-01
5.62E-01
5.62E-01
5.63E-01
5.63E-01
5.64E-01
5.64E-01
5.64E-01
5.64E-01
5.64E-01
5.64E-01
5.63E-01
5.63E-01
5.62E-01
5.61E-01
5.60E-01
5.60E-01
5.59E-01
5.58E-01
5.58E-01
5.57E-01
5.57E-01
5.56E-01
5.56E-01
5.55E-01
5.55E-01
5.55E-01
5.55E-01
5.54E-01
5.54E-01
5.54E-01
5.54E-01
5.53E-01
5.53E-01
5.53E-01
5.53E-01
5.53E-01
5.53E-01
5.53E-01
5.53E-01
5.53E-01
5.52E-01
5.52E-01
5.52E-01
5.52E-01
5.51E-01
5.51E-01
5.51E-01
5.51E-01
5.51E-01
5.51E-01
5.51E-01
5.51E-01
5.51E-01
5.51E-01
5.51E-01
5.50E-01
5.50E-01
5.50E-01
5.49E-01
5.49E-01
5.49E-01
5.48E-01
5.48E-01
5.48E-01
5.48E-01
5.48E-01
5.48E-01
5.48E-01
5.49E-01
5.52E-01
5.56E-01
5.60E-01
5.65E-01
5.70E-01
5.74E-01
5.77E-01
5.78E-01
5.79E-01
5.78E-01
5.77E-01
5.75E-01
5.72E-01
5.70E-01
5.69E-01
5.67E-01
5.66E-01
5.65E-01
5.65E-01
5.65E-01
5.65E-01
5.65E-01
5.65E-01
5.65E-01
5.65E-01
5.64E-01
5.63E-01
5.62E-01
5.61E-01
5.61E-01
5.60E-01
5.60E-01
5.61E-01
5.61E-01
5.62E-01
5.63E-01
5.63E-01
5.63E-01
5.63E-01
5.63E-01
5.63E-01
5.63E-01
5.62E-01
5.61E-01
5.61E-01
5.60E-01
5.59E-01
5.59E-01
5.58E-01
5.58E-01
5.57E-01
5.57E-01
5.56E-01
5.56E-01
5.56E-01
5.55E-01
5.55E-01
5.55E-01
5.55E-01
5.55E-01
5.55E-01
5.54E-01
5.54E-01
5.54E-01
5.54E-01
5.54E-01
5.54E-01
5.54E-01
5.54E-01
5.54E-01
5.54E-01
5.53E-01
5.53E-01
5.53E-01
5.53E-01
5.53E-01
5.53E-01
5.53E-01
5.53E-01
5.53E-01
5.53E-01
5.53E-01
5.52E-01
5.52E-01
5.52E-01
5.52E-01
5.51E-01
5.51E-01
5.51E-01
5.50E-01
5.50E-01
5.50E-01
5.50E-01
5.50E-01
5.51E-01
5.52E-01
5.54E-01
5.57E-01
5.62E-01
5.67E-01
5.72E-01
5.76E-01
5.80E-01
5.82E-01
5.83E-01
5.82E-01
5.81E-01
5.80E-01
5.78E-01
5.76E-01
5.74E-01
5.72E-01
5.71E-01
5.70E-01
5.69E-01
5.69E-01
5.70E-01
5.70E-01
5.70E-01
5.70E-01
5.71E-01
5.70E-01
5.69E-01
5.68E-01
5.67E-01
5.66E-01
5.65E-01
5.65E-01
5.65E-01
5.65E-01
5.65E-01
5.66E-01
5.66E-01
5.66E-01
5.67E-01
5.67E-01
5.67E-01
5.67E-01
5.66E-01
5.66E-01
5.65E-01
5.64E-01
5.64E-01
5.63E-01
5.62E-01
5.61E-01
5.61E-01
5.60E-01
5.60E-01
5.60E-01
5.59E-01
5.59E-01
5.58E-01
5.58E-01
5.58E-01
5.58E-01
5.57E-01
5.57E-01
5.57E-01
5.57E-01
5.57E-01
5.57E-01
5.57E-01
5.57E-01
5.56E-01
5.56E-01
5.56E-01
5.56E-01
5.56E-01
5.56E-01
5.55E-01
5.55E-01
5.55E-01
5.55E-01
5.54E-01
5.54E-01
5.54E-01
5.54E-01
5.54E-01
5.54E-01
5.54E-01
5.54E-01
5.54E-01
5.54E-01
5.53E-01
5.53E-01
5.53E-01
5.53E-01
5.52E-01
5.52E-01
5.52E-01
5.51E-01
5.51E-01
5.51E-01
5.51E-01
5.51E-01
5.52E-01
5.53E-01
5.56E-01
5.60E-01
5.64E-01
5.70E-01
5.75E-01
5.79E-01
5.82E-01
5.84E-01
5.84E-01
5.84E-01
5.82E-01
5.80E-01
5.78E-01
5.76E-01
5.74E-01
5.73E-01
5.71E-01
5.71E-01
5.70E-01
5.70E-01
5.70E-01
5.71E-01
5.71E-01
5.71E-01
5.71E-01
5.71E-01
5.70E-01
5.69E-01
5.68E-01
5.66E-01
5.65E-01
5.65E-01
5.65E-01
5.65E-01
5.65E-01
5.65E-01
5.66E-01
5.66E-01
5.67E-01
5.67E-01
5.67E-01
5.66E-01
5.66E-01
5.65E-01
5.64E-01
5.64E-01
5.63E-01
5.62E-01
5.62E-01
5.61E-01
5.60E-01
5.60E-01
5.59E-01
5.59E-01
5.59E-01
5.58E-01
5.58E-01
5.57E-01
5.57E-01
5.57E-01
5.57E-01
5.56E-01
5.56E-01
5.56E-01
5.56E-01
5.56E-01
5.56E-01
5.56E-01
5.55E-01
5.55E-01
5.55E-01
5.55E-01
5.55E-01
5.55E-01
5.54E-01
5.54E-01
5.54E-01
5.54E-01
5.54E-01
5.53E-01
5.53E-01
5.53E-01
5.53E-01
5.53E-01
5.53E-01
5.53E-01
5.52E-01
5.52E-01
5.52E-01
5.52E-01
5.52E-01
5.51E-01
5.51E-01
5.51E-01
5.50E-01
5.50E-01
5.50E-01
5.50E-01
5.49E-01
5.49E-01
5.49E-01
5.50E-01
5.53E-01
5.56E-01
5.60E-01
5.65E-01
5.70E-01
5.74E-01
5.77E-01
5.79E-01
5.80E-01
5.80E-01
5.79E-01
5.77E-01
5.75E-01
5.73E-01
5.71E-01
5.69E-01
5.68E-01
5.67E-01
5.67E-01
5.66E-01
5.66E-01
5.67E-01
5.67E-01
5.67E-01
5.67E-01
5.67E-01
5.66E-01
5.64E-01
5.63E-01
5.63E-01
5.62E-01
5.62E-01
5.63E-01
5.63E-01
5.64E-01
5.64E-01
5.65E-01
5.65E-01
5.65E-01
5.65E-01
5.65E-01
5.64E-01
5.64E-01
5.64E-01
5.63E-01
5.62E-01
5.62E-01
5.61E-01
5.61E-01
5.60E-01
5.60E-01
5.59E-01
5.59E-01
5.59E-01
5.58E-01
5.58E-01
5.58E-01
5.57E-01
5.57E-01
5.57E-01
5.57E-01
5.57E-01
5.57E-01
5.56E-01
5.56E-01
5.56E-01
5.56E-01
5.56E-01
5.56E-01
5.56E-01
5.56E-01
5.56E-01
5.55E-01
5.55E-01
5.55E-01
5.55E-01
5.55E-01
5.55E-01
5.55E-01
5.55E-01
5.55E-01
5.55E-01
5.55E-01
5.55E-01
5.54E-01
5.54E-01
5.54E-01
5.54E-01
5.53E-01
5.53E-01
5.52E-01
5.52E-01
5.52E-01
5.52E-01
5.52E-01
5.52E-01
5.54E-01
5.56E-01
5.59E-01
5.64E-01
5.69E-01
5.74E-01
5.78E-01
5.82E-01
5.84E-01
5.85E-01
5.85E-01
5.84E-01
5.82E-01
5.80E-01
5.78E-01
5.76E-01
5.74E-01
5.73E-01
5.72E-01
5.72E-01
5.72E-01
5.72E-01
5.72E-01
5.72E-01
5.73E-01
5.73E-01
5.73E-01
5.72E-01
5.71E-01
5.70E-01
5.68E-01
5.68E-01
5.67E-01
5.67E-01
5.67E-01
5.67E-01
5.68E-01
5.68E-01
5.68E-01
5.69E-01
5.69E-01
5.69E-01
5.69E-01
5.69E-01
5.68E-01
5.68E-01
5.67E-01
5.66E-01
5.66E-01
5.65E-01
5.64E-01
5.64E-01
5.63E-01
5.63E-01
5.63E-01
5.62E-01
5.62E-01
5.61E-01
5.61E-01
5.61E-01
5.61E-01
5.60E-01
5.60E-01
5.60E-01
5.60E-01
5.60E-01
5.60E-01
5.60E-01
5.60E-01
5.59E-01
5.59E-01
5.59E-01
5.59E-01
5.59E-01
5.59E-01
5.59E-01
5.58E-01
5.58E-01
5.58E-01
5.58E-01
5.58E-01
5.57E-01
5.57E-01
5.57E-01
5.57E-01
5.57E-01
5.57E-01
5.57E-01
5.57E-01
5.56E-01
5.56E-01
5.56E-01
5.55E-01
5.55E-01
5.55E-01
5.54E-01
5.54E-01
5.53E-01
5.53E-01
5.53E-01
5.53E-01
5.54E-01
5.55E-01
5.57E-01
5.61E-01
5.66E-01
5.71E-01
5.76E-01
5.80E-01
5.84E-01
5.85E-01
5.86E-01
5.86E-01
5.84E-01
5.82E-01
5.80E-01
5.78E-01
5.76E-01
5.74E-01
5.73E-01
5.72E-01
5.72E-01
5.71E-01
5.72E-01
5.72E-01
5.72E-01
5.72E-01
5.73E-01
5.72E-01
5.71E-01
5.70E-01
5.69E-01
5.68E-01
5.67E-01
5.67E-01
5.66E-01
5.67E-01
5.67E-01
5.67E-01
5.68E-01
5.68E-01
5.68E-01
5.69E-01
5.69E-01
5.68E-01
5.68E-01
5.68E-01
5.67E-01
5.66E-01
5.66E-01
5.65E-01
5.64E-01
5.64E-01
5.63E-01
5.63E-01
5.62E-01
5.62E-01
5.61E-01
5.61E-01
5.60E-01
5.60E-01
5.60E-01
5.60E-01
5.59E-01
5.59E-01
5.59E-01
5.59E-01
5.58E-01
5.58E-01
5.58E-01
5.58E-01
5.58E-01
5.58E-01
5.58E-01
5.57E-01
5.57E-01
5.57E-01
5.57E-01
5.56E-01
5.56E-01
5.56E-01
5.56E-01
5.56E-01
5.55E-01
5.55E-01
5.55E-01
5.55E-01
5.55E-01
5.55E-01
5.54E-01
5.54E-01
5.54E-01
5.53E-01
5.53E-01
5.53E-01
5.52E-01
5.52E-01
5.52E-01
5.52E-01
5.52E-01
5.52E-01
5.52E-01
