Notes :


2023-11-11 ¿ÀÀü 12:08:25
Volts
Ch : LED 2,
722.294998E-3
722.099304E-3
721.485329E-3
721.581459E-3
721.382904E-3
721.296501E-3
721.162605E-3
720.952034E-3
721.023560E-3
720.702553E-3
720.738602E-3
720.230484E-3
720.283699E-3
720.374680E-3
720.297432E-3
720.205879E-3
720.129204E-3
719.951248E-3
719.914055E-3
719.459152E-3
718.631744E-3
718.912125E-3
718.529892E-3
718.517303E-3
718.200302E-3
717.824936E-3
717.323112E-3
716.756058E-3
716.346359E-3
715.854263E-3
715.246010E-3
714.843178E-3
714.609146E-3
714.908409E-3
716.013336E-3
718.735886E-3
722.991943E-3
728.427315E-3
734.997940E-3
740.939140E-3
746.557045E-3
751.147842E-3
754.339027E-3
756.112862E-3
756.047630E-3
755.047989E-3
753.166580E-3
751.020241E-3
748.346901E-3
745.912743E-3
743.660545E-3
741.892433E-3
740.428734E-3
739.503479E-3
738.906097E-3
738.596535E-3
738.623428E-3
738.916969E-3
739.117241E-3
738.972473E-3
738.668633E-3
737.854958E-3
736.632156E-3
735.095215E-3
733.879852E-3
733.050156E-3
732.477951E-3
732.414436E-3
732.786369E-3
733.069038E-3
733.713341E-3
734.281540E-3
734.943581E-3
735.472298E-3
735.544395E-3
735.606766E-3
735.361862E-3
735.040855E-3
734.684372E-3
733.985138E-3
733.254433E-3
732.241631E-3
731.467438E-3
730.774498E-3
730.027771E-3
729.399490E-3
728.755188E-3
728.172112E-3
727.870560E-3
727.430534E-3
727.027130E-3
726.656342E-3
726.266098E-3
725.951385E-3
725.669861E-3
725.465012E-3
725.155449E-3
724.824142E-3
724.790382E-3
724.408150E-3
724.281693E-3
724.073982E-3
723.858261E-3
723.662567E-3
723.361588E-3
723.277473E-3
723.147011E-3
722.843742E-3
722.784233E-3
722.529602E-3
722.344780E-3
722.284126E-3
722.106171E-3
722.012329E-3
721.762276E-3
721.533394E-3
721.370316E-3
721.238136E-3
721.022987E-3
720.762634E-3
720.556641E-3
720.259666E-3
719.849968E-3
719.586754E-3
719.278336E-3
718.703842E-3
718.209457E-3
717.665291E-3
717.375755E-3
716.829872E-3
716.463661E-3
716.284561E-3
716.296005E-3
717.035866E-3
718.692970E-3
722.106171E-3
726.721573E-3
732.313728E-3
738.657188E-3
744.448471E-3
749.742508E-3
753.671837E-3
756.092262E-3
757.090759E-3
756.579208E-3
755.057144E-3
753.071022E-3
750.610542E-3
748.144341E-3
745.741653E-3
743.705177E-3
742.048073E-3
740.658760E-3
740.063667E-3
739.442825E-3
739.278030E-3
739.409637E-3
739.292908E-3
739.289474E-3
738.795662E-3
737.855530E-3
736.773491E-3
735.483170E-3
734.349632E-3
733.563423E-3
733.451271E-3
733.595467E-3
733.885574E-3
734.876633E-3
735.642242E-3
736.541176E-3
737.195206E-3
737.594604E-3
737.868690E-3
737.808609E-3
737.572289E-3
737.214088E-3
736.610413E-3
735.999298E-3
735.170746E-3
734.286118E-3
733.398056E-3
732.612419E-3
732.074547E-3
731.298065E-3
730.563927E-3
730.195999E-3
729.893303E-3
729.551697E-3
729.140854E-3
728.914833E-3
728.539467E-3
728.182411E-3
727.931786E-3
727.619362E-3
727.440262E-3
727.268600E-3
726.879501E-3
726.714706E-3
726.571655E-3
726.419449E-3
726.240349E-3
726.016045E-3
725.988007E-3
725.785446E-3
725.836945E-3
725.717926E-3
725.521660E-3
725.447845E-3
725.312805E-3
725.110245E-3
725.069618E-3
724.866486E-3
724.831009E-3
724.555779E-3
724.411583E-3
724.184418E-3
723.719788E-3
723.627090E-3
723.129845E-3
722.743034E-3
722.558784E-3
721.837234E-3
721.505356E-3
720.853615E-3
720.572662E-3
720.265388E-3
719.882584E-3
719.887733E-3
719.817924E-3
720.665932E-3
722.571945E-3
725.947380E-3
730.724144E-3
736.019325E-3
741.683578E-3
747.095490E-3
751.364708E-3
754.836273E-3
756.464195E-3
756.778908E-3
755.934906E-3
754.093552E-3
751.995850E-3
749.379158E-3
746.859169E-3
744.441032E-3
742.436028E-3
740.952301E-3
739.703178E-3
738.878059E-3
738.510704E-3
738.129044E-3
738.098717E-3
737.596893E-3
736.973763E-3
735.972977E-3
734.769630E-3
733.601761E-3
732.690811E-3
732.249641E-3
732.333183E-3
732.648468E-3
733.434105E-3
734.358215E-3
735.480881E-3
736.397552E-3
737.142563E-3
737.599182E-3
737.604904E-3
737.497902E-3
737.158585E-3
736.459351E-3
735.791016E-3
734.923553E-3
733.974838E-3
733.238411E-3
732.209015E-3
731.450844E-3
730.620575E-3
729.935074E-3
729.481316E-3
728.872490E-3
728.722572E-3
728.228760E-3
727.932358E-3
727.708626E-3
727.254295E-3
727.124977E-3
726.751328E-3
726.581955E-3
726.409149E-3
726.231194E-3
726.051521E-3
725.817490E-3
725.608063E-3
725.444412E-3
725.107956E-3
724.998665E-3
724.644470E-3
724.592400E-3
724.448204E-3
724.123764E-3
724.012184E-3
723.868561E-3
723.623085E-3
723.695183E-3
723.366165E-3
723.296928E-3
723.134422E-3
723.033142E-3
722.933006E-3
722.740173E-3
722.632027E-3
722.300720E-3
722.214317E-3
722.023773E-3
721.714783E-3
721.531105E-3
720.941734E-3
720.540047E-3
720.150375E-3
719.487762E-3
719.065475E-3
718.619728E-3
718.482971E-3
718.583107E-3
719.078636E-3
720.807838E-3
723.893166E-3
728.671646E-3
734.374237E-3
740.603256E-3
746.512413E-3
751.698875E-3
755.771255E-3
758.274651E-3
759.104347E-3
758.743858E-3
757.304764E-3
755.167007E-3
752.811813E-3
750.406837E-3
748.257637E-3
746.446037E-3
744.855881E-3
743.973541E-3
743.142700E-3
743.137550E-3
742.995644E-3
743.222809E-3
743.462563E-3
743.227386E-3
743.027687E-3
742.384529E-3
741.052437E-3
739.768410E-3
738.371086E-3
737.371445E-3
736.753464E-3
736.698532E-3
736.933136E-3
737.370872E-3
738.131332E-3
738.838577E-3
739.491463E-3
740.045357E-3
740.151215E-3
740.139198E-3
740.058517E-3
739.595604E-3
739.026833E-3
738.274384E-3
737.579155E-3
736.827850E-3
735.861969E-3
735.121536E-3
734.329605E-3
733.633804E-3
732.985497E-3
732.441902E-3
732.096291E-3
731.672287E-3
731.438828E-3
731.097221E-3
730.769348E-3
730.544472E-3
730.048370E-3
729.921341E-3
729.704475E-3
729.365158E-3
729.014969E-3
728.726006E-3
728.589821E-3
728.315163E-3
728.027344E-3
727.892876E-3
727.483749E-3
727.337837E-3
727.127838E-3
726.710701E-3
726.741028E-3
726.517296E-3
726.549339E-3
726.397705E-3
726.112747E-3
725.988007E-3
725.898743E-3
725.815201E-3
725.691605E-3
725.467300E-3
725.354576E-3
725.030136E-3
725.048447E-3
724.663925E-3
724.322891E-3
724.223900E-3
723.713493E-3
723.543549E-3
723.043442E-3
722.421455E-3
722.093010E-3
721.607780E-3
721.456718E-3
721.263885E-3
721.466446E-3
722.323608E-3
724.092865E-3
727.398491E-3
731.952095E-3
737.463570E-3
743.441391E-3
748.822403E-3
753.653526E-3
756.991196E-3
758.881760E-3
759.421349E-3
758.656311E-3
757.317352E-3
755.311775E-3
752.894783E-3
750.711250E-3
748.718262E-3
747.021103E-3
745.663261E-3
744.649315E-3
744.259644E-3
744.031334E-3
744.017601E-3
744.120026E-3
744.208717E-3
743.964386E-3
743.161011E-3
742.097855E-3
740.748596E-3
739.508629E-3
738.478088E-3
737.832642E-3
737.935638E-3
738.225746E-3
738.736153E-3
739.569855E-3
740.420151E-3
741.257858E-3
741.657829E-3
741.825485E-3
741.899872E-3
741.639519E-3
741.205215E-3
740.607834E-3
739.812469E-3
739.122963E-3
738.243484E-3
737.563705E-3
736.714554E-3
735.778999E-3
735.278893E-3
734.574509E-3
734.102440E-3
733.772278E-3
733.168602E-3
733.087349E-3
732.670784E-3
732.253647E-3
731.837082E-3
731.542397E-3
731.340981E-3
730.931854E-3
730.657196E-3
730.464363E-3
730.252075E-3
730.212593E-3
729.884720E-3
729.726791E-3
729.477882E-3
729.314232E-3
729.310799E-3
729.061890E-3
729.121399E-3
728.968620E-3
728.664207E-3
728.830147E-3
728.336334E-3
728.295135E-3
728.361511E-3
727.995872E-3
727.925491E-3
727.674866E-3
727.543831E-3
727.281189E-3
727.002525E-3
726.775360E-3
726.381683E-3
725.910187E-3
725.597191E-3
725.176048E-3
724.772072E-3
724.225616E-3
723.960114E-3
723.510933E-3
723.125267E-3
723.176193E-3
722.907829E-3
723.182487E-3
723.966408E-3
725.728798E-3
728.916550E-3
733.292198E-3
738.577080E-3
743.986130E-3
749.059296E-3
753.313637E-3
756.422424E-3
758.009148E-3
758.220863E-3
757.106781E-3
755.447388E-3
753.236389E-3
750.996208E-3
748.757744E-3
746.687508E-3
745.089340E-3
743.603897E-3
742.782211E-3
742.173386E-3
741.822624E-3
741.920471E-3
741.572571E-3
741.260719E-3
740.624428E-3
739.388466E-3
738.365936E-3
737.204933E-3
736.580086E-3
736.359787E-3
736.491966E-3
737.228966E-3
738.098145E-3
739.346123E-3
740.363503E-3
741.134262E-3
741.827774E-3
742.024040E-3
742.062378E-3
741.699028E-3
741.178894E-3
740.471649E-3
739.621925E-3
738.755035E-3
737.896729E-3
737.042427E-3
736.257362E-3
735.387611E-3
734.702110E-3
734.210587E-3
733.627510E-3
733.293915E-3
732.824707E-3
732.523155E-3
732.217598E-3
731.914902E-3
731.701469E-3
731.328392E-3
731.124687E-3
730.839729E-3
730.669785E-3
730.551338E-3
730.284119E-3
730.083847E-3
729.911613E-3
729.670143E-3
729.471016E-3
729.157448E-3
728.987503E-3
728.935432E-3
728.696251E-3
728.642464E-3
728.365517E-3
728.243065E-3
728.128624E-3
727.850533E-3
727.998161E-3
727.548981E-3
727.424812E-3
727.408218E-3
727.082634E-3
726.893806E-3
726.568222E-3
726.304436E-3
726.029778E-3
725.771141E-3
725.400352E-3
724.843597E-3
724.311447E-3
723.997879E-3
723.368454E-3
723.014259E-3
722.455215E-3
722.235489E-3
722.329903E-3
722.551346E-3
723.502922E-3
725.494194E-3
728.934860E-3
733.837509E-3
739.398193E-3
745.202637E-3
750.493240E-3
755.134392E-3
758.410835E-3
760.106850E-3
760.509682E-3
759.586716E-3
758.044624E-3
756.050491E-3
753.781700E-3
751.640511E-3
749.710464E-3
748.361778E-3
747.204208E-3
746.422005E-3
746.152496E-3
745.968246E-3
746.171379E-3
746.522141E-3
746.536446E-3
746.411133E-3
745.670700E-3
744.503403E-3
743.212509E-3
741.752815E-3
740.849304E-3
740.278816E-3
740.437889E-3
740.639305E-3
741.120529E-3
741.898727E-3
742.703819E-3
743.375587E-3
743.962669E-3
743.918037E-3
743.851089E-3
743.471146E-3
743.018532E-3
742.450905E-3
741.756248E-3
741.079330E-3
740.132904E-3
739.327240E-3
738.463783E-3
737.742233E-3
737.012100E-3
736.515999E-3
735.914040E-3
735.574722E-3
735.176468E-3
734.930992E-3
734.521866E-3
734.213448E-3
733.968544E-3
733.542824E-3
733.403206E-3
733.058167E-3
732.954025E-3
732.713127E-3
732.452202E-3
732.274818E-3
732.045364E-3
731.792450E-3
731.573296E-3
731.317520E-3
731.240273E-3
731.066322E-3
730.852890E-3
730.676651E-3
730.374527E-3
730.368233E-3
730.114746E-3
729.836655E-3
729.648399E-3
729.450989E-3
729.294777E-3
728.940010E-3
728.770065E-3
728.799820E-3
728.518295E-3
728.290558E-3
728.015900E-3
727.595329E-3
727.437401E-3
726.956177E-3
726.757622E-3
726.140785E-3
725.637245E-3
725.166321E-3
724.510574E-3
724.180984E-3
723.656273E-3
723.424530E-3
723.303223E-3
723.221970E-3
723.663712E-3
725.097084E-3
728.030777E-3
732.121468E-3
737.096786E-3
743.029404E-3
748.623276E-3
753.628922E-3
757.634354E-3
759.944344E-3
760.944557E-3
760.723686E-3
759.575844E-3
757.884979E-3
755.844498E-3
753.900719E-3
751.832199E-3
750.231743E-3
749.177742E-3
748.187828E-3
747.843361E-3
747.734070E-3
747.923470E-3
748.289108E-3
748.320580E-3
748.352623E-3
747.829628E-3
746.773911E-3
745.538521E-3
743.934059E-3
742.676353E-3
741.802025E-3
741.490746E-3
741.553116E-3
741.875839E-3
742.617416E-3
743.613052E-3
744.238472E-3
744.968605E-3
745.101929E-3
745.183182E-3
744.970322E-3
744.530296E-3
743.936920E-3
743.067741E-3
742.424583E-3
741.658401E-3
740.788078E-3
739.997864E-3
739.175606E-3
738.533020E-3
737.972832E-3
737.416077E-3
736.930847E-3
736.396408E-3
736.283684E-3
735.936356E-3
735.492325E-3
735.408211E-3
734.914970E-3
734.726143E-3
734.350204E-3
734.168816E-3
734.105873E-3
733.735657E-3
733.575439E-3
733.403206E-3
733.189774E-3
733.010674E-3
732.860756E-3
732.598114E-3
732.534027E-3
732.299423E-3
732.189560E-3
732.037926E-3
731.913185E-3
731.700325E-3
731.267166E-3
731.133270E-3
730.840302E-3
730.731010E-3
730.448341E-3
730.288124E-3
730.074120E-3
729.721069E-3
729.487038E-3
729.338837E-3
729.105377E-3
728.685951E-3
728.313446E-3
728.010750E-3
727.723503E-3
727.095222E-3
726.859474E-3
726.218605E-3
725.932503E-3
725.552559E-3
725.186348E-3
725.082207E-3
725.045013E-3
725.315666E-3
725.962830E-3
727.651978E-3
730.773926E-3
734.799385E-3
740.106583E-3
745.414925E-3
750.419426E-3
754.688644E-3
757.550240E-3
759.150696E-3
759.486008E-3
758.587074E-3
756.983185E-3
754.905510E-3
752.889061E-3
750.770187E-3
749.047852E-3
747.746658E-3
746.490097E-3
745.992279E-3
745.646667E-3
745.568275E-3
745.569992E-3
745.389748E-3
745.382881E-3
744.681358E-3
743.542099E-3
742.229462E-3
740.802383E-3
739.890289E-3
739.464569E-3
739.533234E-3
740.143204E-3
740.827560E-3
741.866684E-3
742.865753E-3
743.636513E-3
744.327736E-3
744.528008E-3
744.346619E-3
744.069672E-3
743.476868E-3
742.857742E-3
741.915321E-3
741.133690E-3
740.308571E-3
739.404488E-3
738.633728E-3
737.809753E-3
737.207222E-3
736.624718E-3
735.927773E-3
735.681725E-3
735.295486E-3
735.167313E-3
734.981918E-3
734.565353E-3
734.424591E-3
734.140778E-3
734.066391E-3
733.694458E-3
733.316803E-3
733.189774E-3
733.066177E-3
732.805252E-3
732.674789E-3
732.310867E-3
732.375526E-3
732.069969E-3
731.793594E-3
731.581306E-3
731.380463E-3
731.401634E-3
730.986214E-3
730.862045E-3
730.773354E-3
730.394554E-3
730.316734E-3
730.043221E-3
729.957962E-3
729.780579E-3
729.501915E-3
729.346848E-3
729.014969E-3
729.006958E-3
728.701401E-3
728.335762E-3
727.985001E-3
727.620506E-3
727.281189E-3
726.630592E-3
726.046944E-3
725.773430E-3
725.225830E-3
724.741173E-3
724.471664E-3
724.227905E-3
724.373817E-3
724.571228E-3
725.683594E-3
728.136063E-3
731.708908E-3
736.676216E-3
742.053795E-3
747.678566E-3
752.862740E-3
756.732559E-3
759.568405E-3
760.753441E-3
760.644722E-3
759.631348E-3
757.811165E-3
755.983543E-3
753.774261E-3
751.916885E-3
750.366783E-3
749.162865E-3
748.340034E-3
747.799873E-3
747.724342E-3
747.890282E-3
748.158073E-3
748.477936E-3
748.448753E-3
748.042488E-3
747.246552E-3
745.860672E-3
744.469070E-3
742.977333E-3
742.003441E-3
741.675568E-3
741.523933E-3
742.096138E-3
742.765045E-3
743.486023E-3
744.256783E-3
744.758034E-3
745.218658E-3
745.219803E-3
745.026970E-3
744.627571E-3
743.911743E-3
743.431664E-3
742.604256E-3
741.777992E-3
740.963745E-3
740.180969E-3
739.434242E-3
738.478661E-3
737.841225E-3
737.265015E-3
736.885071E-3
736.649895E-3
736.068535E-3
735.777855E-3
735.425377E-3
735.229111E-3
734.924698E-3
734.520149E-3
734.315872E-3
734.103012E-3
733.901596E-3
733.657265E-3
733.365440E-3
733.076477E-3
732.916832E-3
732.523727E-3
732.397842E-3
732.014465E-3
731.859398E-3
731.774139E-3
731.525803E-3
731.439972E-3
731.255150E-3
731.065750E-3
730.942726E-3
730.518723E-3
730.503273E-3
729.894447E-3
729.702187E-3
729.594612E-3
729.281616E-3
729.168892E-3
728.964043E-3
728.894234E-3
728.677940E-3
728.251648E-3
728.329468E-3
727.972984E-3
727.762413E-3
727.713776E-3
727.347565E-3
727.203941E-3
726.679802E-3
726.083565E-3
725.557709E-3
725.232697E-3
724.844742E-3
724.320030E-3
724.000740E-3
723.953819E-3
723.958397E-3
