Notes :


2023-11-10 ¿ÀÈÄ 11:09:34
Volts
Ch : LED 2,
77.811241E-3
78.060150E-3
78.194618E-3
77.950287E-3
77.922821E-3
77.539444E-3
77.163506E-3
76.973534E-3
76.667976E-3
76.584435E-3
76.418495E-3
76.297188E-3
76.319504E-3
75.778770E-3
76.114655E-3
76.271439E-3
76.218796E-3
76.208496E-3
75.927544E-3
75.704956E-3
75.524139E-3
75.242043E-3
75.179672E-3
75.021172E-3
75.124168E-3
75.389099E-3
75.284386E-3
75.190544E-3
75.352478E-3
75.425720E-3
75.446320E-3
75.356483E-3
75.440598E-3
75.308990E-3
75.112724E-3
75.045776E-3
75.317001E-3
74.930191E-3
74.543381E-3
74.390030E-3
74.279022E-3
74.121094E-3
74.044418E-3
73.939705E-3
73.748589E-3
74.193764E-3
73.697090E-3
73.663902E-3
73.519707E-3
73.347473E-3
73.372078E-3
73.249626E-3
73.326302E-3
73.175240E-3
73.275948E-3
73.205566E-3
72.982979E-3
73.091125E-3
72.995567E-3
73.007584E-3
72.962952E-3
72.938919E-3
73.003578E-3
72.676277E-3
72.734642E-3
72.845650E-3
72.801590E-3
72.858810E-3
72.721481E-3
72.649956E-3
72.733498E-3
72.641945E-3
72.599030E-3
72.503471E-3
72.419930E-3
72.328377E-3
72.220230E-3
72.174454E-3
72.003365E-3
71.936989E-3
71.926689E-3
71.781921E-3
71.810532E-3
71.688080E-3
71.610260E-3
71.711540E-3
71.842575E-3
72.292900E-3
72.872543E-3
73.719406E-3
74.674416E-3
75.699234E-3
76.664543E-3
77.352333E-3
77.885628E-3
78.179741E-3
78.166008E-3
78.242111E-3
77.930832E-3
77.607536E-3
77.430725E-3
77.021027E-3
76.807594E-3
76.514626E-3
76.479149E-3
76.413918E-3
76.654243E-3
76.504326E-3
76.408195E-3
76.482010E-3
76.456833E-3
76.282310E-3
76.181030E-3
75.870895E-3
75.606537E-3
75.402832E-3
75.239754E-3
75.204849E-3
75.167656E-3
75.217438E-3
75.318146E-3
75.334740E-3
75.424576E-3
75.509262E-3
75.592232E-3
75.603104E-3
75.465775E-3
75.446320E-3
75.278091E-3
75.162506E-3
75.024605E-3
74.845505E-3
74.760818E-3
74.868965E-3
74.530792E-3
74.273872E-3
74.278450E-3
74.194336E-3
74.003792E-3
73.904800E-3
73.876762E-3
73.734856E-3
73.455620E-3
73.581505E-3
73.645020E-3
73.646164E-3
73.505974E-3
73.503113E-3
73.452187E-3
73.448753E-3
73.451042E-3
73.296547E-3
73.390388E-3
73.298264E-3
73.279953E-3
73.259926E-3
73.209572E-3
73.224449E-3
73.024178E-3
73.021889E-3
73.067665E-3
72.939491E-3
72.894859E-3
72.825623E-3
72.755241E-3
72.742653E-3
72.688293E-3
72.680855E-3
72.564697E-3
72.832489E-3
72.565842E-3
72.314072E-3
72.245979E-3
72.131538E-3
72.069740E-3
72.056007E-3
71.879768E-3
71.883774E-3
71.783066E-3
71.842575E-3
71.874046E-3
71.933556E-3
72.356987E-3
73.003578E-3
73.844719E-3
74.906731E-3
75.638580E-3
76.530647E-3
77.196121E-3
77.643585E-3
77.944565E-3
77.903366E-3
77.907372E-3
77.601814E-3
77.677917E-3
77.139473E-3
76.649094E-3
76.441383E-3
76.151276E-3
76.045418E-3
76.029396E-3
75.951004E-3
76.054001E-3
76.060867E-3
75.949860E-3
75.968742E-3
75.667763E-3
75.564766E-3
75.334740E-3
75.180244E-3
75.002861E-3
74.822044E-3
74.984550E-3
75.012016E-3
75.112152E-3
75.281525E-3
75.243759E-3
75.383949E-3
75.392532E-3
75.422859E-3
75.434875E-3
75.362778E-3
75.217438E-3
74.895859E-3
74.878693E-3
74.699020E-3
74.461555E-3
74.381447E-3
74.229813E-3
74.132538E-3
74.285889E-3
73.966599E-3
73.862457E-3
73.743439E-3
73.584366E-3
73.568916E-3
73.402405E-3
73.411560E-3
73.340034E-3
73.481369E-3
73.345757E-3
73.127747E-3
73.147774E-3
73.156357E-3
73.081398E-3
73.120880E-3
72.922325E-3
72.931480E-3
72.715187E-3
72.782707E-3
72.817039E-3
72.784424E-3
72.789574E-3
72.664833E-3
72.691727E-3
72.737503E-3
72.573853E-3
72.292328E-3
72.387886E-3
72.431946E-3
72.346687E-3
72.292900E-3
72.208786E-3
72.103500E-3
71.935272E-3
71.960449E-3
71.847153E-3
71.789360E-3
71.642303E-3
71.601105E-3
71.590233E-3
71.465492E-3
71.582222E-3
71.548462E-3
72.096062E-3
72.824478E-3
73.669052E-3
74.669838E-3
75.572205E-3
76.441383E-3
77.171516E-3
77.523422E-3
78.176880E-3
77.941704E-3
77.723694E-3
77.517128E-3
77.122307E-3
76.838493E-3
76.575279E-3
76.227379E-3
76.091766E-3
75.646591E-3
75.794792E-3
75.911522E-3
75.805664E-3
75.885201E-3
75.788498E-3
75.847435E-3
75.735283E-3
75.443459E-3
75.200844E-3
74.856949E-3
74.788857E-3
74.656677E-3
74.658966E-3
74.739075E-3
74.769974E-3
74.974823E-3
75.165367E-3
74.729919E-3
75.090981E-3
75.019455E-3
75.147629E-3
75.046921E-3
74.905586E-3
74.846077E-3
74.696159E-3
74.576569E-3
74.646950E-3
74.278450E-3
74.142838E-3
73.968315E-3
73.791504E-3
73.727989E-3
73.597527E-3
73.474503E-3
73.440742E-3
73.543739E-3
73.349190E-3
73.239899E-3
73.241043E-3
73.104286E-3
73.123169E-3
73.132896E-3
72.941780E-3
72.937202E-3
73.286819E-3
73.030472E-3
72.866249E-3
72.759819E-3
72.828484E-3
72.695160E-3
72.751236E-3
72.692299E-3
72.575569E-3
72.498894E-3
72.406769E-3
72.426224E-3
72.447395E-3
72.379303E-3
72.411346E-3
72.275734E-3
72.351837E-3
72.318077E-3
71.961021E-3
72.132683E-3
72.136688E-3
72.080612E-3
71.967316E-3
71.852303E-3
71.799088E-3
71.784210E-3
71.605110E-3
71.525574E-3
71.479797E-3
71.450043E-3
71.316147E-3
71.488380E-3
71.758461E-3
72.180748E-3
73.157501E-3
73.866463E-3
74.950790E-3
75.944710E-3
76.738930E-3
77.466774E-3
77.793503E-3
78.055573E-3
78.097916E-3
77.796364E-3
77.719688E-3
77.335167E-3
77.076530E-3
76.803017E-3
76.524925E-3
76.452255E-3
76.280022E-3
76.287460E-3
76.428223E-3
76.377296E-3
76.453400E-3
76.427650E-3
76.450539E-3
76.367569E-3
76.097488E-3
76.001358E-3
75.601959E-3
75.659180E-3
75.377655E-3
75.116730E-3
75.214577E-3
75.192261E-3
75.309563E-3
75.393105E-3
75.397682E-3
75.503540E-3
75.708961E-3
75.575066E-3
75.553322E-3
75.353050E-3
75.303841E-3
75.096703E-3
75.028610E-3
74.838066E-3
74.612045E-3
74.627495E-3
74.371147E-3
74.289322E-3
74.236107E-3
74.087906E-3
74.107933E-3
73.913956E-3
73.864174E-3
73.815536E-3
73.382950E-3
73.689651E-3
73.627853E-3
73.595810E-3
73.523140E-3
73.465919E-3
73.502541E-3
73.377800E-3
73.440742E-3
73.423576E-3
73.268509E-3
73.337746E-3
73.201561E-3
73.242187E-3
73.241043E-3
73.092270E-3
73.128319E-3
73.011589E-3
73.095131E-3
73.004150E-3
72.886276E-3
72.964096E-3
72.835350E-3
72.826195E-3
72.784996E-3
72.549248E-3
72.690010E-3
72.585297E-3
72.576141E-3
72.465134E-3
72.448540E-3
72.402191E-3
72.205925E-3
72.118950E-3
71.833420E-3
71.799660E-3
71.858597E-3
71.874619E-3
71.859169E-3
71.922684E-3
72.078896E-3
72.470856E-3
73.061943E-3
74.018669E-3
74.907303E-3
75.716400E-3
76.732635E-3
77.301407E-3
77.791786E-3
78.132248E-3
78.128242E-3
78.161430E-3
77.550888E-3
77.445030E-3
77.172661E-3
76.872253E-3
76.723480E-3
76.471710E-3
76.357841E-3
76.278877E-3
76.231384E-3
76.202202E-3
76.273155E-3
76.330948E-3
76.372147E-3
76.290321E-3
76.061440E-3
75.746155E-3
75.563622E-3
75.345612E-3
75.302696E-3
75.243759E-3
75.201988E-3
75.306129E-3
75.378799E-3
75.445747E-3
75.646591E-3
75.600815E-3
75.661469E-3
75.862312E-3
75.670052E-3
75.525856E-3
75.311852E-3
75.193405E-3
75.076675E-3
74.837494E-3
74.745369E-3
74.504471E-3
74.661827E-3
74.438667E-3
74.212074E-3
74.138832E-3
74.006081E-3
74.019241E-3
74.040413E-3
73.893929E-3
73.873329E-3
73.721695E-3
73.679924E-3
73.701096E-3
73.622704E-3
73.594093E-3
73.495674E-3
73.451042E-3
73.591805E-3
73.364639E-3
73.399544E-3
73.261642E-3
73.230743E-3
73.260498E-3
73.101425E-3
73.136902E-3
73.019600E-3
72.606468E-3
72.925758E-3
72.846794E-3
72.905731E-3
72.870255E-3
72.810173E-3
72.817039E-3
72.679138E-3
72.724915E-3
72.235107E-3
72.452545E-3
72.541809E-3
72.419930E-3
72.353554E-3
72.157860E-3
72.082329E-3
72.051430E-3
71.863174E-3
72.060013E-3
71.898079E-3
71.804810E-3
72.006798E-3
72.130966E-3
72.728920E-3
73.414993E-3
74.301338E-3
75.251770E-3
76.227951E-3
77.063942E-3
77.388954E-3
77.854156E-3
78.078461E-3
77.918243E-3
77.807236E-3
77.462196E-3
77.229881E-3
76.866531E-3
76.655388E-3
76.512909E-3
76.257706E-3
76.155853E-3
76.174164E-3
76.031113E-3
76.061440E-3
76.130104E-3
75.795937E-3
76.044273E-3
75.799370E-3
75.698662E-3
75.420570E-3
75.154495E-3
75.037766E-3
74.901581E-3
74.985123E-3
74.764252E-3
75.105286E-3
75.323296E-3
75.317001E-3
75.494957E-3
75.481224E-3
75.422287E-3
75.413704E-3
75.223732E-3
75.232887E-3
74.996567E-3
74.874687E-3
74.811172E-3
74.571419E-3
74.499893E-3
74.267578E-3
74.121094E-3
74.055862E-3
73.859024E-3
73.835564E-3
73.705673E-3
73.675346E-3
73.641014E-3
73.528290E-3
73.515701E-3
73.689651E-3
73.529434E-3
73.369217E-3
73.247910E-3
73.158073E-3
73.166084E-3
73.071098E-3
73.088264E-3
72.958946E-3
73.171234E-3
72.965813E-3
72.912598E-3
72.958374E-3
72.863960E-3
72.845078E-3
72.735786E-3
72.640800E-3
72.702599E-3
72.858238E-3
72.659683E-3
72.561264E-3
72.439384E-3
72.431374E-3
72.296906E-3
72.340393E-3
72.319221E-3
72.193909E-3
71.979904E-3
72.000504E-3
72.072601E-3
72.039986E-3
71.923828E-3
71.873474E-3
71.755028E-3
71.704102E-3
71.562195E-3
71.356773E-3
71.432304E-3
71.363640E-3
71.503258E-3
71.680069E-3
72.106934E-3
72.846222E-3
73.634720E-3
74.681854E-3
75.557899E-3
76.580429E-3
77.416420E-3
77.833557E-3
78.176880E-3
78.237534E-3
78.133392E-3
77.978897E-3
77.597809E-3
77.099991E-3
76.944351E-3
76.813889E-3
76.748657E-3
76.526070E-3
76.527786E-3
76.503181E-3
76.563263E-3
76.685715E-3
76.778412E-3
76.899719E-3
76.769257E-3
76.540375E-3
76.364136E-3
75.926971E-3
75.790215E-3
75.587082E-3
75.411415E-3
75.380516E-3
75.339890E-3
75.445175E-3
75.458908E-3
75.529861E-3
75.596809E-3
75.544739E-3
75.907516E-3
75.754738E-3
75.551605E-3
75.466347E-3
75.226593E-3
75.214577E-3
75.034904E-3
74.828339E-3
74.723053E-3
74.343109E-3
74.317360E-3
74.208641E-3
74.164009E-3
74.105644E-3
73.971176E-3
73.986053E-3
73.900795E-3
73.776054E-3
73.865891E-3
73.583794E-3
73.560333E-3
73.500824E-3
73.423576E-3
73.488808E-3
73.306847E-3
73.366928E-3
73.334312E-3
73.616409E-3
73.501396E-3
73.141479E-3
73.219872E-3
73.100281E-3
73.034477E-3
73.075104E-3
72.970963E-3
72.990990E-3
73.124886E-3
72.875977E-3
72.875404E-3
72.798157E-3
72.805595E-3
72.735786E-3
72.669411E-3
72.684860E-3
72.492027E-3
72.239685E-3
72.396469E-3
72.271156E-3
72.349548E-3
72.217369E-3
72.300339E-3
72.235107E-3
72.085762E-3
72.047424E-3
72.035408E-3
71.946716E-3
71.864891E-3
71.776772E-3
71.785355E-3
71.711540E-3
71.798515E-3
72.079468E-3
72.476006E-3
73.051643E-3
74.062157E-3
75.118446E-3
76.087189E-3
76.967239E-3
77.654457E-3
78.051567E-3
78.374290E-3
78.429794E-3
78.233528E-3
78.020096E-3
77.593231E-3
77.434158E-3
77.099991E-3
76.871681E-3
76.725769E-3
76.876831E-3
76.659393E-3
76.485443E-3
76.550102E-3
76.614189E-3
76.576424E-3
76.612473E-3
76.487160E-3
76.181030E-3
75.883484E-3
75.628281E-3
75.581360E-3
75.425720E-3
75.338173E-3
75.386238E-3
75.437737E-3
75.540733E-3
75.565910E-3
75.893784E-3
75.818825E-3
75.718117E-3
75.809097E-3
75.678062E-3
75.506973E-3
75.523567E-3
75.284958E-3
75.177956E-3
74.996567E-3
74.783134E-3
74.665260E-3
74.535370E-3
74.462128E-3
74.321365E-3
74.246979E-3
74.268723E-3
74.127960E-3
74.110222E-3
73.987770E-3
73.940277E-3
73.988914E-3
73.798943E-3
73.793221E-3
73.727989E-3
73.677635E-3
73.712540E-3
73.760033E-3
73.638725E-3
73.605537E-3
73.507118E-3
73.495674E-3
73.396111E-3
73.507118E-3
73.443604E-3
73.329163E-3
73.757172E-3
73.345757E-3
73.281097E-3
73.178101E-3
73.080826E-3
73.051071E-3
72.997856E-3
72.978401E-3
72.920036E-3
73.073387E-3
72.929192E-3
72.776413E-3
72.797012E-3
72.653961E-3
72.541809E-3
72.609901E-3
72.441101E-3
72.359276E-3
72.289467E-3
72.170448E-3
72.143555E-3
71.977043E-3
71.946144E-3
71.926689E-3
71.863747E-3
71.765900E-3
72.056580E-3
72.734642E-3
73.517418E-3
74.319077E-3
75.386238E-3
76.229095E-3
76.998711E-3
77.639008E-3
78.038406E-3
78.232384E-3
78.141975E-3
78.045845E-3
77.732849E-3
77.311707E-3
77.103424E-3
76.725769E-3
76.493454E-3
75.914955E-3
75.975609E-3
75.984192E-3
75.997925E-3
76.143837E-3
76.147842E-3
76.042557E-3
76.067162E-3
75.799942E-3
75.399399E-3
75.248909E-3
75.061798E-3
74.965096E-3
74.890709E-3
74.931335E-3
74.955368E-3
75.066948E-3
75.212288E-3
75.438309E-3
75.481796E-3
75.504684E-3
75.399971E-3
75.399399E-3
75.224304E-3
75.167084E-3
75.060081E-3
74.800301E-3
75.098991E-3
74.642944E-3
74.450684E-3
74.292183E-3
73.973465E-3
73.913956E-3
73.744583E-3
73.659897E-3
73.613548E-3
73.853302E-3
73.651886E-3
73.475647E-3
73.484802E-3
73.466492E-3
73.285675E-3
73.319435E-3
73.080826E-3
73.122597E-3
73.104286E-3
72.994995E-3
73.083687E-3
72.944069E-3
72.960663E-3
72.894287E-3
72.815895E-3
72.508621E-3
72.708893E-3
72.749519E-3
72.740936E-3
72.722054E-3
72.693443E-3
72.604179E-3
72.510338E-3
72.466278E-3
72.085190E-3
72.302055E-3
72.258568E-3
72.255135E-3
72.256279E-3
72.119522E-3
72.175026E-3
72.070885E-3
72.028542E-3
72.257996E-3
71.961021E-3
71.865463E-3
71.751022E-3
71.745872E-3
71.638298E-3
71.491241E-3
71.537590E-3
71.323586E-3
71.387100E-3
71.421432E-3
71.393394E-3
71.688652E-3
72.176743E-3
72.975540E-3
74.007225E-3
75.030327E-3
76.159286E-3
77.038193E-3
77.679634E-3
78.076172E-3
78.347397E-3
78.346252E-3
78.079033E-3
77.863884E-3
77.598381E-3
77.244186E-3
76.916885E-3
76.641083E-3
76.524925E-3
76.402473E-3
76.299477E-3
76.471138E-3
76.435089E-3
76.498032E-3
76.568985E-3
76.738930E-3
76.540375E-3
76.282883E-3
76.085472E-3
75.833130E-3
75.539017E-3
75.397110E-3
75.268936E-3
75.318718E-3
75.291824E-3
75.324440E-3
75.365067E-3
75.395966E-3
75.438881E-3
75.534439E-3
75.500107E-3
75.751305E-3
75.432014E-3
75.393105E-3
75.197411E-3
74.986267E-3
74.927902E-3
74.737358E-3
74.633217E-3
74.461555E-3
74.367714E-3
74.214935E-3
74.087906E-3
73.959732E-3
73.834991E-3
73.713112E-3
73.736572E-3
73.554611E-3
73.569489E-3
73.573494E-3
73.500252E-3
73.445320E-3
73.421860E-3
73.329163E-3
73.357201E-3
73.190117E-3
73.261070E-3
73.140907E-3
73.424721E-3
73.234749E-3
72.958374E-3
73.031044E-3
