Notes :


2023-11-04 ¿ÀÈÄ 10:08:53
Volts
Ch : LED 2,
474.183083E-3
474.044037E-3
473.910141E-3
473.875237E-3
473.823166E-3
473.624611E-3
473.722458E-3
473.407173E-3
473.271561E-3
473.079872E-3
473.010635E-3
472.909355E-3
472.948837E-3
472.867012E-3
472.679901E-3
472.451591E-3
472.262192E-3
472.042465E-3
471.892548E-3
471.825027E-3
471.454239E-3
471.209908E-3
470.847702E-3
470.652580E-3
470.419693E-3
470.246887E-3
470.165634E-3
470.496941E-3
471.605873E-3
473.526764E-3
476.283646E-3
479.532051E-3
482.938957E-3
486.230278E-3
489.042091E-3
491.240501E-3
492.556572E-3
493.038940E-3
492.713356E-3
491.953468E-3
490.810776E-3
489.530754E-3
488.243866E-3
487.170410E-3
486.300659E-3
485.663223E-3
485.477257E-3
485.322189E-3
485.448074E-3
485.635185E-3
485.687828E-3
485.844612E-3
485.852051E-3
485.723305E-3
485.346222E-3
484.702492E-3
483.845329E-3
483.054543E-3
482.378769E-3
481.889534E-3
481.577110E-3
481.446075E-3
481.506729E-3
481.606293E-3
481.699562E-3
481.743050E-3
481.842041E-3
481.832886E-3
481.638336E-3
481.293297E-3
480.994606E-3
480.588341E-3
480.124283E-3
479.716873E-3
479.244804E-3
478.851128E-3
478.458595E-3
478.071213E-3
477.790260E-3
477.535057E-3
477.261543E-3
477.058411E-3
476.803780E-3
476.590919E-3
476.352882E-3
476.161766E-3
475.913429E-3
475.781822E-3
475.479698E-3
475.326920E-3
475.231934E-3
475.010490E-3
475.067139E-3
474.960136E-3
474.904633E-3
474.758148E-3
474.600792E-3
474.538422E-3
474.397659E-3
474.295807E-3
474.230576E-3
474.070930E-3
473.856926E-3
473.748207E-3
473.624611E-3
473.557091E-3
473.493576E-3
473.276138E-3
473.181725E-3
473.139381E-3
472.946548E-3
472.804070E-3
472.649002E-3
472.458458E-3
472.375488E-3
472.085381E-3
471.949196E-3
471.714020E-3
471.473694E-3
471.379852E-3
471.099472E-3
470.826530E-3
470.678329E-3
470.583344E-3
470.486069E-3
470.656013E-3
471.425056E-3
473.064423E-3
475.579834E-3
478.670311E-3
481.986809E-3
485.247231E-3
487.980080E-3
490.154457E-3
491.401863E-3
491.742897E-3
491.240501E-3
490.086365E-3
488.701630E-3
487.323189E-3
485.908699E-3
484.761429E-3
483.783531E-3
483.178711E-3
482.838821E-3
482.668877E-3
482.670593E-3
482.809067E-3
482.939529E-3
483.036804E-3
482.890892E-3
482.666588E-3
482.168198E-3
481.484413E-3
480.688477E-3
480.063629E-3
479.751778E-3
479.567528E-3
479.546356E-3
479.764366E-3
479.914284E-3
480.159760E-3
480.400085E-3
480.285072E-3
480.257034E-3
479.976654E-3
479.661369E-3
479.204750E-3
478.657722E-3
478.173065E-3
477.551079E-3
477.254677E-3
476.663017E-3
476.136589E-3
475.679970E-3
475.238800E-3
474.945831E-3
474.705505E-3
474.563599E-3
474.423409E-3
474.330139E-3
474.154472E-3
474.028015E-3
473.904419E-3
473.826027E-3
473.700714E-3
473.684692E-3
473.743057E-3
473.579407E-3
473.459244E-3
473.460388E-3
473.464966E-3
473.391151E-3
473.244667E-3
473.232651E-3
473.186874E-3
473.214912E-3
473.038673E-3
472.893333E-3
472.806931E-3
472.697639E-3
472.672462E-3
472.560883E-3
472.422409E-3
472.429276E-3
472.309685E-3
472.265053E-3
472.196388E-3
471.990967E-3
471.755219E-3
471.511459E-3
471.273422E-3
471.066284E-3
470.828247E-3
470.609093E-3
470.277214E-3
470.028877E-3
469.803429E-3
469.508743E-3
469.329643E-3
469.285011E-3
469.643784E-3
470.848846E-3
472.992897E-3
475.753784E-3
479.039955E-3
482.466888E-3
485.782814E-3
488.636398E-3
490.769577E-3
492.020988E-3
492.558861E-3
492.267036E-3
491.316605E-3
490.221977E-3
488.868141E-3
487.726593E-3
486.681175E-3
485.919571E-3
485.432625E-3
485.155106E-3
485.087013E-3
485.211182E-3
485.416603E-3
485.646057E-3
485.816002E-3
485.956764E-3
485.920143E-3
485.641479E-3
485.036087E-3
484.089088E-3
483.377838E-3
482.632828E-3
482.133865E-3
481.785393E-3
481.699562E-3
481.804848E-3
481.919289E-3
481.979942E-3
481.996536E-3
482.163048E-3
482.207108E-3
482.112694E-3
482.056618E-3
481.807709E-3
481.497002E-3
481.068993E-3
480.650139E-3
480.110550E-3
479.849625E-3
479.270554E-3
478.964996E-3
478.536987E-3
478.218842E-3
477.947617E-3
477.668953E-3
477.434921E-3
477.288437E-3
477.092171E-3
476.952553E-3
476.807213E-3
476.658440E-3
476.560020E-3
476.430130E-3
476.145172E-3
476.019859E-3
475.890541E-3
475.784111E-3
475.596428E-3
475.618172E-3
475.613594E-3
475.617027E-3
475.467110E-3
475.229073E-3
475.219917E-3
475.076866E-3
474.916077E-3
474.779320E-3
474.640846E-3
474.441719E-3
474.262619E-3
474.174500E-3
474.197388E-3
473.989677E-3
473.854637E-3
473.728180E-3
473.559380E-3
473.470116E-3
473.290443E-3
473.173141E-3
473.039246E-3
472.959137E-3
472.735977E-3
472.599220E-3
472.376060E-3
472.193527E-3
472.051048E-3
471.926308E-3
471.708298E-3
471.437645E-3
471.314049E-3
470.993614E-3
470.840263E-3
470.965576E-3
471.861649E-3
473.612022E-3
476.168060E-3
479.465675E-3
483.011055E-3
486.576462E-3
489.732170E-3
492.139435E-3
493.717575E-3
494.509506E-3
494.410515E-3
493.679810E-3
492.702484E-3
491.374397E-3
489.989662E-3
488.774872E-3
487.762070E-3
487.181854E-3
486.732674E-3
486.429405E-3
486.382484E-3
486.310959E-3
486.554718E-3
486.726952E-3
486.856842E-3
486.954117E-3
486.691475E-3
486.291504E-3
485.599136E-3
484.768867E-3
483.926582E-3
483.266830E-3
482.790756E-3
482.513237E-3
482.419395E-3
482.448578E-3
482.422256E-3
482.518387E-3
482.617378E-3
482.862854E-3
482.789040E-3
482.458305E-3
482.355881E-3
481.958771E-3
481.459236E-3
481.016350E-3
480.591774E-3
480.159187E-3
479.784966E-3
479.370689E-3
479.089737E-3
478.741837E-3
478.551292E-3
478.396797E-3
478.179359E-3
477.973366E-3
477.766228E-3
477.746773E-3
477.329063E-3
477.072144E-3
476.915359E-3
476.788902E-3
476.543999E-3
476.431274E-3
476.304245E-3
476.238441E-3
475.945473E-3
475.849342E-3
475.769806E-3
475.686264E-3
475.513458E-3
475.435066E-3
475.311470E-3
475.152969E-3
474.975586E-3
474.925232E-3
474.686623E-3
474.584198E-3
474.477768E-3
474.271774E-3
474.183655E-3
473.970795E-3
473.970795E-3
473.640633E-3
473.523331E-3
473.396873E-3
473.202896E-3
473.105621E-3
473.088455E-3
472.915649E-3
472.927094E-3
472.843552E-3
472.578049E-3
472.348022E-3
472.171211E-3
471.916580E-3
471.735191E-3
471.579552E-3
471.237946E-3
470.863152E-3
470.835686E-3
470.583344E-3
470.582771E-3
471.110344E-3
472.467613E-3
474.811935E-3
477.739906E-3
481.048393E-3
484.330559E-3
487.160110E-3
489.449501E-3
491.037941E-3
491.730309E-3
491.586685E-3
490.779305E-3
489.724731E-3
488.303947E-3
486.853981E-3
485.638046E-3
484.367752E-3
483.409309E-3
482.675743E-3
482.267761E-3
482.093811E-3
481.919289E-3
482.019424E-3
482.090950E-3
482.379341E-3
482.395363E-3
482.081795E-3
481.674957E-3
481.010056E-3
480.310249E-3
479.807854E-3
479.506302E-3
479.447365E-3
479.515457E-3
479.683113E-3
479.898262E-3
480.235863E-3
480.517387E-3
480.639839E-3
480.699921E-3
480.608940E-3
480.197525E-3
479.760361E-3
479.316330E-3
478.780746E-3
478.273201E-3
477.700424E-3
477.205467E-3
476.817513E-3
476.502228E-3
476.156616E-3
475.765228E-3
475.494576E-3
475.118065E-3
474.875450E-3
474.604797E-3
474.409676E-3
474.190521E-3
474.179649E-3
474.032021E-3
473.768234E-3
473.636055E-3
473.532486E-3
473.425484E-3
473.335648E-3
473.174286E-3
473.035240E-3
472.770882E-3
472.652435E-3
472.542572E-3
472.348595E-3
472.204971E-3
472.139168E-3
472.019577E-3
471.961784E-3
471.854782E-3
471.924019E-3
471.652794E-3
471.527481E-3
471.350098E-3
471.317482E-3
471.132660E-3
471.053123E-3
470.879745E-3
470.799065E-3
470.650864E-3
470.545006E-3
470.358467E-3
470.251465E-3
470.130730E-3
469.916153E-3
469.626045E-3
469.343376E-3
468.971443E-3
468.746567E-3
468.482780E-3
468.406105E-3
468.852997E-3
469.943619E-3
471.894836E-3
474.779892E-3
477.953911E-3
481.379128E-3
484.483910E-3
487.045670E-3
489.089012E-3
490.295792E-3
490.619659E-3
490.195656E-3
489.155960E-3
487.948608E-3
486.584473E-3
485.339928E-3
484.311676E-3
483.390999E-3
482.711792E-3
482.189369E-3
482.014275E-3
481.840324E-3
481.918144E-3
481.916428E-3
481.842613E-3
481.903267E-3
481.894684E-3
481.693840E-3
481.301880E-3
480.665016E-3
480.020714E-3
479.430771E-3
478.926086E-3
478.630829E-3
478.550148E-3
478.571892E-3
478.618240E-3
478.746414E-3
478.818512E-3
478.864861E-3
478.989029E-3
478.954124E-3
478.870583E-3
478.750992E-3
478.412819E-3
478.003120E-3
477.529907E-3
476.924515E-3
476.558304E-3
476.053047E-3
475.661659E-3
475.255966E-3
475.040817E-3
474.679184E-3
474.469757E-3
474.334717E-3
474.013138E-3
473.806000E-3
473.600578E-3
473.424339E-3
473.365974E-3
473.072433E-3
472.919655E-3
472.780609E-3
472.578049E-3
472.389221E-3
472.239304E-3
472.014999E-3
471.926308E-3
471.722603E-3
471.707153E-3
471.620750E-3
471.401024E-3
471.362114E-3
470.969009E-3
470.898056E-3
470.656586E-3
470.590782E-3
470.374489E-3
470.256042E-3
470.134163E-3
469.956779E-3
469.869804E-3
469.945908E-3
469.726753E-3
469.685555E-3
469.607162E-3
469.423485E-3
469.284439E-3
469.040680E-3
468.953705E-3
468.709373E-3
468.702507E-3
468.378639E-3
468.093681E-3
468.018150E-3
467.807579E-3
467.623329E-3
467.432785E-3
467.240524E-3
467.212486E-3
467.491150E-3
468.625259E-3
470.681190E-3
473.567963E-3
476.866722E-3
480.199814E-3
483.402443E-3
486.298370E-3
488.437271E-3
489.532471E-3
489.848328E-3
489.388847E-3
488.555717E-3
487.203026E-3
485.855484E-3
484.522247E-3
483.380127E-3
482.429123E-3
481.683540E-3
481.192017E-3
480.919647E-3
480.836105E-3
480.988312E-3
481.154251E-3
481.282997E-3
481.495285E-3
481.459236E-3
481.369972E-3
480.986595E-3
480.370903E-3
479.610443E-3
479.050827E-3
478.637123E-3
478.254318E-3
478.237152E-3
478.116989E-3
478.183937E-3
478.299522E-3
478.500366E-3
478.555298E-3
478.678322E-3
478.653717E-3
478.454590E-3
478.230286E-3
477.858353E-3
477.437782E-3
477.032661E-3
476.608086E-3
476.224709E-3
475.843620E-3
475.440216E-3
475.080872E-3
474.850273E-3
474.667168E-3
474.381065E-3
474.185944E-3
473.805428E-3
473.600578E-3
473.395729E-3
473.237228E-3
473.102188E-3
472.959137E-3
472.801208E-3
472.586632E-3
472.523689E-3
472.396660E-3
472.291374E-3
472.176933E-3
472.127724E-3
471.948624E-3
471.826172E-3
471.707153E-3
471.615028E-3
471.364403E-3
471.288300E-3
471.146393E-3
471.078300E-3
471.029663E-3
470.864868E-3
470.738983E-3
470.754433E-3
470.547867E-3
470.554733E-3
470.401382E-3
470.310402E-3
470.126724E-3
469.924164E-3
469.852066E-3
469.713020E-3
469.589424E-3
469.494438E-3
469.303322E-3
469.096756E-3
468.853569E-3
468.657303E-3
468.561172E-3
468.200111E-3
468.043327E-3
467.948341E-3
468.213844E-3
469.183731E-3
471.057701E-3
473.731613E-3
476.829529E-3
480.168915E-3
483.105469E-3
485.468102E-3
487.269402E-3
488.071632E-3
488.334274E-3
487.713432E-3
486.617088E-3
485.354233E-3
484.078217E-3
482.813644E-3
481.545639E-3
480.647850E-3
479.997826E-3
479.490280E-3
479.148674E-3
479.125786E-3
479.132080E-3
479.324341E-3
479.648781E-3
480.081940E-3
480.306816E-3
480.246735E-3
479.956627E-3
479.423904E-3
478.785324E-3
478.364182E-3
478.192520E-3
478.284073E-3
478.510666E-3
478.874588E-3
479.166412E-3
479.403877E-3
479.560089E-3
479.380989E-3
479.409599E-3
479.019356E-3
478.634834E-3
478.270340E-3
477.706146E-3
477.133369E-3
476.677895E-3
476.190948E-3
475.723457E-3
475.200462E-3
474.730682E-3
474.356461E-3
474.021721E-3
473.684692E-3
473.430634E-3
473.138237E-3
472.864151E-3
472.699356E-3
472.455025E-3
472.223282E-3
472.124863E-3
471.966362E-3
471.908569E-3
471.797562E-3
471.724892E-3
471.696854E-3
471.552658E-3
471.312332E-3
471.180725E-3
471.024513E-3
470.912361E-3
470.866585E-3
470.700073E-3
470.526123E-3
470.419693E-3
470.520973E-3
470.335007E-3
470.208549E-3
470.100403E-3
470.033455E-3
469.948769E-3
469.725609E-3
469.473267E-3
469.321632E-3
469.014931E-3
468.874168E-3
468.608665E-3
468.414116E-3
468.236160E-3
467.829895E-3
467.531776E-3
467.432785E-3
467.260551E-3
467.450523E-3
468.228149E-3
469.892693E-3
472.425270E-3
475.395584E-3
478.666306E-3
481.672096E-3
484.135437E-3
486.264610E-3
487.643051E-3
488.055611E-3
487.786674E-3
487.052536E-3
485.966492E-3
484.596062E-3
483.329201E-3
482.086372E-3
481.180000E-3
480.438995E-3
480.025291E-3
479.817581E-3
479.741478E-3
479.913139E-3
480.071640E-3
480.114555E-3
480.211830E-3
480.188942E-3
480.001259E-3
479.586983E-3
478.940964E-3
478.227425E-3
477.703857E-3
477.204323E-3
477.000046E-3
477.054977E-3
477.056694E-3
477.192307E-3
477.433205E-3
477.529335E-3
477.644920E-3
477.729034E-3
477.756500E-3
477.647209E-3
477.626038E-3
477.161980E-3
476.792336E-3
476.303673E-3
475.853920E-3
475.454521E-3
475.065994E-3
474.751854E-3
474.454308E-3
474.180794E-3
473.961067E-3
473.709869E-3
473.404884E-3
473.099327E-3
472.909355E-3
472.770309E-3
472.653580E-3
472.546005E-3
472.401237E-3
472.319984E-3
472.172356E-3
472.042465E-3
471.950340E-3
471.704292E-3
471.559525E-3
471.391869E-3
471.367836E-3
471.308327E-3
471.188164E-3
471.035385E-3
471.028519E-3
471.038818E-3
470.963287E-3
470.866013E-3
470.533562E-3
470.503235E-3
470.398521E-3
470.301247E-3
470.210838E-3
470.116425E-3
470.048332E-3
469.846344E-3
469.824028E-3
469.634056E-3
469.588280E-3
469.390869E-3
469.194031E-3
469.007492E-3
468.699646E-3
468.440437E-3
468.190956E-3
467.921448E-3
467.909431E-3
467.752075E-3
468.067360E-3
468.939400E-3
470.931244E-3
473.681259E-3
476.751137E-3
480.111122E-3
483.382416E-3
486.099243E-3
488.232422E-3
489.438629E-3
489.792824E-3
489.377975E-3
488.581467E-3
487.354660E-3
486.099243E-3
484.863853E-3
483.735466E-3
482.926941E-3
482.310677E-3
481.941605E-3
481.791115E-3
481.875229E-3
481.972504E-3
482.124710E-3
482.356453E-3
482.470894E-3
482.593918E-3
482.516670E-3
482.175064E-3
481.459236E-3
480.737114E-3
480.041885E-3
479.504585E-3
479.191017E-3
478.981018E-3
478.995323E-3
478.941536E-3
479.106903E-3
479.389000E-3
479.493141E-3
479.612732E-3
479.307175E-3
479.359818E-3
479.086304E-3
478.869438E-3
478.483772E-3
478.119278E-3
477.755356E-3
477.338791E-3
476.990891E-3
476.756287E-3
476.368904E-3
476.086235E-3
475.812721E-3
475.528336E-3
475.295448E-3
475.081444E-3
474.803352E-3
474.585915E-3
474.459457E-3
474.285507E-3
474.110985E-3
473.913574E-3
473.872375E-3
473.676682E-3
473.622894E-3
473.496437E-3
473.386002E-3
473.505020E-3
473.244667E-3
473.015785E-3
472.964287E-3
472.934532E-3
472.688484E-3
472.635841E-3
472.670746E-3
472.435570E-3
472.291374E-3
472.282791E-3
472.147179E-3
472.087669E-3
471.869659E-3
471.687126E-3
471.568680E-3
471.401596E-3
471.215630E-3
471.099472E-3
470.895195E-3
470.767593E-3
470.496368E-3
470.298958E-3
470.129013E-3
469.881821E-3
469.682121E-3
469.479561E-3
469.338799E-3
469.286156E-3
469.594574E-3
470.736694E-3
472.578621E-3
475.274277E-3
478.341866E-3
481.649780E-3
484.679604E-3
487.050819E-3
488.750839E-3
489.634895E-3
489.683533E-3
488.982582E-3
487.918854E-3
