Notes :


2023-10-26 ¿ÀÈÄ 10:48:36
Volts
Ch : LED 2,
331.705856E-3
333.514595E-3
333.496857E-3
334.513664E-3
335.524178E-3
335.040092E-3
337.364388E-3
337.418747E-3
338.526535E-3
339.075851E-3
338.871002E-3
340.377045E-3
339.752769E-3
340.255165E-3
340.517235E-3
340.137863E-3
341.322899E-3
340.537834E-3
340.715218E-3
340.914917E-3
340.517235E-3
341.662216E-3
340.813637E-3
341.381836E-3
341.584396E-3
341.102600E-3
342.574310E-3
341.659927E-3
342.023277E-3
342.434692E-3
342.308807E-3
343.442917E-3
342.806625E-3
343.250084E-3
343.572235E-3
342.858124E-3
344.762993E-3
344.308662E-3
344.763565E-3
345.245361E-3
344.836235E-3
345.957756E-3
345.158386E-3
345.474815E-3
345.936584E-3
345.558357E-3
346.640396E-3
345.824432E-3
346.497345E-3
347.071838E-3
346.712494E-3
348.050308E-3
347.263527E-3
347.609138E-3
348.192787E-3
347.813988E-3
349.207306E-3
348.177338E-3
348.287773E-3
347.800255E-3
346.092796E-3
344.835663E-3
340.105820E-3
335.627747E-3
330.857277E-3
325.654221E-3
323.080444E-3
319.892120E-3
319.424057E-3
320.092392E-3
320.724106E-3
323.692131E-3
325.313187E-3
327.726746E-3
329.856491E-3
331.172562E-3
333.275986E-3
332.992744E-3
333.619308E-3
333.849335E-3
333.366966E-3
333.976936E-3
333.032227E-3
333.239365E-3
333.778381E-3
334.113121E-3
335.898972E-3
335.535622E-3
336.256599E-3
336.013412E-3
335.247231E-3
335.461807E-3
333.832741E-3
333.301735E-3
333.035660E-3
332.308388E-3
333.621597E-3
333.055687E-3
333.951187E-3
334.782028E-3
334.993744E-3
337.046814E-3
337.038803E-3
337.879372E-3
339.027214E-3
338.909340E-3
340.706635E-3
340.292358E-3
341.086006E-3
341.577530E-3
341.370392E-3
342.593193E-3
341.929436E-3
342.501068E-3
342.899895E-3
341.971779E-3
343.048668E-3
342.382622E-3
342.676163E-3
342.446709E-3
341.964340E-3
342.998886E-3
342.396355E-3
342.683601E-3
342.826653E-3
342.719650E-3
343.703270E-3
343.070984E-3
343.473244E-3
343.576813E-3
343.328476E-3
344.506645E-3
344.003677E-3
344.455147E-3
344.634247E-3
344.585037E-3
345.966911E-3
345.405006E-3
345.911980E-3
346.363449E-3
345.268822E-3
346.845245E-3
346.226120E-3
346.592331E-3
346.790314E-3
345.402718E-3
347.060394E-3
346.501923E-3
346.902466E-3
347.133636E-3
346.824074E-3
347.977066E-3
347.487831E-3
347.869492E-3
348.453712E-3
348.219681E-3
349.368668E-3
348.708344E-3
348.948669E-3
349.059677E-3
347.586250E-3
346.737099E-3
342.720222E-3
338.616943E-3
333.594131E-3
328.047752E-3
324.224281E-3
319.981956E-3
318.168640E-3
317.920876E-3
317.895126E-3
320.436287E-3
321.700859E-3
324.057770E-3
326.444435E-3
327.797127E-3
330.399513E-3
330.480766E-3
331.179428E-3
331.513023E-3
330.641556E-3
331.132507E-3
329.950333E-3
329.507446E-3
329.539490E-3
329.237938E-3
330.688477E-3
330.827522E-3
332.124138E-3
333.060837E-3
332.917786E-3
334.127998E-3
333.077431E-3
332.971573E-3
332.813644E-3
331.903839E-3
332.719231E-3
331.882095E-3
332.400513E-3
332.615089E-3
332.781601E-3
334.646416E-3
334.393501E-3
335.271835E-3
336.128998E-3
336.470032E-3
338.165474E-3
337.932587E-3
338.795471E-3
339.660072E-3
339.515305E-3
340.850830E-3
340.237427E-3
340.702629E-3
341.147804E-3
340.700912E-3
341.642189E-3
340.972137E-3
341.064835E-3
341.296577E-3
340.761566E-3
341.851616E-3
341.134644E-3
341.583824E-3
341.746330E-3
341.273689E-3
342.283630E-3
341.899681E-3
342.205811E-3
342.525101E-3
341.705704E-3
343.387985E-3
342.814064E-3
343.305588E-3
343.833160E-3
343.648338E-3
344.782448E-3
344.354439E-3
345.057678E-3
345.553780E-3
344.341278E-3
345.984077E-3
345.877647E-3
346.074486E-3
346.205521E-3
345.968056E-3
347.008896E-3
346.172905E-3
346.547127E-3
346.861839E-3
346.543121E-3
348.017120E-3
347.468948E-3
347.749901E-3
348.258018E-3
348.061752E-3
349.472809E-3
348.970413E-3
349.589539E-3
349.790955E-3
349.401855E-3
350.247574E-3
349.134064E-3
348.250008E-3
345.476532E-3
341.133499E-3
337.460518E-3
331.594276E-3
327.084732E-3
323.343658E-3
320.408821E-3
320.416260E-3
320.032310E-3
321.489716E-3
323.599434E-3
325.386429E-3
328.970718E-3
330.135727E-3
332.064629E-3
333.205605E-3
333.740044E-3
335.433769E-3
334.459305E-3
334.307671E-3
333.681107E-3
332.819366E-3
333.786964E-3
332.806206E-3
333.730316E-3
334.411812E-3
334.668159E-3
336.577606E-3
336.091805E-3
336.776733E-3
336.650276E-3
335.232925E-3
336.062050E-3
334.840965E-3
334.671593E-3
334.566879E-3
334.406662E-3
335.840607E-3
335.438347E-3
336.418533E-3
337.181282E-3
337.528610E-3
339.520454E-3
339.543915E-3
340.543556E-3
341.398430E-3
341.532898E-3
342.937660E-3
342.693901E-3
343.241501E-3
343.552208E-3
343.236351E-3
344.260025E-3
343.714714E-3
344.148445E-3
344.344139E-3
343.579674E-3
344.732094E-3
344.050598E-3
344.318962E-3
344.290924E-3
343.858910E-3
345.143509E-3
344.347000E-3
344.843102E-3
345.071983E-3
344.453430E-3
345.624733E-3
344.974709E-3
345.796967E-3
346.188354E-3
345.711708E-3
346.864700E-3
346.380615E-3
346.797180E-3
347.119331E-3
346.729088E-3
348.243713E-3
347.480965E-3
348.062897E-3
348.145294E-3
347.805405E-3
349.040222E-3
348.406219E-3
348.823357E-3
348.931503E-3
348.409653E-3
349.570084E-3
348.935509E-3
349.605560E-3
349.929428E-3
349.679947E-3
350.905609E-3
350.302505E-3
351.117325E-3
351.195145E-3
350.708199E-3
351.914406E-3
350.798035E-3
350.412941E-3
348.950386E-3
345.374680E-3
342.760277E-3
337.388420E-3
333.172417E-3
328.954697E-3
325.234795E-3
324.468613E-3
323.364258E-3
324.570465E-3
326.347733E-3
327.732468E-3
331.246948E-3
332.650566E-3
335.030937E-3
336.460304E-3
337.259674E-3
339.248085E-3
339.019775E-3
339.510727E-3
339.516449E-3
338.619804E-3
339.523888E-3
338.868141E-3
339.677238E-3
339.993095E-3
340.100098E-3
341.296005E-3
340.219116E-3
340.338135E-3
339.450645E-3
338.062477E-3
338.611221E-3
337.211037E-3
337.302017E-3
337.129211E-3
335.868073E-3
337.782097E-3
337.732887E-3
338.798904E-3
339.598846E-3
339.953041E-3
341.804123E-3
342.014122E-3
342.702484E-3
343.468666E-3
342.793465E-3
344.848824E-3
344.813347E-3
345.609283E-3
345.900536E-3
345.078850E-3
346.466446E-3
345.996094E-3
346.553993E-3
346.418953E-3
345.110893E-3
346.628952E-3
345.950890E-3
346.364594E-3
346.429825E-3
345.898247E-3
346.947098E-3
346.072197E-3
346.422958E-3
346.690750E-3
346.051598E-3
347.471237E-3
346.673584E-3
347.031784E-3
347.301292E-3
346.327972E-3
348.144722E-3
347.649193E-3
348.307228E-3
348.641396E-3
348.160172E-3
349.512863E-3
349.158669E-3
349.510002E-3
349.730301E-3
349.254799E-3
350.375748E-3
349.780083E-3
350.191498E-3
350.188065E-3
349.888802E-3
351.017761E-3
350.430107E-3
350.820923E-3
351.074409E-3
350.711632E-3
352.053452E-3
351.517868E-3
352.145004E-3
352.391052E-3
351.881218E-3
353.168106E-3
352.400208E-3
351.917267E-3
350.216675E-3
346.923637E-3
344.032288E-3
338.290215E-3
333.404732E-3
328.773308E-3
324.102974E-3
323.401451E-3
321.926308E-3
322.540283E-3
324.175072E-3
325.918579E-3
329.272270E-3
330.848122E-3
333.027649E-3
334.667015E-3
335.592842E-3
337.454796E-3
337.014771E-3
337.558937E-3
337.345505E-3
336.216545E-3
337.130928E-3
335.920143E-3
335.878944E-3
336.385345E-3
336.306381E-3
338.171768E-3
338.190079E-3
338.597488E-3
338.544846E-3
337.921143E-3
338.579750E-3
337.277985E-3
336.944962E-3
336.864281E-3
336.425972E-3
337.248230E-3
336.717224E-3
337.616730E-3
338.204384E-3
338.476181E-3
340.239716E-3
340.195084E-3
341.354942E-3
342.116547E-3
342.257309E-3
344.009972E-3
343.807983E-3
344.688034E-3
345.159531E-3
344.828796E-3
346.049309E-3
345.475960E-3
345.970917E-3
346.085358E-3
345.588112E-3
346.598053E-3
345.969772E-3
346.389771E-3
346.482468E-3
346.083641E-3
346.980858E-3
346.362305E-3
346.919060E-3
346.842384E-3
346.517944E-3
347.732162E-3
347.163391E-3
347.643471E-3
347.796822E-3
347.645187E-3
348.784447E-3
348.502922E-3
349.024200E-3
349.096870E-3
348.896027E-3
350.287056E-3
349.805260E-3
350.267029E-3
350.652695E-3
350.438690E-3
351.745033E-3
351.120758E-3
351.501846E-3
351.525879E-3
350.442696E-3
352.210808E-3
351.829720E-3
352.099800E-3
352.106094E-3
351.842880E-3
353.183556E-3
352.646255E-3
353.220177E-3
353.505707E-3
353.216743E-3
354.654694E-3
354.192352E-3
354.505920E-3
354.472733E-3
353.375244E-3
353.466225E-3
350.641823E-3
347.371674E-3
342.906761E-3
337.233925E-3
333.251953E-3
328.601074E-3
326.411819E-3
325.155830E-3
324.903488E-3
327.384567E-3
328.776741E-3
331.574249E-3
333.852196E-3
335.502434E-3
338.384628E-3
339.083862E-3
340.229988E-3
340.810204E-3
340.448570E-3
341.548347E-3
340.445137E-3
340.447998E-3
339.832878E-3
339.194870E-3
340.469170E-3
340.264893E-3
341.464233E-3
341.961479E-3
341.840744E-3
342.710495E-3
342.078781E-3
341.591263E-3
340.907478E-3
339.866066E-3
340.412521E-3
339.466095E-3
339.848900E-3
339.917564E-3
339.966774E-3
341.591263E-3
341.499138E-3
342.748833E-3
343.442917E-3
342.979431E-3
345.296860E-3
345.429039E-3
346.467590E-3
347.000313E-3
346.903038E-3
348.307228E-3
347.744179E-3
348.339272E-3
348.538399E-3
348.101807E-3
349.087143E-3
348.587608E-3
348.859978E-3
348.826790E-3
348.310661E-3
349.235916E-3
348.641968E-3
349.203300E-3
348.822784E-3
348.225975E-3
349.634171E-3
348.643684E-3
349.068260E-3
349.167824E-3
348.536682E-3
349.745750E-3
349.165535E-3
349.678802E-3
349.868774E-3
349.506569E-3
350.817490E-3
350.334549E-3
350.617790E-3
350.753975E-3
350.709343E-3
351.888657E-3
351.060104E-3
351.703262E-3
351.663208E-3
351.236343E-3
352.650261E-3
352.001381E-3
352.484322E-3
352.563286E-3
351.754761E-3
353.484535E-3
353.190422E-3
353.804970E-3
353.990364E-3
353.709984E-3
354.873848E-3
354.430962E-3
354.637527E-3
354.022980E-3
351.900673E-3
351.298714E-3
347.165680E-3
343.262672E-3
338.549995E-3
332.365036E-3
330.499649E-3
327.410316E-3
326.943970E-3
327.145386E-3
326.517105E-3
330.238724E-3
331.919289E-3
334.276199E-3
336.241150E-3
337.958908E-3
340.542984E-3
340.773010E-3
341.779518E-3
342.066765E-3
341.704559E-3
342.628670E-3
341.551781E-3
341.776085E-3
341.784668E-3
340.857697E-3
342.956543E-3
342.735100E-3
343.286705E-3
343.066406E-3
342.355156E-3
342.778587E-3
341.323471E-3
340.718651E-3
340.245438E-3
339.476395E-3
340.335274E-3
339.744186E-3
340.348434E-3
341.039658E-3
341.119766E-3
342.711067E-3
342.709351E-3
343.677521E-3
344.523239E-3
343.642044E-3
345.994377E-3
346.093369E-3
347.115326E-3
347.361946E-3
347.182846E-3
348.616791E-3
347.934723E-3
348.412514E-3
348.540115E-3
348.073769E-3
348.962975E-3
348.318672E-3
348.576736E-3
348.664856E-3
348.092651E-3
349.069405E-3
348.223686E-3
348.601341E-3
348.632812E-3
347.988510E-3
349.166679E-3
348.358727E-3
348.854256E-3
349.060822E-3
348.656273E-3
349.730873E-3
349.131775E-3
349.675941E-3
349.748039E-3
349.551773E-3
350.839233E-3
350.359726E-3
350.757980E-3
350.820923E-3
350.609779E-3
351.648331E-3
350.971985E-3
351.451492E-3
351.418877E-3
350.815773E-3
352.166176E-3
351.675797E-3
352.200508E-3
352.245712E-3
351.949883E-3
353.261375E-3
352.644539E-3
353.391838E-3
353.621864E-3
353.283691E-3
354.552269E-3
353.736877E-3
353.597832E-3
352.413940E-3
349.578667E-3
347.289276E-3
342.089653E-3
337.306595E-3
332.247162E-3
327.140808E-3
325.877380E-3
323.987389E-3
324.209404E-3
325.020218E-3
326.320267E-3
329.514313E-3
330.846977E-3
333.378410E-3
335.168839E-3
335.866928E-3
337.968063E-3
337.798119E-3
338.277626E-3
338.006973E-3
337.084007E-3
337.806129E-3
336.519814E-3
336.833954E-3
336.588478E-3
336.697769E-3
338.496780E-3
338.337708E-3
339.099884E-3
339.297867E-3
338.513947E-3
339.166832E-3
338.010979E-3
338.001251E-3
337.557220E-3
336.632538E-3
337.627602E-3
337.256241E-3
338.079643E-3
338.570595E-3
338.606644E-3
340.470314E-3
340.225410E-3
341.208458E-3
342.182350E-3
342.277908E-3
344.098091E-3
343.843460E-3
344.603348E-3
344.998741E-3
344.779015E-3
346.087074E-3
345.367241E-3
345.778084E-3
346.136856E-3
345.820427E-3
346.780014E-3
345.976067E-3
346.424103E-3
346.579170E-3
345.850182E-3
347.148514E-3
346.467590E-3
346.845245E-3
346.679878E-3
346.225548E-3
347.578812E-3
346.941376E-3
347.708130E-3
347.684669E-3
346.749687E-3
348.394203E-3
348.066330E-3
348.810768E-3
348.727798E-3
348.513222E-3
349.919128E-3
349.441910E-3
349.934006E-3
350.010681E-3
349.727440E-3
350.876427E-3
350.427818E-3
351.040649E-3
350.923920E-3
350.455856E-3
351.675797E-3
351.355362E-3
351.683235E-3
351.655769E-3
351.472664E-3
352.903175E-3
352.401924E-3
352.974129E-3
353.218460E-3
352.072906E-3
354.144287E-3
353.639603E-3
354.135704E-3
354.081345E-3
352.407646E-3
351.668930E-3
347.895813E-3
344.149590E-3
339.161682E-3
333.729172E-3
330.803490E-3
327.281570E-3
326.018715E-3
325.991249E-3
326.429558E-3
329.184151E-3
330.562592E-3
333.106041E-3
335.283852E-3
336.729813E-3
339.308167E-3
339.516449E-3
340.643692E-3
340.750122E-3
339.797401E-3
340.588188E-3
339.508438E-3
339.555931E-3
339.597130E-3
339.145660E-3
341.044235E-3
340.823364E-3
341.894531E-3
342.264748E-3
340.752983E-3
341.607857E-3
340.266037E-3
340.268898E-3
339.781952E-3
338.627815E-3
339.595413E-3
338.915062E-3
339.358521E-3
340.046310E-3
339.849472E-3
341.859627E-3
341.809845E-3
342.803192E-3
343.607140E-3
342.592049E-3
345.085716E-3
344.891167E-3
345.770645E-3
346.215248E-3
345.953178E-3
347.369957E-3
346.686745E-3
347.171974E-3
347.175407E-3
346.100235E-3
347.392845E-3
346.615791E-3
347.205162E-3
347.247505E-3
346.414948E-3
347.738457E-3
346.646118E-3
346.844101E-3
347.067261E-3
346.283913E-3
347.500992E-3
346.986580E-3
347.358513E-3
347.527885E-3
346.868134E-3
348.072052E-3
347.581673E-3
348.154449E-3
348.359871E-3
347.826004E-3
349.263954E-3
348.671150E-3
349.053955E-3
349.207306E-3
348.613930E-3
349.769783E-3
349.104309E-3
349.738312E-3
349.810982E-3
349.266815E-3
350.475311E-3
350.038147E-3
350.938225E-3
351.018906E-3
350.365448E-3
351.663780E-3
351.339912E-3
352.027130E-3
352.271461E-3
351.484108E-3
352.488327E-3
351.193428E-3
350.593185E-3
347.948456E-3
343.857765E-3
340.628242E-3
334.993172E-3
331.121063E-3
327.671242E-3
325.025368E-3
325.135231E-3
324.775314E-3
326.342583E-3
328.007698E-3
329.521179E-3
332.678604E-3
334.083366E-3
336.064339E-3
337.441063E-3
337.753487E-3
339.242935E-3
338.704491E-3
338.904762E-3
338.575172E-3
337.715149E-3
338.690186E-3
338.319397E-3
339.121628E-3
340.114975E-3
339.895248E-3
340.997314E-3
340.089798E-3
340.007401E-3
339.577675E-3
338.185501E-3
338.143730E-3
337.211037E-3
337.653351E-3
337.599564E-3
337.122345E-3
338.609505E-3
338.335419E-3
339.638901E-3
340.353012E-3
340.446281E-3
342.033577E-3
342.245293E-3
343.216896E-3
343.961906E-3
343.984795E-3
345.016479E-3
344.874001E-3
345.723152E-3
346.061897E-3
344.960976E-3
346.306229E-3
345.828438E-3
346.691322E-3
346.556854E-3
345.983505E-3
346.741104E-3
346.199799E-3
346.715355E-3
