Notes :


2023-11-06 ¿ÀÈÄ 10:29:15
Volts
Ch : LED 2,
401.525116E-3
401.549721E-3
401.513100E-3
401.519394E-3
401.296234E-3
401.305389E-3
401.115417E-3
400.978661E-3
400.908852E-3
400.825882E-3
400.743484E-3
400.673103E-3
400.671387E-3
400.617599E-3
400.543213E-3
400.385857E-3
400.332069E-3
400.276566E-3
400.214767E-3
400.199318E-3
400.094032E-3
400.007629E-3
399.962997E-3
399.795341E-3
399.781036E-3
399.728966E-3
399.680901E-3
399.698067E-3
399.692917E-3
399.558449E-3
399.469757E-3
399.509239E-3
399.421120E-3
399.428558E-3
399.369049E-3
399.405670E-3
399.361038E-3
399.281502E-3
399.256325E-3
399.311256E-3
399.212265E-3
399.194527E-3
399.052620E-3
398.989677E-3
398.916435E-3
398.860931E-3
398.716736E-3
398.708725E-3
398.693275E-3
398.637199E-3
398.523903E-3
398.571968E-3
398.852348E-3
399.367332E-3
399.961281E-3
400.590134E-3
401.426125E-3
402.065849E-3
402.667809E-3
403.080368E-3
403.317261E-3
403.318977E-3
403.143311E-3
403.027153E-3
402.782822E-3
402.536201E-3
402.481842E-3
402.198601E-3
402.070427E-3
401.976013E-3
401.903343E-3
401.943398E-3
402.014351E-3
402.004051E-3
402.036095E-3
402.026939E-3
401.982880E-3
401.953125E-3
401.832962E-3
401.693344E-3
401.509094E-3
401.412964E-3
401.368332E-3
401.272202E-3
401.209259E-3
401.212120E-3
401.288223E-3
401.261330E-3
401.409531E-3
401.369476E-3
401.470757E-3
401.584053E-3
401.514244E-3
401.450729E-3
401.329994E-3
401.236725E-3
401.211548E-3
401.097679E-3
401.003838E-3
400.948334E-3
400.859070E-3
400.752640E-3
400.717735E-3
400.622749E-3
400.572968E-3
400.494576E-3
400.464249E-3
400.347519E-3
400.249100E-3
400.245094E-3
400.148392E-3
400.056267E-3
400.013924E-3
400.004768E-3
399.993896E-3
399.872589E-3
399.805069E-3
399.771309E-3
399.732399E-3
399.621391E-3
399.533844E-3
399.571037E-3
399.511528E-3
399.504662E-3
399.406815E-3
399.440575E-3
399.436569E-3
399.324417E-3
399.242020E-3
399.181366E-3
399.145889E-3
399.150467E-3
399.164200E-3
399.094963E-3
399.080086E-3
398.981094E-3
398.998833E-3
398.845482E-3
398.754501E-3
398.670959E-3
398.549652E-3
398.496437E-3
398.454666E-3
398.469543E-3
398.488426E-3
398.343086E-3
398.629189E-3
399.046326E-3
399.605370E-3
400.279427E-3
401.086807E-3
401.731682E-3
402.388573E-3
402.725029E-3
402.874374E-3
402.933311E-3
402.849197E-3
402.787971E-3
402.513313E-3
402.218056E-3
401.956558E-3
401.762581E-3
401.529121E-3
401.390648E-3
401.362610E-3
401.324272E-3
401.367187E-3
401.441574E-3
401.459312E-3
401.530266E-3
401.513672E-3
401.405525E-3
401.247025E-3
400.998116E-3
400.922012E-3
400.723457E-3
400.742912E-3
400.705719E-3
400.636482E-3
400.740623E-3
400.770950E-3
400.740623E-3
400.776672E-3
400.879097E-3
400.882530E-3
400.914001E-3
400.927734E-3
400.792122E-3
400.802422E-3
400.684547E-3
400.549507E-3
400.440216E-3
400.318909E-3
400.198746E-3
400.157547E-3
400.099182E-3
400.013351E-3
399.885178E-3
399.790192E-3
399.759865E-3
399.713516E-3
399.629974E-3
399.563599E-3
399.551010E-3
399.451447E-3
399.308968E-3
399.470901E-3
399.369049E-3
399.267769E-3
399.175072E-3
399.105263E-3
399.115562E-3
399.059486E-3
398.916435E-3
398.861504E-3
398.760796E-3
398.842621E-3
398.716164E-3
398.728180E-3
398.700142E-3
398.593712E-3
398.586273E-3
398.668671E-3
398.480988E-3
398.438072E-3
398.376274E-3
398.342514E-3
398.224068E-3
398.190308E-3
398.055840E-3
397.973442E-3
397.755432E-3
397.797775E-3
397.705650E-3
397.779465E-3
397.685623E-3
397.641563E-3
397.715378E-3
397.899055E-3
398.418045E-3
399.015999E-3
399.678612E-3
400.452232E-3
401.000977E-3
401.466179E-3
401.811790E-3
401.975441E-3
401.879883E-3
401.768303E-3
401.720810E-3
401.386070E-3
401.093674E-3
400.835037E-3
400.591850E-3
400.384140E-3
400.310898E-3
400.252533E-3
400.332069E-3
400.281715E-3
400.301170E-3
400.322914E-3
400.300026E-3
400.294304E-3
400.137520E-3
399.948120E-3
399.771881E-3
399.739265E-3
399.789047E-3
399.623108E-3
399.672318E-3
399.671745E-3
399.688339E-3
399.757004E-3
399.822807E-3
399.815369E-3
399.813080E-3
399.929810E-3
399.936676E-3
399.917221E-3
399.809647E-3
399.814224E-3
399.689484E-3
399.483490E-3
399.371910E-3
399.347305E-3
399.263191E-3
399.203682E-3
399.092102E-3
398.993111E-3
398.876953E-3
398.795128E-3
398.757935E-3
398.777962E-3
398.699570E-3
398.573112E-3
398.504448E-3
398.398590E-3
398.269272E-3
398.305321E-3
398.188591E-3
398.067856E-3
398.075294E-3
398.081017E-3
398.099327E-3
397.945976E-3
397.960281E-3
397.888184E-3
397.832108E-3
397.807503E-3
397.795486E-3
397.688484E-3
397.713661E-3
397.622681E-3
397.632408E-3
397.598076E-3
397.546577E-3
397.599792E-3
397.523689E-3
397.531700E-3
397.586060E-3
397.437859E-3
397.289085E-3
397.247887E-3
397.140884E-3
397.108269E-3
397.036171E-3
396.900558E-3
396.974945E-3
397.008133E-3
397.000122E-3
397.328568E-3
397.884750E-3
398.565102E-3
399.232864E-3
399.953270E-3
400.551224E-3
401.035881E-3
401.287079E-3
401.465607E-3
401.449013E-3
401.363754E-3
401.117706E-3
400.928307E-3
400.688553E-3
400.470543E-3
400.255394E-3
400.049400E-3
399.949265E-3
399.985886E-3
400.001907E-3
400.046539E-3
400.065994E-3
400.141525E-3
400.019073E-3
400.002480E-3
399.961853E-3
399.909210E-3
399.759293E-3
399.558449E-3
399.463463E-3
399.393082E-3
399.405670E-3
399.485779E-3
399.497223E-3
399.501801E-3
399.393082E-3
399.470901E-3
399.464607E-3
399.485779E-3
399.552155E-3
399.486923E-3
399.535561E-3
399.474335E-3
399.303246E-3
399.239731E-3
399.124718E-3
398.995972E-3
398.966789E-3
398.887253E-3
398.832893E-3
398.801422E-3
398.645210E-3
398.549080E-3
398.479271E-3
398.424911E-3
398.415184E-3
398.297310E-3
398.246956E-3
398.128510E-3
398.048973E-3
398.057556E-3
397.991753E-3
397.940254E-3
397.834396E-3
397.839546E-3
397.854424E-3
397.770309E-3
397.705078E-3
397.673035E-3
397.709656E-3
397.614098E-3
397.590637E-3
397.554016E-3
397.498512E-3
397.508240E-3
397.591209E-3
397.414970E-3
397.429848E-3
397.377205E-3
397.317123E-3
397.364616E-3
397.366905E-3
397.325706E-3
397.227287E-3
396.995544E-3
397.000122E-3
397.072220E-3
397.063065E-3
396.929169E-3
396.967506E-3
396.891403E-3
396.839333E-3
396.763802E-3
396.810722E-3
397.073364E-3
397.473907E-3
398.135376E-3
399.010849E-3
399.595070E-3
400.214767E-3
400.652504E-3
401.079941E-3
401.164627E-3
401.112556E-3
401.027870E-3
400.824165E-3
400.694275E-3
400.421333E-3
400.115204E-3
399.917793E-3
399.825096E-3
399.795341E-3
399.672318E-3
399.626541E-3
399.723816E-3
399.719810E-3
399.791336E-3
399.829674E-3
399.730110E-3
399.682045E-3
399.613380E-3
399.372482E-3
399.342728E-3
399.179649E-3
399.112701E-3
399.144745E-3
399.196815E-3
399.104118E-3
399.162483E-3
399.175072E-3
399.259186E-3
399.311829E-3
399.360466E-3
399.369049E-3
399.333572E-3
399.347878E-3
399.105835E-3
399.171066E-3
399.051476E-3
398.900414E-3
398.784256E-3
398.664093E-3
398.629189E-3
398.577118E-3
398.476410E-3
398.499870E-3
398.410606E-3
398.347092E-3
398.274994E-3
398.238373E-3
398.106194E-3
398.061562E-3
397.960854E-3
397.961426E-3
397.928238E-3
397.791481E-3
397.745705E-3
397.705650E-3
397.643852E-3
397.605515E-3
397.553444E-3
397.511101E-3
397.411537E-3
397.408676E-3
397.302246E-3
397.310257E-3
397.192383E-3
397.214699E-3
397.087097E-3
397.142601E-3
397.073364E-3
397.015572E-3
397.044182E-3
396.954918E-3
396.912003E-3
396.844482E-3
396.740341E-3
396.677399E-3
396.586990E-3
396.549797E-3
396.439934E-3
396.352386E-3
396.467972E-3
396.346664E-3
396.395874E-3
396.627045E-3
397.005844E-3
397.667885E-3
398.248672E-3
398.960495E-3
399.506950E-3
400.005913E-3
400.356102E-3
400.383568E-3
400.388718E-3
400.234795E-3
400.036240E-3
399.873161E-3
399.598503E-3
399.349022E-3
399.083519E-3
398.901558E-3
398.799706E-3
398.669815E-3
398.751068E-3
398.719597E-3
398.836327E-3
398.842049E-3
398.848915E-3
398.752785E-3
398.588562E-3
398.341942E-3
398.202324E-3
398.118782E-3
398.035812E-3
398.050117E-3
398.060417E-3
398.062706E-3
398.145103E-3
398.259544E-3
398.336220E-3
398.375130E-3
398.347092E-3
398.311043E-3
398.200035E-3
398.315048E-3
398.207474E-3
398.268700E-3
398.185730E-3
398.032951E-3
397.932243E-3
397.819519E-3
397.813797E-3
397.821236E-3
397.698784E-3
397.635841E-3
397.588348E-3
397.474480E-3
397.445869E-3
397.324562E-3
397.296524E-3
397.230721E-3
397.095680E-3
397.081375E-3
397.074509E-3
397.059059E-3
396.952629E-3
396.877670E-3
396.857643E-3
396.851921E-3
396.766663E-3
396.808434E-3
396.782684E-3
396.711159E-3
396.700859E-3
396.626472E-3
396.647644E-3
396.625900E-3
396.498871E-3
396.508598E-3
396.482849E-3
396.520042E-3
396.506882E-3
396.534348E-3
396.415329E-3
396.362114E-3
396.389580E-3
396.302032E-3
396.234512E-3
396.158409E-3
396.147537E-3
396.119499E-3
396.157837E-3
395.994759E-3
396.198463E-3
396.505737E-3
397.045898E-3
397.761726E-3
398.435783E-3
399.040604E-3
399.625397E-3
400.043678E-3
400.375557E-3
400.396729E-3
400.371552E-3
400.365257E-3
400.158119E-3
399.872589E-3
399.612236E-3
399.404526E-3
399.236870E-3
399.047470E-3
399.067497E-3
398.981094E-3
399.140739E-3
399.136162E-3
399.134445E-3
399.192238E-3
399.185371E-3
399.151039E-3
399.017715E-3
398.835182E-3
398.726463E-3
398.692131E-3
398.629761E-3
398.639488E-3
398.598289E-3
398.619461E-3
398.594284E-3
398.582840E-3
398.645782E-3
398.653221E-3
398.777962E-3
398.779678E-3
398.736191E-3
398.728752E-3
398.701286E-3
398.692131E-3
398.627472E-3
398.590279E-3
398.471832E-3
398.347092E-3
398.254967E-3
398.262405E-3
398.162842E-3
398.106766E-3
398.015785E-3
398.015213E-3
397.998619E-3
397.768021E-3
397.790909E-3
397.690201E-3
397.675896E-3
397.643852E-3
397.599220E-3
397.535133E-3
397.466469E-3
397.447014E-3
397.370911E-3
397.275925E-3
397.268486E-3
397.211838E-3
397.141457E-3
397.105408E-3
397.074509E-3
397.034454E-3
396.996689E-3
397.023582E-3
396.956062E-3
396.879387E-3
396.921730E-3
396.863937E-3
396.854782E-3
396.881104E-3
396.883965E-3
396.876526E-3
396.803284E-3
396.710014E-3
396.623611E-3
396.651649E-3
396.646500E-3
396.529198E-3
396.520615E-3
396.532059E-3
396.647644E-3
396.843910E-3
397.173500E-3
397.777176E-3
398.402023E-3
398.998260E-3
399.704933E-3
400.234795E-3
400.697708E-3
400.891113E-3
400.912285E-3
400.829887E-3
400.617027E-3
400.445366E-3
400.284004E-3
400.075150E-3
399.967575E-3
399.767876E-3
399.678612E-3
399.607086E-3
399.574471E-3
399.612236E-3
399.671745E-3
399.715233E-3
399.743271E-3
399.626541E-3
399.634552E-3
399.516106E-3
399.338722E-3
399.304962E-3
399.160767E-3
399.105263E-3
399.029732E-3
399.043465E-3
399.034882E-3
399.094963E-3
399.175644E-3
399.181366E-3
399.246597E-3
399.264908E-3
399.298668E-3
399.292946E-3
399.259186E-3
399.177361E-3
399.145889E-3
398.997688E-3
398.947906E-3
398.852921E-3
398.853493E-3
398.819160E-3
398.666954E-3
398.665810E-3
398.630905E-3
398.449516E-3
398.366547E-3
398.265266E-3
398.225784E-3
398.146248E-3
398.100471E-3
398.100471E-3
397.921371E-3
397.995758E-3
397.816086E-3
397.784615E-3
397.776604E-3
397.744560E-3
397.738838E-3
397.593498E-3
397.586632E-3
397.554016E-3
397.522545E-3
397.511673E-3
397.449303E-3
397.425270E-3
397.416687E-3
397.347450E-3
397.389221E-3
397.217560E-3
397.244453E-3
397.311974E-3
397.223854E-3
397.211838E-3
397.164345E-3
397.097969E-3
396.973228E-3
396.883965E-3
396.938896E-3
396.834755E-3
396.843910E-3
396.846199E-3
396.849632E-3
397.199249E-3
397.737122E-3
398.443222E-3
399.029732E-3
399.653435E-3
400.284576E-3
400.647354E-3
400.919151E-3
401.012993E-3
400.932884E-3
400.745773E-3
400.510597E-3
400.285149E-3
399.981880E-3
399.739265E-3
399.528694E-3
399.353027E-3
399.324417E-3
399.291801E-3
399.410248E-3
399.317551E-3
399.381638E-3
399.485779E-3
399.328995E-3
399.199104E-3
398.994827E-3
398.950195E-3
398.813438E-3
398.792839E-3
398.713875E-3
398.712730E-3
398.773956E-3
398.757935E-3
398.796844E-3
398.891258E-3
398.906708E-3
398.951340E-3
398.970795E-3
398.973656E-3
398.959923E-3
398.854637E-3
398.768234E-3
398.670959E-3
398.567390E-3
398.462677E-3
398.416901E-3
398.384285E-3
398.310471E-3
398.174858E-3
398.069000E-3
398.043251E-3
398.025513E-3
397.949409E-3
397.828674E-3
397.780609E-3
397.756577E-3
397.694206E-3
397.682190E-3
397.644997E-3
397.454453E-3
397.352028E-3
397.258186E-3
397.332001E-3
397.239304E-3
397.188377E-3
397.216988E-3
397.079086E-3
397.019577E-3
396.977806E-3
396.977234E-3
396.996117E-3
396.935463E-3
396.885681E-3
396.865654E-3
396.905136E-3
396.895981E-3
396.783257E-3
396.735764E-3
396.608734E-3
396.594429E-3
396.602440E-3
396.508026E-3
396.459389E-3
396.486855E-3
396.439362E-3
396.429062E-3
396.369553E-3
396.450233E-3
396.784401E-3
397.227287E-3
397.982597E-3
398.545074E-3
399.171638E-3
399.741554E-3
400.258255E-3
400.572395E-3
400.690269E-3
400.697136E-3
400.506020E-3
400.225067E-3
400.123215E-3
399.869728E-3
399.692917E-3
399.526405E-3
399.296951E-3
399.252319E-3
399.331284E-3
399.275208E-3
399.402237E-3
399.419975E-3
399.496651E-3
399.488640E-3
399.404526E-3
399.341583E-3
399.133301E-3
398.973083E-3
398.853493E-3
398.968506E-3
398.864365E-3
398.833466E-3
398.858643E-3
398.897552E-3
398.908997E-3
399.005127E-3
398.965645E-3
399.022293E-3
399.113846E-3
399.058342E-3
399.059486E-3
398.987389E-3
398.953056E-3
398.829460E-3
398.707581E-3
398.668098E-3
398.550224E-3
398.478127E-3
398.453522E-3
398.318481E-3
398.297310E-3
398.218346E-3
398.220634E-3
398.111916E-3
397.965431E-3
398.005486E-3
397.855568E-3
397.824097E-3
397.747421E-3
397.668457E-3
397.670746E-3
397.719955E-3
397.533417E-3
397.706223E-3
397.486496E-3
397.350883E-3
397.330284E-3
397.359467E-3
397.229576E-3
397.269058E-3
397.235298E-3
397.213554E-3
397.229576E-3
397.117996E-3
397.161484E-3
397.135735E-3
397.174072E-3
397.411537E-3
397.192955E-3
397.091103E-3
397.002983E-3
396.879959E-3
396.802139E-3
396.771812E-3
396.766090E-3
396.784973E-3
396.684837E-3
396.661377E-3
396.653366E-3
396.629333E-3
396.932030E-3
397.388077E-3
398.008347E-3
398.780251E-3
399.401093E-3
400.019073E-3
400.386429E-3
400.734901E-3
400.895119E-3
400.860214E-3
400.861359E-3
400.687408E-3
400.476265E-3
400.396156E-3
400.180435E-3
399.934387E-3
399.857712E-3
399.813080E-3
399.862862E-3
400.048828E-3
399.980164E-3
400.049973E-3
400.079155E-3
400.016785E-3
400.014496E-3
399.964714E-3
399.743271E-3
399.584198E-3
399.773026E-3
399.604797E-3
399.469185E-3
399.408531E-3
399.476051E-3
399.447441E-3
399.493790E-3
399.524689E-3
399.565887E-3
399.494934E-3
399.581909E-3
399.530983E-3
399.606514E-3
399.592781E-3
399.507523E-3
399.623680E-3
399.408531E-3
399.423981E-3
399.311829E-3
399.264908E-3
399.188232E-3
399.110985E-3
399.050903E-3
398.939896E-3
398.901558E-3
398.838043E-3
398.733902E-3
398.894691E-3
398.745346E-3
398.680115E-3
398.476410E-3
398.460960E-3
398.460960E-3
