Notes :


2023-10-27 ¿ÀÈÄ 9:16:46
Volts
Ch : LED 2,
780.650711E-3
788.662720E-3
793.596268E-3
796.207237E-3
798.406219E-3
797.426605E-3
797.093582E-3
794.230270E-3
788.573456E-3
786.940956E-3
783.477974E-3
781.649208E-3
779.792404E-3
777.346230E-3
777.120781E-3
776.388931E-3
777.414894E-3
777.682114E-3
777.595139E-3
778.887177E-3
777.932167E-3
778.477478E-3
777.075577E-3
775.286865E-3
775.614738E-3
774.887466E-3
776.427841E-3
776.862717E-3
776.695633E-3
778.593063E-3
778.765297E-3
780.317116E-3
780.303383E-3
779.009056E-3
779.287148E-3
777.737045E-3
777.750206E-3
776.501656E-3
773.545647E-3
773.375702E-3
771.266556E-3
770.887756E-3
769.253540E-3
767.213631E-3
766.761017E-3
764.981461E-3
765.316772E-3
763.963509E-3
762.183952E-3
762.319565E-3
760.751724E-3
761.149979E-3
760.629845E-3
759.207916E-3
758.644295E-3
757.879829E-3
758.715248E-3
758.160210E-3
756.677055E-3
756.799507E-3
755.572701E-3
756.089401E-3
755.318642E-3
753.876114E-3
754.399681E-3
752.977180E-3
753.493881E-3
752.980042E-3
750.965881E-3
751.738358E-3
750.537300E-3
750.517845E-3
750.183678E-3
748.380089E-3
749.717903E-3
747.800446E-3
747.698021E-3
746.729279E-3
744.943428E-3
746.705246E-3
744.781494E-3
744.486809E-3
743.915176E-3
741.909027E-3
743.248558E-3
740.923691E-3
740.939713E-3
740.271378E-3
738.980484E-3
741.133118E-3
740.966034E-3
744.868469E-3
750.218582E-3
754.523849E-3
764.094543E-3
769.389153E-3
775.198746E-3
778.683472E-3
779.560089E-3
781.650925E-3
779.063988E-3
777.080154E-3
774.303818E-3
769.759369E-3
768.510246E-3
764.678764E-3
762.932968E-3
761.262131E-3
758.647156E-3
759.840775E-3
758.643723E-3
759.071159E-3
759.302330E-3
758.583069E-3
759.986115E-3
758.005714E-3
757.748222E-3
757.432938E-3
756.476212E-3
758.434868E-3
757.380295E-3
758.330154E-3
759.512329E-3
759.736061E-3
762.805939E-3
762.275505E-3
763.168144E-3
763.401604E-3
762.133026E-3
763.156128E-3
760.998917E-3
760.216141E-3
759.270859E-3
757.172012E-3
757.670403E-3
755.235672E-3
754.714394E-3
753.907585E-3
752.168083E-3
753.073311E-3
750.984192E-3
750.902367E-3
750.590515E-3
749.480438E-3
751.041985E-3
749.175453E-3
749.289322E-3
749.570274E-3
748.152351E-3
750.401115E-3
748.943710E-3
749.224663E-3
749.123383E-3
748.319435E-3
749.761391E-3
748.123169E-3
748.558044E-3
748.465919E-3
747.494316E-3
748.993492E-3
747.254562E-3
747.422218E-3
747.345543E-3
746.430016E-3
747.946358E-3
746.162224E-3
746.466637E-3
746.557617E-3
745.729637E-3
747.068596E-3
745.103073E-3
745.249557E-3
744.925117E-3
743.726349E-3
744.618988E-3
742.703819E-3
742.510414E-3
741.996002E-3
740.607834E-3
742.039490E-3
740.546036E-3
741.532516E-3
744.413567E-3
748.619843E-3
756.502533E-3
762.525558E-3
770.032310E-3
776.564026E-3
780.644989E-3
784.836388E-3
784.555435E-3
784.600067E-3
783.146095E-3
779.852486E-3
778.177643E-3
773.834610E-3
771.585846E-3
769.442940E-3
766.933250E-3
767.306900E-3
765.344238E-3
765.043259E-3
765.334511E-3
765.210915E-3
767.120361E-3
766.169930E-3
766.572189E-3
766.034889E-3
764.253044E-3
764.516258E-3
762.296104E-3
762.197113E-3
762.211990E-3
761.927032E-3
763.828468E-3
762.886620E-3
764.052773E-3
764.820099E-3
764.699936E-3
766.497803E-3
764.997482E-3
764.933968E-3
764.384651E-3
762.709808E-3
762.999344E-3
760.787201E-3
759.439087E-3
758.695221E-3
756.893921E-3
757.604027E-3
755.181885E-3
754.690361E-3
754.280663E-3
753.345680E-3
754.289246E-3
752.281952E-3
752.189255E-3
752.337456E-3
750.757599E-3
752.374649E-3
751.131248E-3
751.519203E-3
751.498604E-3
750.698090E-3
752.088547E-3
750.735283E-3
750.848579E-3
751.211357E-3
750.350761E-3
751.667404E-3
750.091553E-3
750.020027E-3
750.230598E-3
749.000359E-3
750.655174E-3
749.442673E-3
749.307632E-3
749.525642E-3
748.523712E-3
749.790001E-3
748.362923E-3
748.045921E-3
747.898865E-3
747.016525E-3
748.048210E-3
746.245193E-3
745.804596E-3
745.662689E-3
744.141197E-3
745.106506E-3
743.188477E-3
742.769623E-3
743.092918E-3
742.615700E-3
745.491600E-3
748.015594E-3
753.544807E-3
760.495949E-3
766.692352E-3
774.758148E-3
779.460526E-3
783.138657E-3
785.684967E-3
785.375404E-3
785.709572E-3
782.624817E-3
780.045319E-3
777.674103E-3
773.894691E-3
772.777748E-3
769.911575E-3
768.387794E-3
767.887115E-3
766.221428E-3
768.109131E-3
767.169571E-3
767.749214E-3
768.230438E-3
765.609169E-3
767.942619E-3
766.165924E-3
765.169716E-3
764.536858E-3
762.433434E-3
764.100838E-3
763.673973E-3
764.405823E-3
765.803719E-3
764.924812E-3
767.427063E-3
767.393303E-3
767.666817E-3
767.943764E-3
765.237808E-3
766.434288E-3
765.113640E-3
764.112854E-3
763.387871E-3
759.722900E-3
761.437798E-3
760.026169E-3
758.956146E-3
758.730698E-3
756.432152E-3
757.681847E-3
756.535149E-3
755.944061E-3
755.890274E-3
753.743362E-3
755.438805E-3
754.718399E-3
754.725838E-3
755.060005E-3
753.148842E-3
754.704094E-3
753.996277E-3
754.187393E-3
754.620552E-3
752.779198E-3
754.262352E-3
753.702164E-3
753.492737E-3
753.813744E-3
752.247620E-3
753.785133E-3
753.524208E-3
752.935410E-3
753.256416E-3
751.593590E-3
752.947998E-3
752.311707E-3
751.424789E-3
751.593590E-3
749.677277E-3
750.732994E-3
749.827194E-3
749.060440E-3
748.787498E-3
746.666336E-3
747.878838E-3
747.107506E-3
746.618271E-3
747.190475E-3
747.176170E-3
751.978111E-3
756.928825E-3
762.763023E-3
769.874382E-3
774.337006E-3
781.240082E-3
783.943748E-3
784.760857E-3
785.209465E-3
782.328987E-3
781.989098E-3
778.704071E-3
775.059700E-3
772.296524E-3
768.556595E-3
768.733978E-3
767.056847E-3
765.541649E-3
765.956497E-3
764.559746E-3
766.565895E-3
766.431999E-3
765.517616E-3
765.833473E-3
763.545227E-3
764.032173E-3
762.863159E-3
761.592865E-3
762.246323E-3
762.047768E-3
764.407539E-3
764.311981E-3
764.500809E-3
765.485001E-3
765.245247E-3
767.112350E-3
766.425705E-3
764.975739E-3
764.691353E-3
763.055420E-3
763.409042E-3
761.413765E-3
759.382439E-3
758.691788E-3
756.911659E-3
757.632637E-3
756.295395E-3
754.833412E-3
754.563904E-3
753.481293E-3
754.449463E-3
753.619766E-3
752.483940E-3
752.333450E-3
751.834488E-3
752.926826E-3
751.843643E-3
751.827621E-3
752.498817E-3
752.177238E-3
752.832413E-3
752.070236E-3
751.219368E-3
751.873970E-3
751.218224E-3
752.669907E-3
752.274513E-3
751.359558E-3
752.225304E-3
751.447105E-3
752.742577E-3
752.046776E-3
750.800514E-3
751.374435E-3
750.829697E-3
751.493454E-3
750.234604E-3
748.825264E-3
749.202347E-3
747.564125E-3
748.320580E-3
747.334099E-3
745.873260E-3
746.269798E-3
746.249199E-3
748.340034E-3
750.519562E-3
754.325294E-3
761.341095E-3
767.733765E-3
775.868225E-3
781.471252E-3
785.056114E-3
788.223267E-3
788.354874E-3
788.718224E-3
786.484909E-3
783.165550E-3
781.520462E-3
778.120995E-3
776.822662E-3
774.426842E-3
772.130585E-3
771.803856E-3
770.998192E-3
772.218704E-3
771.850204E-3
771.847343E-3
773.115921E-3
772.696495E-3
773.260117E-3
771.700287E-3
769.275856E-3
768.419838E-3
766.551590E-3
767.188454E-3
766.650581E-3
767.083168E-3
767.914581E-3
766.971016E-3
768.972588E-3
769.058418E-3
767.334938E-3
767.885399E-3
767.198753E-3
767.935753E-3
766.615105E-3
764.591217E-3
763.867378E-3
762.517548E-3
762.369919E-3
761.227798E-3
759.219360E-3
759.226227E-3
757.856369E-3
758.647156E-3
757.360840E-3
756.231880E-3
756.770325E-3
755.493736E-3
756.338882E-3
755.419350E-3
754.165649E-3
754.471779E-3
753.468132E-3
754.436302E-3
753.849792E-3
752.438736E-3
753.786850E-3
753.132820E-3
754.479218E-3
754.022026E-3
752.182961E-3
753.250694E-3
752.475929E-3
753.476143E-3
752.938271E-3
752.023315E-3
753.040123E-3
752.251625E-3
753.104210E-3
752.491951E-3
751.075172E-3
750.837135E-3
749.624062E-3
749.989128E-3
749.182892E-3
747.488022E-3
748.204422E-3
747.383308E-3
747.940063E-3
747.359276E-3
746.492958E-3
748.499107E-3
751.037407E-3
757.243538E-3
763.706017E-3
769.589996E-3
776.819801E-3
781.386566E-3
786.268616E-3
788.110542E-3
787.174988E-3
787.350655E-3
784.698486E-3
783.315468E-3
780.931091E-3
777.507019E-3
776.374054E-3
774.197388E-3
774.743271E-3
773.697281E-3
772.497940E-3
773.971367E-3
773.717880E-3
775.078011E-3
775.758362E-3
774.969864E-3
775.750923E-3
773.436928E-3
773.110771E-3
771.755791E-3
769.436073E-3
770.106697E-3
769.037247E-3
769.872665E-3
770.356178E-3
769.618607E-3
772.005844E-3
771.067429E-3
771.811867E-3
771.532631E-3
769.864082E-3
771.149826E-3
768.815804E-3
768.580627E-3
767.575836E-3
765.531921E-3
766.448593E-3
763.823891E-3
763.587570E-3
762.880325E-3
761.304474E-3
762.373924E-3
760.157204E-3
760.200119E-3
759.622765E-3
758.186531E-3
759.854507E-3
758.197403E-3
758.492088E-3
758.215141E-3
756.968880E-3
758.428574E-3
757.014084E-3
757.315063E-3
757.102203E-3
755.855370E-3
757.361984E-3
755.886841E-3
756.036186E-3
756.179810E-3
754.920387E-3
756.818390E-3
755.430222E-3
755.788422E-3
755.814171E-3
754.585075E-3
756.073952E-3
754.339027E-3
754.261208E-3
753.818321E-3
752.445030E-3
753.745651E-3
751.945496E-3
751.626205E-3
750.971603E-3
749.320793E-3
750.603676E-3
748.797226E-3
748.995209E-3
749.077034E-3
748.645020E-3
753.790283E-3
757.177162E-3
764.022446E-3
771.273422E-3
777.018929E-3
784.360886E-3
786.678314E-3
789.051819E-3
789.381409E-3
787.089157E-3
787.205315E-3
783.139229E-3
780.700493E-3
778.333282E-3
775.312042E-3
775.484848E-3
772.692490E-3
772.599792E-3
772.826385E-3
772.012138E-3
774.158478E-3
773.176575E-3
773.809433E-3
773.857498E-3
772.322273E-3
772.316551E-3
769.155693E-3
768.321991E-3
767.899132E-3
767.130089E-3
769.192886E-3
768.426132E-3
769.490433E-3
770.464325E-3
770.353317E-3
772.139740E-3
770.891190E-3
770.782471E-3
770.308113E-3
768.651581E-3
769.183159E-3
766.738701E-3
766.060066E-3
765.071869E-3
762.633705E-3
763.868523E-3
761.667252E-3
761.177444E-3
760.859871E-3
759.495163E-3
760.659599E-3
759.075165E-3
759.098053E-3
758.739281E-3
757.973099E-3
759.324074E-3
757.955360E-3
757.955933E-3
757.951927E-3
757.228661E-3
758.492088E-3
756.949425E-3
757.481003E-3
757.767677E-3
757.118225E-3
758.490944E-3
756.914520E-3
757.195473E-3
757.378006E-3
755.881119E-3
757.720184E-3
756.307411E-3
756.099129E-3
756.126022E-3
755.363846E-3
756.559753E-3
754.762459E-3
754.273224E-3
753.965950E-3
752.598953E-3
753.277016E-3
751.201057E-3
751.413345E-3
751.540375E-3
750.875473E-3
753.510475E-3
755.113792E-3
760.302544E-3
766.929245E-3
772.765160E-3
781.022072E-3
785.175133E-3
789.450073E-3
792.043877E-3
791.572380E-3
792.026138E-3
788.781738E-3
786.638260E-3
784.196091E-3
780.996895E-3
780.397224E-3
777.488708E-3
776.968575E-3
776.711082E-3
776.046181E-3
777.743340E-3
776.857567E-3
777.858925E-3
778.360176E-3
777.562523E-3
778.769302E-3
776.179504E-3
775.063133E-3
773.692131E-3
771.810722E-3
772.507668E-3
771.022224E-3
771.701431E-3
772.216988E-3
772.191238E-3
774.373627E-3
773.581696E-3
773.780251E-3
774.178505E-3
772.945976E-3
773.763657E-3
771.570396E-3
770.575905E-3
769.620323E-3
767.514038E-3
767.727470E-3
765.586853E-3
764.684486E-3
763.980103E-3
762.773323E-3
763.932037E-3
762.329292E-3
761.705017E-3
761.709595E-3
760.521126E-3
761.745644E-3
760.564041E-3
760.601807E-3
760.940552E-3
760.057068E-3
761.340523E-3
759.991837E-3
759.923744E-3
760.208702E-3
759.255981E-3
760.275078E-3
759.008217E-3
758.610535E-3
758.692360E-3
757.180023E-3
758.609962E-3
757.613754E-3
757.348824E-3
757.556534E-3
755.983543E-3
757.708168E-3
756.390381E-3
756.099701E-3
755.862236E-3
754.896927E-3
755.669975E-3
754.066658E-3
753.511047E-3
753.381157E-3
751.887703E-3
752.792358E-3
751.277733E-3
750.845146E-3
751.425934E-3
751.178169E-3
755.399323E-3
758.792496E-3
764.980888E-3
772.566032E-3
777.615738E-3
786.068916E-3
789.723587E-3
792.613220E-3
793.883514E-3
791.091728E-3
791.971779E-3
789.272690E-3
786.831665E-3
784.731674E-3
781.067276E-3
781.313324E-3
779.299164E-3
778.500938E-3
778.865433E-3
777.519035E-3
779.749489E-3
779.503441E-3
780.069923E-3
780.651283E-3
778.772736E-3
779.358101E-3
777.215767E-3
775.693130E-3
774.836540E-3
772.188950E-3
773.688698E-3
773.020935E-3
773.307037E-3
774.365044E-3
772.722816E-3
775.063133E-3
774.537277E-3
774.246025E-3
774.746704E-3
772.666168E-3
773.923874E-3
772.607803E-3
771.536064E-3
770.938110E-3
768.425560E-3
769.107628E-3
767.834473E-3
766.767311E-3
766.716957E-3
764.703941E-3
765.791130E-3
764.975166E-3
764.552879E-3
764.097977E-3
762.535858E-3
764.083672E-3
763.461113E-3
762.998199E-3
763.499451E-3
761.865807E-3
763.471413E-3
763.132095E-3
762.218285E-3
762.733269E-3
761.224365E-3
762.598228E-3
762.416840E-3
761.917305E-3
762.179947E-3
760.434151E-3
761.855507E-3
761.086464E-3
760.412979E-3
760.751724E-3
758.984756E-3
760.476494E-3
759.749794E-3
758.908081E-3
758.872604E-3
756.806946E-3
758.109856E-3
757.283592E-3
756.109428E-3
756.127739E-3
754.020309E-3
755.158997E-3
754.048920E-3
752.721977E-3
753.077888E-3
751.403046E-3
753.579140E-3
754.095840E-3
755.949211E-3
761.608315E-3
766.611671E-3
775.718880E-3
782.394218E-3
787.331772E-3
792.153740E-3
792.790604E-3
795.152664E-3
793.618584E-3
790.734100E-3
788.860703E-3
784.771156E-3
783.896255E-3
781.265831E-3
778.423691E-3
778.019714E-3
776.341438E-3
777.858353E-3
777.468681E-3
777.030373E-3
778.421402E-3
778.115845E-3
779.318619E-3
777.544785E-3
775.570107E-3
774.950981E-3
772.842979E-3
773.526192E-3
772.259903E-3
771.557808E-3
772.880745E-3
772.919083E-3
774.906349E-3
774.572182E-3
774.239159E-3
775.102043E-3
774.096107E-3
774.912071E-3
773.295021E-3
771.505165E-3
771.176720E-3
769.375992E-3
769.559097E-3
767.908287E-3
766.436005E-3
766.200256E-3
764.760017E-3
765.484428E-3
764.501381E-3
762.936401E-3
763.271141E-3
762.325859E-3
763.350677E-3
762.688065E-3
761.794853E-3
762.151909E-3
761.236382E-3
762.365913E-3
761.600876E-3
760.637283E-3
761.230087E-3
760.446739E-3
761.526489E-3
760.802650E-3
759.626770E-3
760.126877E-3
759.512329E-3
760.663605E-3
760.053635E-3
759.152412E-3
760.033035E-3
759.170723E-3
760.405540E-3
760.043907E-3
759.241104E-3
759.729195E-3
758.750725E-3
759.682846E-3
758.806229E-3
757.479858E-3
757.531929E-3
756.217003E-3
757.085037E-3
755.805016E-3
754.442596E-3
754.742432E-3
753.811455E-3
755.546379E-3
756.766319E-3
759.825897E-3
766.240311E-3
772.602654E-3
781.071281E-3
787.368393E-3
792.054749E-3
795.997810E-3
797.155952E-3
798.522377E-3
796.880722E-3
793.857193E-3
792.138290E-3
788.630676E-3
787.394142E-3
785.001183E-3
782.760429E-3
782.639122E-3
781.456375E-3
782.313538E-3
782.619667E-3
782.312393E-3
783.711433E-3
783.336639E-3
784.256744E-3
783.107758E-3
780.608940E-3
779.420471E-3
777.041817E-3
776.774597E-3
775.660515E-3
774.216270E-3
775.014496E-3
774.664879E-3
776.306534E-3
776.153183E-3
775.226784E-3
776.110840E-3
775.032234E-3
775.548935E-3
774.639130E-3
