Notes :


2023-11-06 ¿ÀÈÄ 10:35:56
Volts
Ch : LED 2,
396.955490E-3
396.896553E-3
397.027588E-3
396.883965E-3
396.881104E-3
396.795845E-3
396.774101E-3
396.701431E-3
396.608162E-3
396.508026E-3
396.482849E-3
396.627617E-3
396.362686E-3
396.248245E-3
396.088028E-3
396.059418E-3
395.958138E-3
395.999908E-3
395.981026E-3
396.274567E-3
396.834755E-3
397.387505E-3
398.247528E-3
399.043465E-3
399.826241E-3
400.429916E-3
400.999260E-3
401.255035E-3
401.393509E-3
401.133156E-3
401.039886E-3
400.848198E-3
400.642776E-3
400.368118E-3
400.020790E-3
399.829102E-3
399.560738E-3
399.438286E-3
399.509811E-3
399.398804E-3
399.405670E-3
399.445152E-3
399.449730E-3
399.402809E-3
399.249458E-3
399.246597E-3
398.953056E-3
398.849487E-3
398.751640E-3
398.732758E-3
398.782539E-3
398.721886E-3
398.836327E-3
398.923302E-3
398.804855E-3
398.953056E-3
399.024010E-3
399.023437E-3
399.092674E-3
398.973083E-3
398.984528E-3
398.884964E-3
398.806000E-3
398.665237E-3
398.616600E-3
398.451805E-3
398.264122E-3
398.242950E-3
398.196030E-3
398.031235E-3
397.849846E-3
397.804642E-3
397.702217E-3
397.777176E-3
397.604370E-3
397.548866E-3
397.482491E-3
397.443581E-3
397.503662E-3
397.493935E-3
397.404099E-3
397.377777E-3
397.315979E-3
397.203827E-3
397.140884E-3
397.129440E-3
397.081375E-3
397.063637E-3
396.979523E-3
397.062492E-3
397.027588E-3
397.060776E-3
397.003555E-3
397.043037E-3
397.056198E-3
397.018433E-3
397.002411E-3
396.888542E-3
396.857643E-3
396.873093E-3
396.854210E-3
396.813011E-3
396.714592E-3
396.620178E-3
396.485710E-3
396.429634E-3
396.322060E-3
396.313477E-3
396.275139E-3
396.649361E-3
396.427917E-3
396.534348E-3
397.036171E-3
397.638702E-3
398.451233E-3
399.261475E-3
400.030518E-3
400.712585E-3
401.259613E-3
401.508522E-3
401.550293E-3
401.578331E-3
401.295662E-3
401.103973E-3
400.745773E-3
400.487709E-3
400.168991E-3
399.859428E-3
399.697495E-3
399.488640E-3
399.461746E-3
399.418259E-3
399.440575E-3
399.544716E-3
399.802780E-3
399.583054E-3
399.465179E-3
399.292946E-3
399.207687E-3
399.138451E-3
399.077797E-3
399.270630E-3
399.274635E-3
399.287224E-3
399.430275E-3
399.429131E-3
399.576187E-3
399.557877E-3
399.658585E-3
399.624825E-3
399.572754E-3
399.650574E-3
399.595070E-3
399.572754E-3
399.409676E-3
399.195671E-3
399.248886E-3
399.065781E-3
399.011993E-3
398.857498E-3
398.823166E-3
398.828316E-3
398.712158E-3
398.563385E-3
398.531342E-3
398.449516E-3
398.448372E-3
398.443222E-3
398.538780E-3
398.355675E-3
398.220062E-3
398.195457E-3
398.149109E-3
398.006630E-3
398.041534E-3
398.000336E-3
398.003197E-3
397.990036E-3
398.012352E-3
397.933960E-3
398.003197E-3
397.983742E-3
398.002625E-3
397.937965E-3
397.963142E-3
397.854424E-3
398.075294E-3
397.907639E-3
397.887039E-3
397.892189E-3
397.797775E-3
397.754860E-3
397.785187E-3
397.726822E-3
397.535133E-3
397.404671E-3
397.409248E-3
397.328568E-3
397.322845E-3
397.273064E-3
397.216988E-3
397.207832E-3
397.439575E-3
397.707939E-3
398.171425E-3
398.892403E-3
399.609947E-3
400.401878E-3
401.034737E-3
401.545715E-3
401.763725E-3
401.740837E-3
401.709938E-3
401.571465E-3
401.314545E-3
400.974083E-3
400.600433E-3
400.196457E-3
400.004768E-3
399.815369E-3
399.534416E-3
399.508667E-3
399.380493E-3
399.382210E-3
399.347878E-3
399.357605E-3
399.371910E-3
399.224854E-3
399.113846E-3
398.948479E-3
398.795700E-3
398.781967E-3
398.801994E-3
398.955345E-3
399.089813E-3
399.135590E-3
399.226570E-3
399.213409E-3
398.995972E-3
399.244308E-3
399.255753E-3
399.310112E-3
399.182510E-3
399.096107E-3
398.896980E-3
398.683548E-3
398.604584E-3
398.270416E-3
398.395157E-3
398.323059E-3
398.190308E-3
398.073006E-3
398.042107E-3
397.996330E-3
397.910500E-3
397.746849E-3
398.021507E-3
397.823524E-3
397.707939E-3
397.722244E-3
397.766876E-3
397.806931E-3
397.658730E-3
397.730255E-3
397.758865E-3
397.635841E-3
397.732544E-3
397.667885E-3
397.666168E-3
397.683907E-3
397.652435E-3
397.735405E-3
397.666168E-3
397.746277E-3
397.776604E-3
397.675896E-3
397.824097E-3
397.721672E-3
397.774315E-3
397.752571E-3
397.673607E-3
397.673035E-3
397.644997E-3
397.594070E-3
397.469902E-3
397.448158E-3
397.350311E-3
397.288513E-3
397.196388E-3
397.248459E-3
397.376633E-3
397.313690E-3
397.360039E-3
397.864723E-3
398.549652E-3
399.279785E-3
400.174141E-3
400.876808E-3
401.549149E-3
401.784325E-3
402.071571E-3
402.183723E-3
402.049828E-3
401.965141E-3
401.745987E-3
401.403809E-3
401.157188E-3
400.784111E-3
400.586700E-3
400.362968E-3
400.197029E-3
400.194740E-3
400.086021E-3
400.108337E-3
400.130653E-3
400.106049E-3
400.005341E-3
399.798775E-3
399.654007E-3
399.532127E-3
399.320984E-3
399.236870E-3
399.210548E-3
399.175072E-3
399.258614E-3
399.333572E-3
399.625397E-3
399.507523E-3
399.536705E-3
399.601364E-3
399.584770E-3
399.628830E-3
399.605942E-3
399.603081E-3
399.497223E-3
399.152184E-3
399.164772E-3
398.981094E-3
398.915863E-3
398.977661E-3
398.789406E-3
398.775101E-3
398.579979E-3
398.517609E-3
398.515892E-3
398.412895E-3
398.412895E-3
398.364830E-3
398.416328E-3
398.430634E-3
398.428917E-3
398.438072E-3
398.392868E-3
398.312759E-3
398.390007E-3
398.305321E-3
398.334503E-3
398.332214E-3
398.413467E-3
398.426056E-3
398.141670E-3
398.285294E-3
398.292732E-3
398.387718E-3
398.438644E-3
398.401451E-3
398.458099E-3
398.340225E-3
398.322487E-3
398.482132E-3
398.347664E-3
398.370552E-3
398.274994E-3
398.141670E-3
398.062134E-3
397.901917E-3
397.861862E-3
397.853279E-3
397.929955E-3
397.811508E-3
397.618103E-3
397.624397E-3
397.675896E-3
397.917366E-3
398.357391E-3
398.971939E-3
399.672318E-3
400.499153E-3
401.210976E-3
401.938248E-3
402.434349E-3
402.831459E-3
402.871513E-3
402.807999E-3
402.642059E-3
402.418327E-3
402.311325E-3
401.968002E-3
401.645851E-3
401.422691E-3
401.211548E-3
401.231003E-3
401.085663E-3
401.074219E-3
401.267052E-3
401.058197E-3
401.071358E-3
401.029015E-3
400.996399E-3
400.883675E-3
400.630188E-3
400.504303E-3
400.443649E-3
400.327492E-3
400.464249E-3
400.344658E-3
400.460815E-3
400.560379E-3
400.550652E-3
400.694847E-3
400.691414E-3
400.792122E-3
400.700569E-3
400.580978E-3
400.573540E-3
400.456810E-3
400.436211E-3
400.340080E-3
400.120354E-3
400.053978E-3
399.976730E-3
399.888611E-3
399.718666E-3
399.579620E-3
399.634552E-3
399.480057E-3
399.450874E-3
399.383354E-3
399.280930E-3
399.082947E-3
399.029160E-3
399.072075E-3
399.075508E-3
399.045753E-3
399.078369E-3
399.014282E-3
398.912430E-3
398.889542E-3
398.823166E-3
398.817444E-3
398.846626E-3
398.797417E-3
398.824310E-3
398.775101E-3
398.764229E-3
398.614883E-3
398.595428E-3
398.656082E-3
398.620605E-3
398.553085E-3
398.506165E-3
398.588562E-3
398.489571E-3
398.496437E-3
398.345375E-3
398.185730E-3
398.263550E-3
398.111343E-3
398.040390E-3
397.946548E-3
397.875595E-3
397.935677E-3
397.867584E-3
397.798347E-3
397.929955E-3
398.171425E-3
398.771667E-3
399.520111E-3
400.252533E-3
401.012421E-3
401.718521E-3
402.289581E-3
402.591133E-3
402.692413E-3
402.812576E-3
402.671814E-3
402.396011E-3
402.086449E-3
401.753998E-3
401.563454E-3
401.233864E-3
401.053047E-3
400.949478E-3
400.847054E-3
400.911713E-3
400.971794E-3
400.958633E-3
400.968361E-3
400.920868E-3
400.847054E-3
400.644493E-3
400.460815E-3
400.292587E-3
400.225639E-3
400.211906E-3
400.219345E-3
400.242233E-3
400.383568E-3
400.374985E-3
400.564384E-3
400.566101E-3
400.628471E-3
400.569534E-3
400.490570E-3
400.461960E-3
400.363541E-3
400.221062E-3
400.061989E-3
399.957848E-3
399.793625E-3
399.583054E-3
399.503517E-3
399.510384E-3
399.264908E-3
399.189377E-3
399.067497E-3
398.899841E-3
398.717308E-3
398.664665E-3
398.745918E-3
398.617172E-3
398.569679E-3
398.467255E-3
398.379707E-3
398.323059E-3
398.238945E-3
398.317337E-3
398.317909E-3
398.091316E-3
398.150253E-3
398.100471E-3
397.972870E-3
397.931671E-3
397.872162E-3
397.928238E-3
397.518539E-3
397.686195E-3
397.641563E-3
397.604942E-3
397.577477E-3
397.476196E-3
397.379494E-3
397.378349E-3
397.311401E-3
397.185516E-3
397.104836E-3
396.954918E-3
396.852493E-3
396.765518E-3
396.724319E-3
396.562958E-3
396.439362E-3
396.427917E-3
396.407318E-3
396.502876E-3
396.731758E-3
397.238159E-3
397.943687E-3
398.654366E-3
399.633980E-3
400.302315E-3
400.955200E-3
401.527977E-3
401.723099E-3
401.831818E-3
401.700211E-3
401.449013E-3
401.266479E-3
400.888252E-3
400.920296E-3
400.683975E-3
400.503159E-3
400.376701E-3
400.274277E-3
400.282860E-3
400.279427E-3
400.313187E-3
400.424194E-3
400.189590E-3
400.247955E-3
400.131226E-3
399.898911E-3
399.720955E-3
399.519539E-3
399.550438E-3
399.441719E-3
399.406242E-3
399.462891E-3
399.476051E-3
399.497223E-3
399.550438E-3
399.515533E-3
399.611664E-3
399.531555E-3
399.578476E-3
399.519539E-3
399.641418E-3
399.456024E-3
399.102402E-3
399.030876E-3
398.774529E-3
398.628044E-3
398.656082E-3
398.542213E-3
398.616028E-3
398.565674E-3
398.324203E-3
398.281288E-3
398.141670E-3
398.157692E-3
397.988892E-3
397.990608E-3
398.023796E-3
397.904778E-3
398.002052E-3
397.979164E-3
397.823524E-3
397.792053E-3
397.650719E-3
397.539139E-3
397.493362E-3
397.484207E-3
397.566032E-3
397.421265E-3
397.429848E-3
397.364616E-3
397.269630E-3
397.349739E-3
397.277069E-3
397.365189E-3
397.328568E-3
397.249603E-3
397.227287E-3
397.236443E-3
397.270203E-3
397.301674E-3
397.204399E-3
397.159195E-3
396.988678E-3
396.852493E-3
396.854210E-3
396.772385E-3
396.684837E-3
396.521187E-3
396.597290E-3
396.549225E-3
396.548653E-3
396.684837E-3
396.902847E-3
397.344589E-3
397.929955E-3
398.660660E-3
399.542999E-3
400.201607E-3
400.888252E-3
401.392365E-3
401.585770E-3
401.651573E-3
401.550293E-3
401.420975E-3
401.196098E-3
400.866508E-3
400.552368E-3
400.276566E-3
400.133514E-3
400.074005E-3
400.048256E-3
399.971008E-3
399.874878E-3
400.016785E-3
400.050545E-3
400.049973E-3
400.082016E-3
399.894333E-3
399.750137E-3
399.666595E-3
399.426270E-3
399.446869E-3
399.351883E-3
399.415398E-3
399.458885E-3
399.505234E-3
399.674606E-3
399.667740E-3
399.799347E-3
399.889183E-3
399.904060E-3
399.922371E-3
399.724388E-3
399.884033E-3
399.757004E-3
399.736977E-3
399.702072E-3
399.536133E-3
399.373055E-3
399.247742E-3
399.132156E-3
399.156189E-3
399.078941E-3
398.999977E-3
398.855209E-3
398.704720E-3
398.982811E-3
398.786545E-3
398.672676E-3
398.630333E-3
398.547935E-3
398.545647E-3
398.344231E-3
398.436356E-3
398.355675E-3
398.200607E-3
398.223495E-3
398.210907E-3
398.130798E-3
398.083305E-3
397.986031E-3
398.029518E-3
398.032951E-3
397.949409E-3
397.908783E-3
397.937965E-3
397.901917E-3
397.827530E-3
397.719383E-3
397.754288E-3
397.629547E-3
397.777176E-3
397.608948E-3
397.580338E-3
397.712517E-3
397.489357E-3
397.488785E-3
397.352600E-3
397.316551E-3
397.338295E-3
397.156906E-3
397.202110E-3
397.026443E-3
397.087669E-3
397.125435E-3
397.091675E-3
397.170639E-3
397.299385E-3
397.659302E-3
398.148537E-3
398.930168E-3
399.834824E-3
400.683975E-3
401.438141E-3
402.109337E-3
402.452087E-3
402.616882E-3
402.566528E-3
402.560806E-3
402.395439E-3
402.168846E-3
402.022362E-3
401.747131E-3
401.535416E-3
401.469612E-3
401.284790E-3
401.286507E-3
401.215553E-3
401.201248E-3
401.295662E-3
401.386070E-3
401.340866E-3
401.302528E-3
401.179504E-3
401.148605E-3
400.751495E-3
400.841904E-3
400.736618E-3
400.727463E-3
400.829887E-3
400.753212E-3
400.829315E-3
400.795555E-3
400.742340E-3
400.943756E-3
400.941467E-3
401.027298E-3
400.853920E-3
400.776672E-3
400.662231E-3
400.357819E-3
400.275993E-3
399.964142E-3
399.885178E-3
399.795341E-3
399.674034E-3
399.577332E-3
399.419975E-3
399.318695E-3
399.166489E-3
399.024582E-3
399.112701E-3
398.967361E-3
398.900414E-3
398.818588E-3
398.718452E-3
398.721886E-3
398.814011E-3
398.785400E-3
398.952484E-3
398.870087E-3
398.945045E-3
398.821449E-3
398.777962E-3
398.716164E-3
398.682404E-3
398.756790E-3
398.766518E-3
398.850060E-3
398.779106E-3
398.630905E-3
398.448372E-3
398.288155E-3
398.168564E-3
398.209190E-3
398.145103E-3
398.143387E-3
397.961998E-3
397.795486E-3
397.796631E-3
397.484207E-3
397.329712E-3
397.184944E-3
397.100830E-3
397.116280E-3
397.036171E-3
396.980095E-3
396.800423E-3
396.706581E-3
396.803284E-3
396.858788E-3
397.278214E-3
397.881317E-3
398.656654E-3
399.464035E-3
400.062561E-3
400.664520E-3
400.953484E-3
401.116562E-3
401.101685E-3
400.933456E-3
400.818443E-3
400.529480E-3
400.205040E-3
399.746704E-3
399.274063E-3
398.961639E-3
398.733902E-3
398.587990E-3
398.527336E-3
398.399734E-3
398.457527E-3
398.372269E-3
398.362541E-3
398.353386E-3
398.089600E-3
397.903633E-3
397.739983E-3
397.482491E-3
397.448730E-3
397.261620E-3
397.289658E-3
397.349167E-3
397.303963E-3
397.310829E-3
397.192383E-3
397.309113E-3
397.366333E-3
397.309113E-3
397.285652E-3
397.200966E-3
397.096825E-3
397.037315E-3
396.941757E-3
396.862793E-3
396.709442E-3
396.703720E-3
396.637344E-3
396.610451E-3
396.560097E-3
396.452522E-3
396.502304E-3
396.532059E-3
396.436501E-3
396.475983E-3
396.469688E-3
396.645355E-3
396.569252E-3
396.496582E-3
396.469116E-3
396.530342E-3
396.570396E-3
396.538925E-3
396.398163E-3
396.370125E-3
396.486855E-3
396.344376E-3
396.379280E-3
396.299744E-3
396.416473E-3
396.429634E-3
396.402168E-3
396.327209E-3
396.374130E-3
396.416473E-3
396.324348E-3
396.182442E-3
396.312332E-3
396.429062E-3
396.469116E-3
396.493149E-3
396.450806E-3
396.451378E-3
396.304893E-3
396.320343E-3
396.148109E-3
396.033669E-3
395.982742E-3
395.832825E-3
395.868874E-3
395.776749E-3
395.762444E-3
395.681190E-3
395.965576E-3
396.525192E-3
397.104836E-3
397.913361E-3
398.637199E-3
399.283218E-3
399.861717E-3
400.235367E-3
400.564384E-3
400.583267E-3
400.316048E-3
400.174141E-3
399.992752E-3
399.806213E-3
399.577904E-3
399.327278E-3
399.200249E-3
399.031448E-3
399.072075E-3
399.008560E-3
399.022293E-3
399.187660E-3
399.172783E-3
399.144173E-3
398.914719E-3
399.018288E-3
398.930168E-3
398.697281E-3
398.549080E-3
398.581123E-3
398.554802E-3
398.551941E-3
398.519897E-3
398.321342E-3
398.464394E-3
398.605156E-3
398.561096E-3
398.640060E-3
398.558235E-3
398.612022E-3
398.565674E-3
398.501015E-3
398.388863E-3
398.298454E-3
398.167419E-3
398.028374E-3
397.990036E-3
397.843552E-3
397.800064E-3
397.782326E-3
397.682762E-3
397.711945E-3
397.676468E-3
397.544289E-3
397.518539E-3
397.452164E-3
397.360039E-3
397.313118E-3
397.203255E-3
397.277069E-3
397.363472E-3
397.279930E-3
397.076797E-3
397.029877E-3
397.047615E-3
396.950912E-3
396.940613E-3
396.810150E-3
396.795273E-3
396.641350E-3
396.653366E-3
396.582985E-3
396.505737E-3
396.443939E-3
396.344376E-3
396.325493E-3
396.350670E-3
396.206474E-3
396.136665E-3
396.118355E-3
395.984459E-3
395.958710E-3
395.973015E-3
395.977020E-3
396.011353E-3
