Notes :


2023-11-06 ¿ÀÈÄ 10:58:28
Volts
Ch : LED 2,
369.490814E-3
369.418716E-3
369.534302E-3
369.490814E-3
369.366074E-3
369.357491E-3
369.221878E-3
369.089699E-3
368.885422E-3
368.629074E-3
368.524933E-3
368.290329E-3
368.178749E-3
368.066597E-3
367.872620E-3
367.874336E-3
367.704391E-3
367.610550E-3
367.515564E-3
367.336464E-3
367.330170E-3
367.187119E-3
366.994858E-3
366.551399E-3
366.346550E-3
366.176033E-3
366.022110E-3
365.791512E-3
365.526581E-3
365.213585E-3
365.057373E-3
364.871979E-3
364.863396E-3
364.723206E-3
364.482880E-3
364.397049E-3
364.056015E-3
363.828850E-3
363.708115E-3
363.490677E-3
363.454628E-3
363.309288E-3
363.224030E-3
362.992859E-3
362.727928E-3
362.683296E-3
362.335968E-3
362.143135E-3
361.964035E-3
361.711693E-3
361.679077E-3
361.401558E-3
361.245346E-3
361.213875E-3
361.128616E-3
361.299706E-3
361.432457E-3
362.072754E-3
362.641525E-3
363.329315E-3
364.258003E-3
364.834785E-3
365.374374E-3
365.787506E-3
366.000938E-3
366.074181E-3
365.987778E-3
365.845871E-3
365.558052E-3
365.249062E-3
365.067101E-3
364.736938E-3
364.590454E-3
364.394760E-3
364.298058E-3
364.284325E-3
364.256287E-3
364.250565E-3
364.304352E-3
364.267159E-3
364.386749E-3
364.258575E-3
364.131546E-3
364.028549E-3
363.686371E-3
363.702393E-3
363.487244E-3
363.553619E-3
363.498688E-3
363.492393E-3
363.759613E-3
363.793945E-3
363.866043E-3
363.970757E-3
363.938713E-3
363.871765E-3
363.803101E-3
363.863754E-3
363.817978E-3
363.594246E-3
363.528442E-3
363.335609E-3
363.173103E-3
363.056946E-3
362.903023E-3
362.994003E-3
362.865257E-3
362.903595E-3
362.829208E-3
362.703896E-3
362.672424E-3
362.483025E-3
362.492752E-3
362.463570E-3
362.314796E-3
362.342834E-3
362.168884E-3
362.221527E-3
362.072182E-3
361.976051E-3
362.128258E-3
362.107086E-3
362.073898E-3
362.089920E-3
361.977196E-3
362.142563E-3
362.025261E-3
361.985779E-3
362.034416E-3
361.970901E-3
362.073326E-3
361.963463E-3
361.997223E-3
362.062454E-3
361.921120E-3
361.998940E-3
361.790085E-3
361.734581E-3
361.739731E-3
361.608696E-3
361.659622E-3
361.505699E-3
361.518860E-3
361.403275E-3
361.378098E-3
361.426735E-3
361.370087E-3
361.578369E-3
361.919975E-3
362.508774E-3
363.269234E-3
363.954735E-3
364.953232E-3
365.578079E-3
366.212654E-3
366.606331E-3
366.633224E-3
366.726494E-3
366.609192E-3
366.544533E-3
366.458130E-3
366.138268E-3
366.048431E-3
365.951729E-3
365.715981E-3
365.761757E-3
365.667343E-3
365.750885E-3
365.933990E-3
365.943146E-3
366.029549E-3
366.097641E-3
365.990639E-3
365.900230E-3
365.772057E-3
365.708542E-3
365.677071E-3
365.792084E-3
365.908813E-3
365.977478E-3
366.237259E-3
366.421509E-3
366.674423E-3
366.772842E-3
366.790009E-3
366.896439E-3
366.822052E-3
366.922760E-3
366.896439E-3
366.736794E-3
366.794014E-3
366.639519E-3
366.597748E-3
366.573715E-3
366.391182E-3
366.438103E-3
366.349983E-3
366.349983E-3
366.373444E-3
366.196060E-3
366.224670E-3
366.164589E-3
366.156578E-3
366.125679E-3
365.955162E-3
366.029549E-3
365.918541E-3
365.898514E-3
365.797234E-3
365.723419E-3
365.785217E-3
365.725136E-3
365.783501E-3
365.675926E-3
365.491104E-3
365.643311E-3
365.497398E-3
365.427017E-3
365.323448E-3
365.226173E-3
365.242767E-3
365.174103E-3
365.050507E-3
364.970398E-3
364.738083E-3
364.809608E-3
364.640236E-3
364.493179E-3
364.391899E-3
364.217377E-3
364.287186E-3
364.076042E-3
364.105797E-3
364.054871E-3
364.104652E-3
364.492035E-3
364.940071E-3
365.562057E-3
366.353416E-3
366.907883E-3
367.710114E-3
368.124962E-3
368.419647E-3
368.603325E-3
368.452835E-3
368.460274E-3
368.198776E-3
368.114662E-3
368.002510E-3
367.656326E-3
367.639160E-3
367.444038E-3
367.296982E-3
367.171097E-3
367.094994E-3
367.141914E-3
367.068672E-3
367.080688E-3
367.229462E-3
367.137909E-3
367.025185E-3
366.645813E-3
366.486740E-3
366.457558E-3
366.400337E-3
366.562271E-3
366.549110E-3
366.595459E-3
366.779137E-3
366.754532E-3
366.882706E-3
366.818047E-3
366.889000E-3
366.895294E-3
366.846085E-3
366.952515E-3
366.864395E-3
366.788292E-3
366.807747E-3
366.655540E-3
366.633797E-3
366.601181E-3
366.512489E-3
366.478729E-3
366.399193E-3
366.464424E-3
366.436386E-3
366.423798E-3
366.432381E-3
366.354561E-3
366.411209E-3
366.244698E-3
366.268158E-3
366.245270E-3
366.178894E-3
366.220665E-3
366.220665E-3
366.134834E-3
366.097641E-3
366.103935E-3
366.114807E-3
366.032410E-3
366.054726E-3
366.053581E-3
365.956879E-3
366.011238E-3
365.947723E-3
365.999794E-3
365.889359E-3
365.804100E-3
365.816689E-3
365.647888E-3
365.583229E-3
365.490532E-3
365.291977E-3
365.346909E-3
365.118027E-3
365.096283E-3
365.045357E-3
364.888573E-3
364.953232E-3
364.935493E-3
365.191269E-3
365.673637E-3
366.240692E-3
367.058372E-3
367.817116E-3
368.678284E-3
369.485664E-3
369.860458E-3
370.266151E-3
370.243263E-3
370.220375E-3
370.119095E-3
369.954872E-3
369.859314E-3
369.552612E-3
369.393539E-3
369.209862E-3
368.956947E-3
368.978119E-3
368.915749E-3
369.019318E-3
369.160652E-3
369.139481E-3
369.245338E-3
369.274521E-3
369.185257E-3
369.009590E-3
368.712044E-3
368.705177E-3
368.486595E-3
368.453407E-3
368.514061E-3
368.563271E-3
368.734932E-3
368.706322E-3
368.714333E-3
368.845367E-3
368.792152E-3
368.927193E-3
368.806458E-3
368.737793E-3
368.690300E-3
368.586731E-3
368.574715E-3
368.432808E-3
368.354988E-3
368.290901E-3
368.032837E-3
367.864037E-3
367.815399E-3
367.658043E-3
367.672348E-3
367.616844E-3
367.573929E-3
367.514992E-3
367.440605E-3
367.509270E-3
367.411423E-3
367.426300E-3
367.356491E-3
367.279243E-3
367.308426E-3
367.177963E-3
367.112732E-3
367.106438E-3
367.147636E-3
367.283249E-3
367.216301E-3
367.246056E-3
367.226028E-3
367.206001E-3
367.224312E-3
367.148209E-3
367.235756E-3
367.096138E-3
367.011452E-3
367.012596E-3
366.871834E-3
366.811752E-3
366.661835E-3
366.622353E-3
366.596031E-3
366.527367E-3
366.685295E-3
366.729355E-3
367.056084E-3
367.628288E-3
368.125534E-3
368.878555E-3
369.660187E-3
370.398903E-3
370.980835E-3
371.369934E-3
371.669769E-3
371.577644E-3
371.551895E-3
371.397400E-3
371.126747E-3
371.022606E-3
370.693016E-3
370.365715E-3
370.314217E-3
370.079041E-3
370.060158E-3
369.949722E-3
370.006943E-3
370.136833E-3
369.998932E-3
370.026398E-3
369.947433E-3
369.861603E-3
369.675064E-3
369.441605E-3
369.383812E-3
369.296265E-3
369.276237E-3
369.314003E-3
369.401550E-3
369.478798E-3
369.507980E-3
369.515419E-3
369.621849E-3
369.548607E-3
369.598389E-3
369.474792E-3
369.522858E-3
369.513702E-3
369.300842E-3
369.268227E-3
369.032478E-3
368.809319E-3
368.807602E-3
368.639946E-3
368.633652E-3
368.525505E-3
368.401337E-3
368.276024E-3
368.192482E-3
368.135834E-3
368.084335E-3
368.015671E-3
367.948151E-3
367.742729E-3
367.801666E-3
367.633438E-3
367.619705E-3
367.532730E-3
367.428017E-3
367.454910E-3
367.350197E-3
367.375374E-3
367.393112E-3
367.256355E-3
367.308426E-3
367.182541E-3
367.396545E-3
367.347908E-3
367.249489E-3
367.210579E-3
367.018318E-3
367.060661E-3
367.081261E-3
366.920471E-3
366.950226E-3
366.808319E-3
366.776848E-3
366.835213E-3
366.769409E-3
366.967392E-3
367.306709E-3
367.733002E-3
368.355560E-3
369.101143E-3
370.001793E-3
370.618057E-3
371.135902E-3
371.463203E-3
371.638870E-3
371.710968E-3
371.483231E-3
371.289825E-3
371.099281E-3
370.781708E-3
370.583725E-3
370.286751E-3
370.052719E-3
369.890213E-3
369.699097E-3
369.812965E-3
369.828987E-3
369.878197E-3
369.880486E-3
369.781494E-3
369.633865E-3
369.473076E-3
369.219589E-3
369.126320E-3
368.987274E-3
369.090843E-3
369.115448E-3
369.216156E-3
369.309425E-3
369.321442E-3
369.450760E-3
369.382095E-3
369.447327E-3
369.502831E-3
369.458199E-3
369.463921E-3
369.359779E-3
369.327736E-3
369.305420E-3
369.070816E-3
369.022179E-3
368.741226E-3
368.716621E-3
368.673134E-3
368.408203E-3
368.504333E-3
368.342400E-3
368.277740E-3
368.301201E-3
368.134117E-3
368.134117E-3
368.013954E-3
367.914963E-3
367.900085E-3
367.683792E-3
367.728996E-3
367.678642E-3
367.626572E-3
367.676926E-3
367.601395E-3
367.641449E-3
367.580223E-3
367.573357E-3
367.576790E-3
367.446899E-3
367.460632E-3
367.435455E-3
367.402267E-3
367.499542E-3
367.289543E-3
367.314720E-3
367.264938E-3
367.091560E-3
367.153358E-3
366.959953E-3
366.942215E-3
366.776848E-3
366.709900E-3
366.788292E-3
366.668129E-3
366.812325E-3
367.053223E-3
367.558479E-3
368.250847E-3
368.818474E-3
369.595528E-3
370.297050E-3
370.835495E-3
371.268082E-3
371.237755E-3
371.385384E-3
371.093559E-3
370.903015E-3
370.724487E-3
370.413780E-3
370.244980E-3
369.902229E-3
369.572639E-3
369.462776E-3
369.198990E-3
369.303131E-3
369.224167E-3
369.152641E-3
369.161797E-3
368.999290E-3
368.905449E-3
368.806458E-3
368.632507E-3
368.582726E-3
368.367004E-3
368.452835E-3
368.389320E-3
368.625069E-3
368.666840E-3
368.661690E-3
368.848801E-3
368.902588E-3
368.901443E-3
368.860245E-3
368.722916E-3
368.788147E-3
368.665695E-3
368.563843E-3
368.460846E-3
368.206215E-3
368.108368E-3
367.866325E-3
367.839432E-3
367.868614E-3
367.556190E-3
367.520142E-3
367.325020E-3
367.304993E-3
367.203712E-3
366.979408E-3
367.021751E-3
366.842079E-3
366.814613E-3
366.823196E-3
366.577148E-3
366.675568E-3
366.499329E-3
366.488457E-3
366.498184E-3
366.325378E-3
366.439247E-3
366.348839E-3
366.325378E-3
366.263580E-3
366.188049E-3
366.252708E-3
366.133690E-3
366.071320E-3
366.209793E-3
366.007805E-3
366.077614E-3
365.853882E-3
365.856171E-3
365.908241E-3
365.650177E-3
365.614700E-3
365.512848E-3
365.469933E-3
365.493393E-3
365.369225E-3
365.674210E-3
365.964890E-3
366.489029E-3
367.247200E-3
368.011665E-3
368.753815E-3
369.355774E-3
369.882202E-3
370.239830E-3
370.235252E-3
370.270729E-3
370.053291E-3
369.856453E-3
369.681358E-3
369.314575E-3
369.186974E-3
369.005013E-3
368.666267E-3
368.476295E-3
368.333817E-3
368.304634E-3
368.194771E-3
368.301773E-3
368.403625E-3
368.231392E-3
368.158722E-3
367.906380E-3
367.714119E-3
367.724991E-3
367.513275E-3
367.630005E-3
367.658615E-3
367.702675E-3
367.804527E-3
367.754745E-3
367.881775E-3
367.882919E-3
367.952728E-3
368.020821E-3
367.991638E-3
368.004227E-3
367.915535E-3
367.860603E-3
367.638588E-3
367.418289E-3
367.351341E-3
367.206573E-3
367.030907E-3
366.947937E-3
366.769409E-3
366.844368E-3
366.709328E-3
366.580009E-3
366.559410E-3
366.365433E-3
366.358566E-3
366.261292E-3
366.181755E-3
366.165161E-3
366.065598E-3
366.099358E-3
365.964890E-3
365.975761E-3
365.936852E-3
365.912819E-3
365.878487E-3
365.915108E-3
365.859032E-3
365.875053E-3
365.704536E-3
365.783501E-3
365.766907E-3
365.704536E-3
365.833855E-3
365.663910E-3
365.792656E-3
365.707970E-3
365.753746E-3
365.748596E-3
365.523720E-3
365.538025E-3
365.424728E-3
365.377235E-3
365.298843E-3
365.160370E-3
365.149498E-3
365.151787E-3
365.055084E-3
365.098000E-3
365.299416E-3
365.782356E-3
366.301918E-3
366.986275E-3
367.868614E-3
368.476295E-3
369.234467E-3
369.785500E-3
370.018387E-3
370.175171E-3
370.022392E-3
369.854164E-3
369.704819E-3
369.476509E-3
369.174957E-3
368.837929E-3
368.663979E-3
368.397331E-3
368.226242E-3
368.230820E-3
368.055725E-3
368.175888E-3
368.100929E-3
368.117523E-3
368.110657E-3
367.970467E-3
367.922974E-3
367.712402E-3
367.480659E-3
367.415428E-3
367.339897E-3
367.501259E-3
367.444611E-3
367.423439E-3
367.548180E-3
367.608261E-3
367.647171E-3
367.636871E-3
367.588234E-3
367.763901E-3
367.658615E-3
367.615128E-3
367.508125E-3
367.384529E-3
367.422867E-3
367.187119E-3
367.090416E-3
366.989136E-3
366.885567E-3
366.917610E-3
366.681862E-3
366.620636E-3
366.543961E-3
366.430092E-3
366.428375E-3
366.271019E-3
366.297340E-3
366.271591E-3
366.135979E-3
366.098785E-3
366.031265E-3
366.002083E-3
366.000938E-3
365.804100E-3
365.802956E-3
365.762329E-3
365.802956E-3
365.776062E-3
365.728569E-3
365.710258E-3
365.588379E-3
365.669632E-3
365.666771E-3
365.559769E-3
365.525436E-3
365.485382E-3
365.563202E-3
365.546036E-3
365.411568E-3
365.492821E-3
365.356636E-3
365.416145E-3
365.392113E-3
365.205574E-3
365.210724E-3
365.031052E-3
365.057373E-3
364.942932E-3
364.857674E-3
364.805603E-3
364.656830E-3
364.671135E-3
364.716339E-3
365.119743E-3
365.747452E-3
366.363144E-3
367.167091E-3
367.856026E-3
368.510056E-3
369.160080E-3
369.318581E-3
369.431305E-3
369.354057E-3
369.118881E-3
368.927765E-3
368.667984E-3
368.467712E-3
368.158150E-3
367.800522E-3
367.600822E-3
367.275238E-3
367.234039E-3
367.170525E-3
367.082977E-3
367.170525E-3
367.123032E-3
367.117310E-3
366.943932E-3
366.721344E-3
366.559410E-3
366.396904E-3
366.415215E-3
366.433525E-3
366.378021E-3
366.557121E-3
366.558266E-3
366.729355E-3
366.760254E-3
366.701889E-3
366.819191E-3
366.866684E-3
366.878700E-3
366.783142E-3
366.731644E-3
366.671562E-3
366.402626E-3
366.478729E-3
366.289330E-3
366.102219E-3
366.038132E-3
365.826416E-3
365.887070E-3
365.852737E-3
365.663910E-3
365.569496E-3
365.496826E-3
365.472794E-3
365.426445E-3
365.313148E-3
365.269089E-3
365.143204E-3
365.132904E-3
365.188408E-3
365.008736E-3
365.075684E-3
365.044785E-3
365.057373E-3
365.030479E-3
364.973259E-3
365.071678E-3
364.938354E-3
364.960098E-3
364.854813E-3
364.876556E-3
364.959526E-3
364.829063E-3
364.884567E-3
364.859390E-3
364.795303E-3
364.828491E-3
364.717484E-3
364.779854E-3
364.673996E-3
364.505768E-3
364.585304E-3
364.399338E-3
364.375877E-3
364.406776E-3
364.175034E-3
364.267731E-3
364.115524E-3
364.165306E-3
364.381027E-3
364.727783E-3
365.419006E-3
365.947151E-3
366.788292E-3
367.478943E-3
368.012810E-3
368.482590E-3
368.767548E-3
368.837929E-3
368.752098E-3
368.487740E-3
368.337250E-3
368.085480E-3
367.874336E-3
367.481232E-3
367.184258E-3
367.008591E-3
366.758537E-3
366.729355E-3
366.668129E-3
366.599464E-3
366.638947E-3
366.382599E-3
366.513062E-3
366.318512E-3
366.169167E-3
366.072464E-3
366.006660E-3
365.976334E-3
366.032410E-3
366.057587E-3
366.042137E-3
366.117668E-3
366.224098E-3
366.329384E-3
366.321373E-3
366.390610E-3
366.429520E-3
366.418076E-3
366.387749E-3
366.434669E-3
366.342545E-3
366.137123E-3
366.040993E-3
365.859032E-3
365.723991E-3
365.654755E-3
365.479660E-3
365.445328E-3
365.528297E-3
365.284538E-3
365.293694E-3
365.104294E-3
365.083122E-3
365.074539E-3
364.870262E-3
364.926910E-3
364.725494E-3
364.746094E-3
364.691734E-3
364.637947E-3
364.682007E-3
364.590454E-3
364.653397E-3
364.726639E-3
364.640808E-3
364.608192E-3
364.569283E-3
364.566994E-3
364.604759E-3
364.540672E-3
364.607048E-3
364.473724E-3
364.566422E-3
364.484024E-3
364.400482E-3
364.501762E-3
364.410782E-3
364.455986E-3
364.425659E-3
364.242554E-3
364.295769E-3
364.175034E-3
364.116096E-3
364.104080E-3
363.813972E-3
363.906670E-3
363.773346E-3
363.834572E-3
363.912392E-3
364.142418E-3
364.628792E-3
