Notes :


2023-11-04 ¿ÀÈÄ 6:58:03
Volts
Ch : LED 2,
329.371262E-3
329.560089E-3
329.784966E-3
330.197525E-3
330.431557E-3
330.456161E-3
330.088806E-3
329.377556E-3
328.700066E-3
328.155899E-3
327.828026E-3
327.929878E-3
328.066635E-3
328.413391E-3
328.799629E-3
329.231071E-3
329.704857E-3
329.916573E-3
330.007553E-3
329.884529E-3
329.409599E-3
328.973007E-3
328.457451E-3
327.885246E-3
327.369118E-3
326.771164E-3
326.297379E-3
325.705147E-3
325.250244E-3
324.967575E-3
324.589348E-3
324.379921E-3
324.058342E-3
323.890686E-3
323.707581E-3
323.390007E-3
323.432350E-3
323.334503E-3
323.379135E-3
323.317337E-3
323.358536E-3
323.353958E-3
323.360825E-3
323.454666E-3
323.444939E-3
323.247528E-3
323.140526E-3
323.071289E-3
323.034668E-3
322.908211E-3
322.853851E-3
322.931671E-3
322.778320E-3
322.650719E-3
322.716522E-3
322.683334E-3
322.677612E-3
322.495651E-3
322.377205E-3
322.273636E-3
322.022438E-3
321.918297E-3
321.974373E-3
321.644783E-3
321.212769E-3
320.999908E-3
320.843697E-3
320.601082E-3
320.387650E-3
320.362473E-3
320.471191E-3
320.400810E-3
320.313835E-3
320.397949E-3
320.914078E-3
321.912003E-3
323.827171E-3
326.474762E-3
329.275703E-3
332.212257E-3
334.842110E-3
337.165260E-3
338.377762E-3
338.682747E-3
338.297081E-3
337.395859E-3
336.252594E-3
334.681320E-3
333.425331E-3
332.300377E-3
331.278419E-3
330.613518E-3
330.096245E-3
329.873657E-3
329.803848E-3
329.937744E-3
330.335426E-3
330.454445E-3
330.448151E-3
330.308533E-3
329.851913E-3
329.329491E-3
328.807068E-3
328.400803E-3
328.302956E-3
328.494072E-3
328.823090E-3
329.247665E-3
329.769516E-3
330.262184E-3
330.599785E-3
330.754852E-3
330.646133E-3
330.460739E-3
330.011559E-3
329.540062E-3
329.026794E-3
328.443718E-3
327.857208E-3
327.369118E-3
326.812935E-3
326.414680E-3
325.947189E-3
325.627327E-3
325.368118E-3
325.069427E-3
324.795914E-3
324.579048E-3
324.516106E-3
324.466896E-3
324.361610E-3
324.409676E-3
324.410248E-3
324.418831E-3
324.393082E-3
324.505234E-3
324.645996E-3
324.482346E-3
324.398232E-3
324.329567E-3
324.360466E-3
324.296951E-3
324.240303E-3
324.262619E-3
324.225426E-3
324.157333E-3
324.222565E-3
324.114990E-3
324.069214E-3
323.905563E-3
323.686409E-3
323.578262E-3
323.340225E-3
323.196602E-3
323.082733E-3
322.915077E-3
322.896194E-3
322.850418E-3
322.608948E-3
322.298241E-3
322.044182E-3
321.767807E-3
321.477127E-3
321.204758E-3
321.002197E-3
320.841980E-3
320.712662E-3
320.903778E-3
321.177292E-3
321.711731E-3
323.091888E-3
325.325203E-3
327.993393E-3
330.999184E-3
334.036446E-3
336.751556E-3
338.957977E-3
340.172768E-3
340.696335E-3
340.485764E-3
339.685822E-3
338.532257E-3
337.173843E-3
336.024857E-3
335.058403E-3
333.858490E-3
333.138657E-3
332.649994E-3
332.429123E-3
332.484627E-3
332.688332E-3
333.222771E-3
333.479691E-3
333.822441E-3
333.947182E-3
333.724594E-3
333.302307E-3
332.464027E-3
331.694412E-3
331.046677E-3
330.480194E-3
330.533981E-3
330.753708E-3
330.944824E-3
331.284142E-3
331.636047E-3
331.953049E-3
332.025719E-3
332.001686E-3
331.887817E-3
331.455803E-3
330.871582E-3
330.413246E-3
329.897690E-3
329.324341E-3
328.750992E-3
328.261757E-3
327.771950E-3
327.310181E-3
327.092743E-3
326.855278E-3
326.700783E-3
326.562309E-3
326.338005E-3
326.262474E-3
326.062775E-3
326.056480E-3
325.720024E-3
325.758362E-3
325.804710E-3
325.694847E-3
325.658798E-3
325.683975E-3
325.638199E-3
325.663948E-3
325.385284E-3
325.288582E-3
325.199318E-3
325.013351E-3
324.925232E-3
324.873161E-3
324.736404E-3
324.505234E-3
324.468613E-3
324.365044E-3
324.022865E-3
323.920441E-3
323.705864E-3
323.583412E-3
323.434639E-3
323.291016E-3
323.059273E-3
323.058128E-3
322.642708E-3
322.412109E-3
322.208405E-3
321.996117E-3
321.740341E-3
321.429634E-3
321.257973E-3
320.845413E-3
320.644569E-3
320.516968E-3
320.480919E-3
320.574188E-3
320.730400E-3
321.032524E-3
321.854782E-3
323.538780E-3
326.041603E-3
328.943825E-3
331.895256E-3
334.649849E-3
337.010765E-3
338.559723E-3
339.190292E-3
339.146805E-3
338.449287E-3
337.306595E-3
335.898399E-3
334.537125E-3
333.499718E-3
332.399368E-3
331.702995E-3
331.260681E-3
331.059265E-3
331.112480E-3
331.321907E-3
331.377983E-3
331.860352E-3
332.006264E-3
332.106400E-3
331.847763E-3
331.340790E-3
330.571747E-3
329.969215E-3
329.461098E-3
329.227638E-3
329.291153E-3
329.522896E-3
329.730606E-3
330.128288E-3
330.459595E-3
330.642128E-3
330.788040E-3
330.575180E-3
330.271339E-3
329.891968E-3
329.394150E-3
328.932953E-3
328.412247E-3
327.951622E-3
327.370834E-3
326.604080E-3
326.288795E-3
325.750923E-3
325.591278E-3
325.270271E-3
325.106049E-3
324.898338E-3
324.797630E-3
324.699783E-3
324.596214E-3
324.571037E-3
324.617958E-3
324.407387E-3
324.256897E-3
324.219704E-3
324.078941E-3
324.066353E-3
324.010277E-3
324.250031E-3
324.033165E-3
323.861504E-3
323.949051E-3
323.861504E-3
323.783112E-3
323.636055E-3
323.544502E-3
323.452950E-3
323.299599E-3
323.125648E-3
323.016357E-3
322.872162E-3
322.846413E-3
322.639275E-3
322.636414E-3
322.404671E-3
322.289085E-3
322.152328E-3
321.903419E-3
321.663094E-3
321.362686E-3
321.042252E-3
320.907784E-3
320.634270E-3
320.649147E-3
320.478630E-3
320.489502E-3
320.606804E-3
320.669174E-3
320.850563E-3
321.156693E-3
322.164345E-3
323.955917E-3
326.208115E-3
329.016495E-3
331.838036E-3
334.542847E-3
336.726952E-3
337.976074E-3
338.526535E-3
338.314247E-3
337.510300E-3
336.423111E-3
335.017204E-3
333.726883E-3
332.601929E-3
331.624031E-3
330.961990E-3
330.440140E-3
330.299950E-3
330.366898E-3
330.648994E-3
330.927086E-3
331.190872E-3
331.198883E-3
330.931091E-3
330.413246E-3
329.644203E-3
328.960419E-3
328.626251E-3
328.673172E-3
328.745270E-3
329.151535E-3
329.667091E-3
330.205536E-3
330.610085E-3
330.920219E-3
331.215477E-3
330.970001E-3
330.704498E-3
330.347443E-3
329.882240E-3
329.414749E-3
328.833961E-3
328.352165E-3
327.815437E-3
327.085304E-3
326.748848E-3
326.346588E-3
326.137733E-3
325.833321E-3
325.568390E-3
325.514603E-3
325.301743E-3
325.162697E-3
324.742699E-3
324.798203E-3
324.889755E-3
324.881172E-3
324.807358E-3
324.914932E-3
324.910355E-3
324.938393E-3
324.924660E-3
324.857712E-3
324.737549E-3
324.616241E-3
324.577332E-3
324.489784E-3
324.411392E-3
324.296951E-3
324.128151E-3
324.125290E-3
323.882103E-3
323.893547E-3
323.934174E-3
323.736191E-3
323.689270E-3
323.492432E-3
323.206329E-3
323.008347E-3
322.824097E-3
322.904205E-3
322.568893E-3
322.368622E-3
322.084808E-3
321.818161E-3
321.772957E-3
321.581268E-3
321.185875E-3
321.144676E-3
321.089172E-3
321.233368E-3
321.282005E-3
321.878242E-3
323.145103E-3
325.162697E-3
327.908707E-3
330.734825E-3
333.936310E-3
336.845970E-3
338.982010E-3
340.235138E-3
340.494919E-3
340.244865E-3
339.512444E-3
338.341713E-3
337.257957E-3
335.890961E-3
334.890175E-3
334.061050E-3
333.421326E-3
333.154106E-3
333.115196E-3
333.295441E-3
333.586121E-3
333.708000E-3
334.148026E-3
334.277344E-3
334.380913E-3
334.071922E-3
333.509445E-3
332.754707E-3
331.994247E-3
331.394005E-3
331.163979E-3
331.114769E-3
331.266975E-3
331.475258E-3
331.727028E-3
331.990814E-3
332.050323E-3
332.153320E-3
332.055473E-3
331.799698E-3
331.501579E-3
331.104469E-3
330.705070E-3
330.294228E-3
329.662514E-3
328.962135E-3
328.371620E-3
327.842331E-3
327.287292E-3
326.976013E-3
326.602936E-3
326.346016E-3
326.279640E-3
326.145744E-3
325.972939E-3
325.924873E-3
325.800705E-3
325.802422E-3
325.623322E-3
325.527763E-3
325.416756E-3
325.285149E-3
325.297165E-3
325.182724E-3
325.004196E-3
325.032806E-3
324.941826E-3
324.757576E-3
324.688911E-3
324.547577E-3
324.394226E-3
324.180222E-3
323.994255E-3
323.717880E-3
323.501015E-3
323.296738E-3
322.993469E-3
322.852135E-3
322.681618E-3
322.480774E-3
322.348595E-3
322.230148E-3
321.990395E-3
321.887398E-3
321.611595E-3
321.537209E-3
321.092033E-3
320.848846E-3
320.486641E-3
320.192528E-3
319.952774E-3
319.519615E-3
319.464111E-3
319.397736E-3
319.557953E-3
319.698715E-3
320.003700E-3
320.875168E-3
322.602654E-3
324.985886E-3
327.836037E-3
330.683899E-3
333.621597E-3
335.986519E-3
337.565231E-3
338.424683E-3
338.238716E-3
337.673950E-3
336.630249E-3
335.400009E-3
334.115982E-3
332.922363E-3
331.829453E-3
330.928802E-3
330.346870E-3
330.207253E-3
330.251884E-3
330.335999E-3
330.557442E-3
330.912209E-3
331.220055E-3
331.190300E-3
331.028938E-3
330.549431E-3
329.740906E-3
328.787613E-3
328.361893E-3
328.176498E-3
328.264618E-3
328.343010E-3
328.611946E-3
328.969002E-3
329.302597E-3
329.470253E-3
329.678535E-3
329.589844E-3
329.298019E-3
328.939819E-3
328.440857E-3
327.925301E-3
327.444649E-3
326.816940E-3
326.260185E-3
325.565529E-3
325.079727E-3
324.650002E-3
324.275780E-3
324.014282E-3
323.842049E-3
323.692131E-3
323.604012E-3
323.424911E-3
323.506165E-3
323.291016E-3
323.126793E-3
323.030090E-3
322.900772E-3
322.808075E-3
322.859001E-3
322.861290E-3
322.800064E-3
322.554016E-3
322.666740E-3
322.743988E-3
322.653008E-3
322.573471E-3
322.361183E-3
322.304535E-3
322.085953E-3
321.930885E-3
321.831894E-3
321.799278E-3
321.700287E-3
321.619034E-3
321.496010E-3
321.496010E-3
321.270561E-3
321.284866E-3
321.133232E-3
320.991325E-3
320.929527E-3
320.721245E-3
320.653725E-3
320.641708E-3
320.447159E-3
320.318413E-3
319.940186E-3
319.861221E-3
319.707870E-3
319.524193E-3
319.585419E-3
319.511604E-3
319.625473E-3
319.727325E-3
320.119286E-3
321.411324E-3
323.293877E-3
325.860786E-3
328.706932E-3
331.608582E-3
334.420967E-3
336.471748E-3
337.853622E-3
338.333702E-3
338.070488E-3
337.234497E-3
335.999680E-3
334.873581E-3
333.576393E-3
332.316971E-3
331.323624E-3
330.464172E-3
329.927444E-3
329.619026E-3
329.493141E-3
329.684830E-3
329.907990E-3
330.164909E-3
330.350304E-3
330.185509E-3
329.842186E-3
329.232788E-3
328.491211E-3
328.094101E-3
327.999687E-3
328.060341E-3
328.273201E-3
328.696060E-3
329.203606E-3
329.591560E-3
329.863358E-3
329.921722E-3
330.044746E-3
329.911423E-3
329.615593E-3
329.220200E-3
328.724098E-3
328.252602E-3
327.797127E-3
327.230072E-3
326.700783E-3
326.231003E-3
325.841904E-3
325.421906E-3
324.992180E-3
324.680901E-3
324.437141E-3
324.429131E-3
324.157333E-3
324.027443E-3
324.014282E-3
323.996544E-3
323.938179E-3
323.921585E-3
323.966789E-3
324.009132E-3
323.832321E-3
323.898125E-3
323.919296E-3
323.989105E-3
323.950195E-3
323.969078E-3
323.990250E-3
323.914719E-3
323.878098E-3
323.739624E-3
323.590851E-3
323.420334E-3
323.339653E-3
323.207474E-3
323.099327E-3
322.922516E-3
322.741127E-3
322.562599E-3
322.546577E-3
322.473907E-3
322.368622E-3
322.279930E-3
322.071075E-3
322.014999E-3
321.899414E-3
321.664238E-3
321.549797E-3
321.497154E-3
321.154976E-3
320.977020E-3
320.794487E-3
320.714951E-3
320.486069E-3
320.374489E-3
320.418549E-3
320.448875E-3
320.870590E-3
321.495438E-3
322.869873E-3
325.080872E-3
327.984810E-3
331.094170E-3
334.197807E-3
336.954689E-3
339.151955E-3
340.386200E-3
340.719223E-3
340.161896E-3
339.198303E-3
337.956619E-3
336.487198E-3
335.117340E-3
333.861351E-3
332.889175E-3
332.199669E-3
331.844902E-3
331.760216E-3
331.944466E-3
332.148743E-3
332.478333E-3
332.727242E-3
332.953262E-3
332.973289E-3
332.636833E-3
332.108688E-3
331.255531E-3
330.575752E-3
330.005836E-3
329.649353E-3
329.657936E-3
329.851341E-3
330.058479E-3
330.246162E-3
330.368042E-3
330.614090E-3
330.619240E-3
330.520821E-3
330.286789E-3
329.885101E-3
329.552650E-3
329.005623E-3
328.486061E-3
327.947044E-3
327.238083E-3
326.675606E-3
326.034737E-3
325.572395E-3
325.276566E-3
324.832535E-3
324.659729E-3
324.386215E-3
324.228859E-3
324.176788E-3
324.023438E-3
324.021149E-3
323.927879E-3
323.850060E-3
323.762512E-3
323.654938E-3
323.656082E-3
323.638916E-3
323.656082E-3
323.606300E-3
323.590851E-3
323.534775E-3
323.355103E-3
323.355675E-3
323.350525E-3
323.216057E-3
323.091888E-3
322.816086E-3
322.635841E-3
322.477341E-3
322.093964E-3
321.799278E-3
321.470833E-3
321.166420E-3
320.974159E-3
320.721245E-3
320.625687E-3
320.367050E-3
320.030594E-3
319.923019E-3
319.683266E-3
319.532204E-3
319.273567E-3
319.236946E-3
319.096756E-3
318.950272E-3
318.822098E-3
318.545151E-3
318.352890E-3
318.136597E-3
317.798424E-3
317.682266E-3
317.630196E-3
317.599297E-3
317.677116E-3
317.803001E-3
318.392944E-3
319.802284E-3
321.928596E-3
324.510384E-3
327.548218E-3
330.622673E-3
333.332062E-3
335.294724E-3
336.544991E-3
336.808205E-3
336.636543E-3
335.496140E-3
334.191513E-3
332.771301E-3
331.232643E-3
329.989243E-3
328.841400E-3
328.000259E-3
327.425194E-3
327.263832E-3
327.257538E-3
327.334213E-3
327.687836E-3
328.048325E-3
328.159332E-3
328.314972E-3
328.190804E-3
327.583122E-3
326.870155E-3
326.220703E-3
325.839615E-3
325.801277E-3
325.782967E-3
326.084518E-3
326.260757E-3
326.721954E-3
326.879311E-3
327.125931E-3
327.246666E-3
327.092171E-3
326.849556E-3
326.499939E-3
325.939178E-3
325.476837E-3
324.718666E-3
324.298668E-3
323.760796E-3
323.198318E-3
322.798347E-3
322.337151E-3
322.090530E-3
321.855927E-3
321.743202E-3
321.574402E-3
321.362114E-3
321.135521E-3
321.090889E-3
320.952415E-3
320.939255E-3
320.808220E-3
320.867157E-3
320.843124E-3
320.824242E-3
320.950127E-3
320.964432E-3
320.917511E-3
320.967293E-3
320.795059E-3
320.757866E-3
320.602798E-3
320.578766E-3
320.363617E-3
320.384789E-3
320.269775E-3
320.138741E-3
320.102119E-3
319.963646E-3
319.841194E-3
319.758224E-3
319.537926E-3
319.282722E-3
319.161987E-3
319.140816E-3
319.041252E-3
318.870163E-3
318.945122E-3
318.843269E-3
318.774033E-3
318.669319E-3
318.343735E-3
318.093681E-3
317.971802E-3
317.774963E-3
317.694283E-3
317.616463E-3
317.670822E-3
317.857361E-3
317.975807E-3
318.491936E-3
319.453239E-3
321.343803E-3
323.784828E-3
326.702499E-3
329.609299E-3
332.426834E-3
334.875870E-3
336.482620E-3
337.389565E-3
337.380409E-3
336.731529E-3
335.704994E-3
334.234428E-3
332.716370E-3
331.377411E-3
330.224419E-3
329.076576E-3
328.339005E-3
327.905273E-3
327.767372E-3
327.833748E-3
328.061485E-3
328.286934E-3
328.564453E-3
328.757286E-3
328.320122E-3
327.852058E-3
327.133942E-3
326.644135E-3
326.198387E-3
325.958633E-3
326.098824E-3
326.329994E-3
326.850700E-3
327.285004E-3
327.579689E-3
327.757645E-3
327.893257E-3
327.779388E-3
327.556229E-3
327.113342E-3
326.689911E-3
326.388359E-3
325.782967E-3
325.278282E-3
324.647713E-3
324.241447E-3
323.779678E-3
323.344803E-3
322.828674E-3
322.496796E-3
322.283363E-3
322.045326E-3
321.783257E-3
321.643066E-3
321.478271E-3
321.445084E-3
321.407890E-3
321.290016E-3
321.386719E-3
321.356964E-3
321.387291E-3
321.313477E-3
321.335220E-3
321.260262E-3
321.253967E-3
321.166420E-3
321.225929E-3
321.226501E-3
321.176720E-3
321.055984E-3
321.089172E-3
321.009064E-3
