Notes :


2023-10-24 ¿ÀÈÄ 9:59:15
Volts
Ch : LED 2,
225.772476E-3
226.463699E-3
225.670624E-3
226.924896E-3
225.751877E-3
225.670624E-3
226.626778E-3
226.018524E-3
227.231026E-3
226.171303E-3
226.102638E-3
226.845360E-3
226.358414E-3
227.462769E-3
226.373863E-3
226.257133E-3
227.038193E-3
226.482582E-3
227.611542E-3
226.643944E-3
226.725769E-3
227.373505E-3
226.844215E-3
227.974319E-3
226.852226E-3
226.993561E-3
228.011513E-3
227.261925E-3
228.271866E-3
227.480507E-3
227.536011E-3
228.101349E-3
227.616119E-3
228.964233E-3
228.189468E-3
228.165436E-3
228.793144E-3
228.171730E-3
229.272079E-3
228.218079E-3
228.161430E-3
227.996635E-3
226.445389E-3
226.317215E-3
224.067879E-3
223.042488E-3
222.552681E-3
221.110153E-3
221.848297E-3
220.606041E-3
220.307922E-3
220.953369E-3
220.670700E-3
222.140694E-3
221.612549E-3
221.671486E-3
222.536659E-3
222.073174E-3
223.511124E-3
222.538948E-3
222.274017E-3
222.912025E-3
221.912384E-3
223.140335E-3
221.876335E-3
221.800804E-3
222.766113E-3
222.199059E-3
223.681068E-3
222.987556E-3
223.408699E-3
224.217796E-3
223.339462E-3
224.649811E-3
223.563766E-3
223.455048E-3
223.837852E-3
222.998428E-3
224.419785E-3
223.366356E-3
223.093987E-3
223.809814E-3
223.075104E-3
224.361992E-3
223.536873E-3
223.744583E-3
224.603462E-3
223.960304E-3
225.306129E-3
224.403191E-3
224.440384E-3
225.240898E-3
224.571419E-3
226.114655E-3
224.991417E-3
225.127029E-3
225.808525E-3
225.072098E-3
226.426506E-3
225.583076E-3
225.381088E-3
226.059151E-3
225.493240E-3
226.684570E-3
225.931549E-3
225.857162E-3
226.619339E-3
225.944138E-3
227.045059E-3
226.113510E-3
226.266861E-3
226.996994E-3
226.155281E-3
227.495956E-3
226.557541E-3
226.502037E-3
227.169800E-3
226.651955E-3
227.934837E-3
227.059937E-3
226.611900E-3
227.413559E-3
226.568985E-3
228.012657E-3
227.224159E-3
227.058792E-3
227.577782E-3
226.897430E-3
228.168869E-3
227.279663E-3
227.126312E-3
227.889061E-3
227.472496E-3
228.987122E-3
228.187180E-3
227.844429E-3
228.444099E-3
227.874184E-3
229.351616E-3
228.368568E-3
228.325653E-3
228.883553E-3
227.581787E-3
227.865028E-3
225.547600E-3
223.963737E-3
223.576927E-3
221.767044E-3
221.969604E-3
220.146561E-3
219.973183E-3
220.622635E-3
219.841576E-3
221.169090E-3
220.672417E-3
220.788002E-3
221.587944E-3
220.891571E-3
222.589874E-3
221.793365E-3
221.463203E-3
222.084618E-3
221.199417E-3
222.622490E-3
221.603966E-3
221.217155E-3
222.046280E-3
221.126175E-3
222.958946E-3
222.431374E-3
222.645378E-3
223.761177E-3
222.877121E-3
224.431801E-3
223.405838E-3
223.032761E-3
223.837852E-3
222.682571E-3
223.939133E-3
223.114586E-3
222.980118E-3
223.235321E-3
221.298981E-3
223.552895E-3
223.000145E-3
222.891998E-3
223.778915E-3
223.154068E-3
224.685287E-3
223.822975E-3
223.517418E-3
224.443245E-3
223.563766E-3
225.052643E-3
224.464989E-3
224.364853E-3
225.082397E-3
224.549103E-3
225.749588E-3
224.957085E-3
224.507332E-3
225.382805E-3
224.840355E-3
226.362419E-3
225.417709E-3
225.137329E-3
225.964165E-3
225.252342E-3
226.432228E-3
225.562477E-3
225.335884E-3
225.991058E-3
225.398254E-3
226.496887E-3
225.629425E-3
225.375938E-3
226.366425E-3
224.188042E-3
226.488304E-3
226.127815E-3
226.138687E-3
226.875687E-3
225.916100E-3
227.353477E-3
226.566124E-3
226.323509E-3
226.985550E-3
226.095772E-3
227.329445E-3
226.510048E-3
226.488876E-3
227.533722E-3
226.737213E-3
227.794075E-3
227.023315E-3
227.192116E-3
228.299904E-3
227.384377E-3
228.649521E-3
227.905083E-3
227.774620E-3
228.710747E-3
227.862740E-3
228.984833E-3
227.933121E-3
227.401543E-3
227.231598E-3
225.089264E-3
225.170517E-3
223.134041E-3
221.696091E-3
221.912384E-3
220.308495E-3
221.236610E-3
220.305061E-3
220.226669E-3
221.125603E-3
219.098854E-3
221.530724E-3
221.409416E-3
221.396255E-3
222.535515E-3
221.485519E-3
222.785568E-3
222.084618E-3
221.547318E-3
222.560692E-3
219.977188E-3
222.124672E-3
221.947289E-3
221.856880E-3
223.025894E-3
222.168159E-3
223.709679E-3
223.324013E-3
223.351479E-3
224.269867E-3
222.932053E-3
223.888779E-3
223.572922E-3
222.957802E-3
223.746300E-3
222.706604E-3
224.039268E-3
223.292542E-3
222.896004E-3
224.129105E-3
223.087692E-3
224.323082E-3
223.622704E-3
223.389244E-3
224.444962E-3
223.653030E-3
224.949074E-3
224.311066E-3
223.692513E-3
224.886131E-3
222.875977E-3
225.173950E-3
224.672699E-3
224.537659E-3
225.557327E-3
224.528503E-3
225.933838E-3
225.565338E-3
225.133324E-3
226.020813E-3
224.826622E-3
226.292610E-3
225.872612E-3
225.439453E-3
226.298332E-3
225.222015E-3
226.306343E-3
226.152420E-3
225.801086E-3
226.515770E-3
225.375366E-3
226.724625E-3
226.209068E-3
225.979614E-3
226.765823E-3
225.716972E-3
226.784706E-3
226.412773E-3
226.141548E-3
227.200699E-3
226.073456E-3
227.204704E-3
226.924896E-3
226.425934E-3
227.373505E-3
225.835419E-3
227.349472E-3
227.269363E-3
226.858521E-3
228.238678E-3
226.966667E-3
228.100204E-3
227.729416E-3
227.109146E-3
228.188896E-3
226.774406E-3
227.799225E-3
226.673698E-3
225.142479E-3
224.725914E-3
222.319221E-3
222.378159E-3
221.059799E-3
219.836426E-3
220.648956E-3
219.182396E-3
220.401764E-3
220.171738E-3
219.693947E-3
221.050072E-3
220.166016E-3
221.602821E-3
221.625710E-3
220.936775E-3
221.954155E-3
221.007156E-3
222.041130E-3
221.647453E-3
221.011162E-3
221.737862E-3
220.705605E-3
222.046280E-3
222.152710E-3
222.072601E-3
222.940636E-3
222.173309E-3
223.592377E-3
223.651314E-3
222.967529E-3
223.406982E-3
222.167015E-3
223.290253E-3
223.187828E-3
222.738075E-3
223.367500E-3
222.007370E-3
223.024750E-3
223.084831E-3
222.613907E-3
223.437309E-3
222.425652E-3
223.631859E-3
223.669052E-3
223.299980E-3
223.975754E-3
222.914886E-3
224.218941E-3
224.309921E-3
223.650742E-3
224.540520E-3
223.471069E-3
224.630928E-3
224.882126E-3
224.183464E-3
224.899292E-3
223.579216E-3
225.331306E-3
225.124168E-3
224.707031E-3
225.717545E-3
224.368858E-3
225.636864E-3
225.477791E-3
224.985695E-3
225.884628E-3
224.570274E-3
225.995636E-3
225.849152E-3
225.558472E-3
225.947571E-3
224.654961E-3
226.142120E-3
226.189613E-3
225.700378E-3
226.527786E-3
225.135040E-3
226.547813E-3
226.537514E-3
226.007080E-3
226.962662E-3
225.655746E-3
227.009583E-3
226.642227E-3
226.300049E-3
226.847076E-3
225.613403E-3
227.188110E-3
227.146912E-3
226.960373E-3
227.470779E-3
226.300621E-3
227.956581E-3
227.833557E-3
227.308273E-3
228.307915E-3
226.732063E-3
228.364563E-3
228.523636E-3
227.381516E-3
227.704239E-3
225.185394E-3
225.337601E-3
223.855591E-3
221.898651E-3
221.500969E-3
219.070244E-3
220.075035E-3
219.677353E-3
219.093132E-3
219.874191E-3
219.219589E-3
220.889282E-3
220.901299E-3
220.557976E-3
221.367073E-3
220.334816E-3
221.704102E-3
221.548462E-3
220.928192E-3
221.513557E-3
220.434380E-3
221.858597E-3
221.623421E-3
220.796013E-3
221.627426E-3
220.796013E-3
222.599602E-3
222.568130E-3
221.987343E-3
222.938919E-3
221.999359E-3
223.349190E-3
223.273659E-3
222.431946E-3
222.732353E-3
221.641731E-3
222.960663E-3
222.681427E-3
222.128105E-3
222.927475E-3
221.724129E-3
223.344040E-3
223.176384E-3
222.281456E-3
223.169518E-3
222.165871E-3
223.679924E-3
223.708534E-3
222.836494E-3
223.703957E-3
222.758675E-3
224.309921E-3
224.351120E-3
223.292542E-3
224.150848E-3
223.345184E-3
224.726486E-3
224.653816E-3
223.726273E-3
224.564552E-3
223.647881E-3
225.230598E-3
224.975967E-3
224.121094E-3
224.937057E-3
224.027252E-3
225.586510E-3
225.418282E-3
224.474716E-3
225.303268E-3
224.107361E-3
225.806236E-3
225.766182E-3
224.561119E-3
225.656319E-3
224.653244E-3
226.078033E-3
226.201630E-3
225.183678E-3
226.108360E-3
225.248909E-3
226.286888E-3
226.283455E-3
225.394249E-3
226.043129E-3
225.251770E-3
226.717186E-3
226.593018E-3
225.734138E-3
226.598167E-3
225.706100E-3
227.099419E-3
227.134323E-3
226.336670E-3
227.154922E-3
226.247978E-3
227.692795E-3
227.869034E-3
226.816177E-3
227.539444E-3
226.701164E-3
227.806664E-3
226.843071E-3
225.168228E-3
224.782562E-3
222.641945E-3
222.604752E-3
221.279526E-3
219.453621E-3
219.891930E-3
218.865395E-3
220.073318E-3
219.920540E-3
219.382095E-3
220.493889E-3
219.762039E-3
221.304131E-3
221.444321E-3
220.617485E-3
221.679497E-3
220.719910E-3
221.835136E-3
221.647453E-3
220.519066E-3
221.404839E-3
220.485878E-3
221.775055E-3
221.907234E-3
221.257210E-3
222.344971E-3
221.805954E-3
223.166084E-3
223.131752E-3
222.393036E-3
223.003578E-3
221.871185E-3
222.642517E-3
222.837639E-3
221.322441E-3
222.271156E-3
221.684647E-3
222.847366E-3
222.812462E-3
222.257423E-3
222.878265E-3
221.986771E-3
223.261642E-3
223.468208E-3
222.881699E-3
223.547745E-3
222.778130E-3
223.844719E-3
224.020386E-3
223.096848E-3
224.027824E-3
223.486519E-3
224.423218E-3
224.268723E-3
223.425865E-3
224.616623E-3
223.972321E-3
224.709320E-3
225.014305E-3
223.994064E-3
224.843788E-3
223.976898E-3
225.071526E-3
225.434875E-3
224.468994E-3
225.214005E-3
224.352264E-3
225.572777E-3
225.513840E-3
224.125671E-3
225.181389E-3
224.549103E-3
225.926399E-3
225.853729E-3
224.982834E-3
225.922394E-3
225.165367E-3
226.191902E-3
226.333237E-3
225.440598E-3
226.491737E-3
225.371933E-3
226.249695E-3
226.382446E-3
225.749588E-3
226.542664E-3
225.761032E-3
226.807594E-3
227.011871E-3
226.525497E-3
227.208710E-3
226.170731E-3
227.276230E-3
227.375793E-3
226.613045E-3
226.843643E-3
225.328445E-3
225.309563E-3
224.146271E-3
222.098351E-3
221.709824E-3
219.533157E-3
219.865608E-3
219.451332E-3
218.519211E-3
219.297981E-3
218.317223E-3
219.508553E-3
219.543457E-3
219.399834E-3
220.433235E-3
219.568062E-3
220.798302E-3
220.730209E-3
220.084190E-3
221.079254E-3
219.792938E-3
220.576859E-3
220.725060E-3
220.227242E-3
221.131897E-3
220.251846E-3
221.404839E-3
221.549606E-3
221.316719E-3
222.593880E-3
221.676064E-3
222.413635E-3
222.567558E-3
221.896362E-3
222.428513E-3
221.193695E-3
222.022247E-3
222.287750E-3
221.739578E-3
222.516632E-3
221.455765E-3
222.375298E-3
222.579575E-3
221.744156E-3
222.809601E-3
221.771622E-3
223.162651E-3
223.307991E-3
222.448540E-3
223.798370E-3
222.821045E-3
223.776054E-3
223.892212E-3
223.237610E-3
224.546242E-3
223.420143E-3
224.417496E-3
224.186897E-3
223.671341E-3
224.931335E-3
223.899078E-3
225.018883E-3
224.941635E-3
224.078178E-3
225.391960E-3
224.111366E-3
225.084114E-3
225.239182E-3
224.412918E-3
225.694084E-3
224.569702E-3
225.582504E-3
225.707817E-3
225.064087E-3
226.015091E-3
224.781990E-3
225.756454E-3
226.112938E-3
225.272942E-3
226.292038E-3
225.252914E-3
226.063728E-3
226.302338E-3
225.456619E-3
226.346397E-3
225.516129E-3
226.342392E-3
226.249123E-3
225.730133E-3
226.815033E-3
225.736427E-3
226.661682E-3
227.152634E-3
226.414490E-3
227.438736E-3
226.424217E-3
227.393532E-3
227.780342E-3
227.003288E-3
228.211784E-3
226.725197E-3
227.032471E-3
226.498604E-3
224.486732E-3
224.024963E-3
221.272659E-3
221.098137E-3
220.087624E-3
218.809319E-3
219.350624E-3
218.147278E-3
219.227600E-3
219.399261E-3
218.794441E-3
220.104218E-3
219.269371E-3
220.401764E-3
220.721054E-3
219.954872E-3
220.775986E-3
219.905663E-3
220.881271E-3
220.953369E-3
219.999504E-3
220.701599E-3
219.738007E-3
220.684433E-3
221.071815E-3
220.364571E-3
221.094704E-3
221.055222E-3
222.276306E-3
222.428513E-3
221.435738E-3
222.264290E-3
221.704674E-3
222.422791E-3
222.492027E-3
221.583366E-3
222.450829E-3
221.451187E-3
222.149849E-3
222.492599E-3
221.313286E-3
222.715187E-3
221.938705E-3
222.681427E-3
223.122025E-3
222.449112E-3
223.612976E-3
222.576141E-3
223.185539E-3
223.654175E-3
222.726059E-3
223.936272E-3
222.990990E-3
223.917961E-3
223.924828E-3
223.241615E-3
224.464417E-3
223.556328E-3
224.585724E-3
224.848938E-3
223.621559E-3
225.201416E-3
223.790359E-3
224.629784E-3
224.976540E-3
224.019241E-3
225.537872E-3
224.368858E-3
224.783134E-3
225.367355E-3
223.635292E-3
225.670624E-3
224.614334E-3
225.346184E-3
225.378227E-3
224.670410E-3
226.512909E-3
225.053215E-3
225.636292E-3
226.098633E-3
224.162292E-3
226.205063E-3
225.193405E-3
225.691223E-3
226.186180E-3
225.400543E-3
226.952934E-3
225.735855E-3
226.039124E-3
226.512909E-3
225.924110E-3
227.332878E-3
226.295471E-3
226.850510E-3
227.431870E-3
226.346397E-3
227.976608E-3
227.071953E-3
227.299690E-3
227.721405E-3
226.819611E-3
227.906799E-3
225.703812E-3
224.768829E-3
223.722839E-3
221.383095E-3
221.904373E-3
219.849586E-3
219.479942E-3
219.389534E-3
218.380737E-3
220.049858E-3
219.299698E-3
219.774055E-3
220.074463E-3
218.796730E-3
221.174240E-3
220.435524E-3
220.764542E-3
220.997429E-3
219.292259E-3
221.572495E-3
220.212364E-3
220.273018E-3
220.773125E-3
220.170593E-3
222.135544E-3
221.159363E-3
221.332741E-3
222.240257E-3
221.623421E-3
223.393822E-3
222.000504E-3
222.234535E-3
222.558975E-3
221.756744E-3
223.524284E-3
221.865463E-3
221.825981E-3
222.331238E-3
221.480942E-3
223.488235E-3
221.813393E-3
222.005081E-3
222.488022E-3
221.852303E-3
223.862457E-3
222.779274E-3
222.699165E-3
223.262215E-3
222.723770E-3
224.605751E-3
223.110008E-3
223.177528E-3
223.875046E-3
223.170090E-3
224.968529E-3
223.702240E-3
223.612404E-3
223.916817E-3
223.565483E-3
225.101852E-3
223.865318E-3
223.979187E-3
224.570847E-3
224.118805E-3
225.771332E-3
224.195480E-3
224.571991E-3
225.081253E-3
224.302483E-3
225.996780E-3
224.302483E-3
224.461555E-3
225.290108E-3
223.543167E-3
225.826263E-3
224.662399E-3
225.021744E-3
225.952721E-3
224.961090E-3
226.546669E-3
225.115585E-3
225.214005E-3
226.061440E-3
225.342178E-3
226.932335E-3
225.496101E-3
225.516701E-3
226.530075E-3
225.791359E-3
227.299118E-3
226.106644E-3
226.306343E-3
227.081680E-3
226.365280E-3
227.920532E-3
226.479721E-3
226.402473E-3
226.669121E-3
225.379372E-3
225.732994E-3
223.170090E-3
221.928978E-3
221.396828E-3
219.329453E-3
219.772911E-3
218.010521E-3
218.053436E-3
218.670273E-3
218.044853E-3
219.554329E-3
218.819046E-3
219.042778E-3
219.973755E-3
219.386101E-3
220.771408E-3
219.721985E-3
219.756317E-3
220.751953E-3
219.836998E-3
220.592308E-3
219.319153E-3
219.268799E-3
220.434380E-3
219.675064E-3
221.130180E-3
220.149994E-3
220.810318E-3
221.966743E-3
220.725632E-3
222.167587E-3
221.041489E-3
221.210289E-3
221.845436E-3
220.426369E-3
221.780205E-3
220.830917E-3
220.858955E-3
221.634865E-3
220.456696E-3
221.935272E-3
221.236610E-3
221.480942E-3
222.324371E-3
221.075249E-3
222.637367E-3
221.873474E-3
222.053719E-3
222.724915E-3
222.306061E-3
223.760033E-3
222.828484E-3
222.760963E-3
223.464775E-3
221.942711E-3
223.867035E-3
223.270798E-3
223.264503E-3
223.856163E-3
223.388672E-3
224.507904E-3
223.499680E-3
223.512268E-3
224.314499E-3
223.785782E-3
225.006294E-3
224.244690E-3
224.264717E-3
224.823189E-3
224.243546E-3
225.415421E-3
224.408913E-3
224.417496E-3
