Notes :


2023-11-10 ¿ÀÈÄ 11:13:26
Volts
Ch : LED 2,
64.386177E-3
65.095139E-3
66.122246E-3
66.982269E-3
67.564201E-3
68.357277E-3
68.895149E-3
69.134903E-3
69.314003E-3
69.170380E-3
69.060516E-3
68.574715E-3
68.437958E-3
68.315506E-3
68.005371E-3
67.810822E-3
67.666054E-3
67.593384E-3
67.611694E-3
67.572784E-3
67.608261E-3
67.606544E-3
67.623138E-3
67.621422E-3
67.391968E-3
67.298126E-3
67.058945E-3
66.907883E-3
66.798592E-3
66.817474E-3
66.827774E-3
66.733932E-3
66.673851E-3
66.884995E-3
66.870689E-3
66.929626E-3
66.988564E-3
66.917038E-3
66.193199E-3
66.528511E-3
66.660690E-3
66.629791E-3
66.453552E-3
66.395187E-3
66.261292E-3
66.059303E-3
65.923119E-3
65.753174E-3
65.768051E-3
65.614128E-3
65.610695E-3
65.511703E-3
65.426445E-3
65.423012E-3
65.681648E-3
65.424156E-3
65.319443E-3
65.198708E-3
65.198708E-3
65.111160E-3
65.125465E-3
65.020752E-3
65.007019E-3
64.981842E-3
64.929199E-3
64.931488E-3
64.905739E-3
64.800453E-3
64.898872E-3
64.771843E-3
64.780998E-3
64.747238E-3
64.678001E-3
64.672279E-3
64.586449E-3
64.548683E-3
64.505768E-3
64.458275E-3
64.501190E-3
64.332962E-3
64.308357E-3
63.873482E-3
64.101219E-3
64.116096E-3
64.083481E-3
64.084053E-3
64.014816E-3
64.019966E-3
64.022255E-3
63.898659E-3
63.573074E-3
63.657761E-3
63.620567E-3
63.669205E-3
63.538742E-3
63.548470E-3
63.519859E-3
63.471222E-3
63.531303E-3
63.839722E-3
63.986206E-3
64.441681E-3
65.069962E-3
65.958023E-3
66.790581E-3
67.567062E-3
68.212509E-3
68.593597E-3
68.720055E-3
68.871689E-3
68.874550E-3
68.659401E-3
68.325806E-3
68.144417E-3
67.852020E-3
67.540169E-3
67.365074E-3
67.398834E-3
67.263222E-3
67.041206E-3
67.057228E-3
67.115593E-3
67.075539E-3
67.045212E-3
66.868401E-3
66.712189E-3
66.064453E-3
66.158867E-3
66.133118E-3
66.042709E-3
66.155434E-3
66.158295E-3
66.168594E-3
66.396904E-3
66.401482E-3
66.394615E-3
66.502190E-3
66.577721E-3
66.648674E-3
66.519356E-3
66.415215E-3
66.296768E-3
66.248131E-3
66.156578E-3
66.065598E-3
65.867043E-3
65.631866E-3
65.416718E-3
65.384102E-3
65.189552E-3
65.079117E-3
65.007591E-3
64.850235E-3
64.773560E-3
64.700890E-3
64.715767E-3
64.673424E-3
64.643097E-3
64.630508E-3
64.535522E-3
64.503479E-3
64.554405E-3
64.834213E-3
64.644241E-3
64.441681E-3
64.383316E-3
64.425087E-3
64.347267E-3
64.348984E-3
64.290619E-3
64.225388E-3
64.095497E-3
64.078903E-3
64.100075E-3
63.979912E-3
63.970757E-3
63.966179E-3
63.882065E-3
63.778496E-3
63.706398E-3
63.697815E-3
63.721848E-3
63.602829E-3
63.677216E-3
63.549614E-3
63.561630E-3
63.520432E-3
63.428307E-3
63.434601E-3
63.327026E-3
63.298416E-3
63.239479E-3
63.129044E-3
63.072395E-3
62.935638E-3
62.979126E-3
63.289261E-3
63.013458E-3
63.103867E-3
63.167953E-3
63.516998E-3
64.157295E-3
64.850807E-3
65.785217E-3
66.588020E-3
67.140198E-3
68.066025E-3
68.560410E-3
68.851662E-3
68.960381E-3
68.845367E-3
68.796158E-3
68.416214E-3
68.157578E-3
68.035126E-3
67.785645E-3
67.559052E-3
67.294693E-3
67.321587E-3
67.182541E-3
67.213440E-3
67.212296E-3
67.207718E-3
67.388535E-3
67.278671E-3
67.103004E-3
66.962242E-3
66.713905E-3
66.624641E-3
66.388321E-3
66.304779E-3
66.323090E-3
65.928268E-3
66.300774E-3
66.297340E-3
66.448975E-3
66.568565E-3
66.469002E-3
66.586304E-3
66.492462E-3
66.387749E-3
65.915108E-3
66.046143E-3
65.957451E-3
65.826416E-3
65.757179E-3
65.633583E-3
65.430450E-3
65.413857E-3
65.223312E-3
65.404129E-3
65.171242E-3
64.985275E-3
64.948082E-3
64.876556E-3
64.773560E-3
64.739799E-3
64.657974E-3
64.681435E-3
64.482880E-3
64.552116E-3
64.663124E-3
64.468575E-3
64.479446E-3
64.418793E-3
64.356995E-3
64.374161E-3
64.247704E-3
64.478302E-3
64.334679E-3
64.294624E-3
64.264297E-3
64.183044E-3
64.191055E-3
64.133263E-3
64.050865E-3
64.013672E-3
63.689232E-3
63.802528E-3
63.757896E-3
63.792801E-3
63.752747E-3
63.682365E-3
63.606262E-3
63.603973E-3
63.571358E-3
63.892365E-3
63.552475E-3
63.542175E-3
63.397980E-3
63.363075E-3
63.356781E-3
63.211441E-3
63.261795E-3
63.165665E-3
63.095856E-3
63.133049E-3
62.975121E-3
62.954521E-3
62.810326E-3
62.805748E-3
62.873840E-3
62.935638E-3
63.021469E-3
63.456345E-3
64.022255E-3
64.919472E-3
65.718269E-3
66.624069E-3
67.389679E-3
68.067169E-3
68.386459E-3
68.667412E-3
68.880844E-3
68.782425E-3
68.571854E-3
68.391609E-3
68.027687E-3
67.898369E-3
67.527008E-3
67.369080E-3
67.349052E-3
67.141342E-3
67.218590E-3
67.195702E-3
67.197418E-3
67.241478E-3
67.189407E-3
67.194557E-3
67.066383E-3
66.921616E-3
66.740227E-3
66.507339E-3
66.384315E-3
66.221809E-3
66.217232E-3
66.294479E-3
66.264153E-3
66.561699E-3
66.462135E-3
66.450119E-3
66.566277E-3
66.534805E-3
66.500473E-3
66.344833E-3
66.299629E-3
66.239548E-3
66.234398E-3
66.016960E-3
65.739441E-3
65.637016E-3
65.546036E-3
65.403557E-3
65.305138E-3
65.241051E-3
65.045357E-3
64.731789E-3
64.768982E-3
64.893723E-3
64.816475E-3
64.774704E-3
64.795876E-3
64.641953E-3
64.667702E-3
64.591026E-3
64.883423E-3
64.743805E-3
64.540100E-3
64.570427E-3
64.462852E-3
64.446831E-3
64.441681E-3
64.306641E-3
64.386749E-3
64.399910E-3
64.256287E-3
64.259720E-3
64.176750E-3
64.171600E-3
64.064598E-3
64.039421E-3
64.090919E-3
63.939857E-3
63.820267E-3
63.891792E-3
63.773346E-3
63.797379E-3
63.687515E-3
63.709259E-3
63.721275E-3
63.535309E-3
63.562775E-3
63.627434E-3
63.553047E-3
63.466644E-3
63.400841E-3
63.432884E-3
63.353920E-3
63.371658E-3
63.273811E-3
63.162231E-3
63.477516E-3
63.155365E-3
63.067245E-3
62.939072E-3
62.872124E-3
62.940788E-3
62.767982E-3
62.853241E-3
62.998009E-3
63.455772E-3
64.157867E-3
64.908028E-3
65.749741E-3
66.661835E-3
67.363358E-3
68.096924E-3
68.377304E-3
68.578148E-3
68.568993E-3
68.371582E-3
68.244553E-3
67.921257E-3
67.644882E-3
67.465210E-3
67.133904E-3
67.156792E-3
66.755676E-3
66.657829E-3
66.615486E-3
66.553688E-3
66.603470E-3
66.470146E-3
66.498184E-3
66.448975E-3
66.098785E-3
66.142845E-3
65.874481E-3
65.904236E-3
65.718842E-3
65.701675E-3
65.808678E-3
65.761185E-3
65.924835E-3
66.072464E-3
66.152573E-3
66.208076E-3
66.180038E-3
66.162300E-3
66.162872E-3
65.989494E-3
65.904808E-3
65.673065E-3
65.823555E-3
65.600967E-3
65.307426E-3
65.263939E-3
65.001297E-3
64.948082E-3
64.835358E-3
64.615631E-3
64.604187E-3
64.267731E-3
64.423370E-3
64.294052E-3
64.329529E-3
64.343262E-3
64.330101E-3
64.308929E-3
64.242554E-3
64.175034E-3
64.443398E-3
64.265442E-3
64.157867E-3
64.138985E-3
64.006233E-3
64.072037E-3
63.993073E-3
63.978195E-3
63.958740E-3
63.473511E-3
63.797951E-3
63.760757E-3
63.749313E-3
63.720703E-3
63.672066E-3
63.751030E-3
63.571358E-3
63.555908E-3
63.463211E-3
63.431740E-3
63.444901E-3
63.313293E-3
63.311577E-3
63.292122E-3
63.173103E-3
63.202286E-3
63.052940E-3
62.839508E-3
62.898445E-3
62.862396E-3
62.870407E-3
62.753677E-3
62.788582E-3
62.657547E-3
62.607193E-3
62.626648E-3
62.751389E-3
62.591743E-3
62.481308E-3
62.586021E-3
62.936211E-3
63.294983E-3
63.986778E-3
64.872551E-3
65.611839E-3
66.690445E-3
67.310143E-3
67.836571E-3
68.235397E-3
68.329811E-3
68.457985E-3
68.204498E-3
67.943001E-3
67.748451E-3
67.378235E-3
67.103577E-3
66.899300E-3
66.787720E-3
66.660690E-3
66.507339E-3
66.519356E-3
66.563416E-3
66.514778E-3
66.541100E-3
66.531372E-3
66.573143E-3
66.410065E-3
66.168022E-3
66.026115E-3
65.750313E-3
65.967751E-3
65.744019E-3
65.681076E-3
65.795517E-3
65.762901E-3
65.942001E-3
65.906525E-3
65.949440E-3
65.976334E-3
66.210365E-3
66.102219E-3
65.908813E-3
65.859032E-3
65.808105E-3
65.521431E-3
65.483665E-3
65.271950E-3
65.138054E-3
65.209007E-3
64.885139E-3
64.793587E-3
64.617348E-3
64.609909E-3
64.430237E-3
64.345551E-3
64.406204E-3
64.278603E-3
64.374161E-3
64.288330E-3
64.225388E-3
64.229393E-3
64.069748E-3
63.988495E-3
64.030266E-3
63.864899E-3
63.985062E-3
64.080048E-3
63.914680E-3
63.922691E-3
63.871765E-3
63.903809E-3
63.805389E-3
63.762474E-3
63.752747E-3
63.628578E-3
63.554764E-3
63.523293E-3
63.402557E-3
63.456917E-3
63.367081E-3
63.414001E-3
63.280106E-3
63.249779E-3
63.201714E-3
62.905884E-3
63.064957E-3
63.064957E-3
63.070107E-3
63.060379E-3
62.988281E-3
62.975693E-3
62.883568E-3
62.854385E-3
62.925911E-3
62.725067E-3
62.707901E-3
62.619209E-3
62.462425E-3
62.529373E-3
62.370872E-3
62.486458E-3
62.420082E-3
62.201500E-3
62.652969E-3
63.219452E-3
63.978767E-3
64.774704E-3
65.639877E-3
66.581154E-3
67.210579E-3
67.845154E-3
68.357849E-3
68.420792E-3
68.423080E-3
68.230247E-3
68.042564E-3
67.719269E-3
67.393684E-3
67.162514E-3
66.841507E-3
66.539955E-3
66.519928E-3
66.467857E-3
66.624641E-3
66.536522E-3
66.577721E-3
66.552544E-3
66.507339E-3
66.483879E-3
66.325951E-3
66.216660E-3
65.984344E-3
65.882492E-3
65.819550E-3
65.748596E-3
65.786362E-3
65.789223E-3
65.812683E-3
65.864182E-3
65.888786E-3
66.065025E-3
65.986061E-3
66.022110E-3
66.094780E-3
65.924263E-3
66.082764E-3
65.848732E-3
65.714264E-3
65.558052E-3
65.376091E-3
65.269089E-3
65.060234E-3
64.878273E-3
64.825058E-3
64.541245E-3
64.558411E-3
64.477730E-3
64.483452E-3
64.508057E-3
64.361000E-3
64.392471E-3
64.252281E-3
64.199066E-3
64.599609E-3
64.342690E-3
64.245415E-3
64.145851E-3
64.072037E-3
64.092064E-3
64.010239E-3
64.084053E-3
63.971329E-3
63.936996E-3
63.991928E-3
63.828850E-3
63.872910E-3
63.783646E-3
63.732719E-3
63.791656E-3
63.646317E-3
63.670921E-3
63.799667E-3
63.629723E-3
63.681221E-3
63.471222E-3
63.511848E-3
63.446617E-3
63.351059E-3
63.408852E-3
63.344765E-3
62.944221E-3
63.087273E-3
63.048935E-3
63.115311E-3
63.037491E-3
63.082695E-3
63.017464E-3
62.937355E-3
62.920761E-3
62.755966E-3
62.795448E-3
62.738228E-3
62.686729E-3
62.703896E-3
62.649536E-3
62.957954E-3
63.295555E-3
63.908386E-3
64.470291E-3
65.476799E-3
66.411209E-3
67.080688E-3
67.687225E-3
68.108368E-3
68.193054E-3
68.202209E-3
68.052864E-3
67.910957E-3
67.660904E-3
67.249489E-3
66.989136E-3
66.699028E-3
66.450119E-3
66.408348E-3
66.170883E-3
66.206360E-3
66.461563E-3
66.238976E-3
66.210365E-3
66.105652E-3
66.078758E-3
65.937424E-3
65.741158E-3
65.690231E-3
65.492249E-3
65.450478E-3
65.438461E-3
65.493965E-3
65.597534E-3
65.717697E-3
65.774918E-3
65.899658E-3
65.904808E-3
65.994644E-3
65.674782E-3
65.901947E-3
65.868759E-3
65.734291E-3
65.691376E-3
65.453911E-3
65.361214E-3
65.166092E-3
65.000153E-3
64.811325E-3
64.759254E-3
64.720917E-3
64.635658E-3
64.528084E-3
64.566994E-3
64.413643E-3
64.574432E-3
64.386749E-3
64.240837E-3
64.253998E-3
64.082909E-3
64.171600E-3
64.151001E-3
64.060593E-3
64.128685E-3
63.959312E-3
63.995934E-3
63.980484E-3
63.897514E-3
63.966751E-3
63.837433E-3
63.830566E-3
63.783646E-3
63.696671E-3
64.131546E-3
63.840294E-3
63.742447E-3
63.666916E-3
63.566208E-3
63.568497E-3
63.473511E-3
63.467216E-3
63.384247E-3
63.428307E-3
63.420296E-3
63.271523E-3
63.304710E-3
63.269234E-3
63.148499E-3
63.190842E-3
62.967110E-3
62.983704E-3
62.582016E-3
62.622070E-3
62.707901E-3
62.656403E-3
62.703323E-3
62.664413E-3
62.707901E-3
62.904739E-3
63.206863E-3
63.824844E-3
64.534950E-3
65.260506E-3
66.162300E-3
66.757965E-3
67.568207E-3
68.012238E-3
68.298340E-3
68.436813E-3
68.011093E-3
68.013954E-3
67.743874E-3
67.459488E-3
67.304420E-3
66.962814E-3
66.831779E-3
66.664696E-3
66.516495E-3
66.469574E-3
66.367722E-3
66.268158E-3
66.351700E-3
66.444397E-3
66.420364E-3
66.230965E-3
66.159439E-3
65.946007E-3
65.820694E-3
65.661621E-3
65.558624E-3
65.645599E-3
65.689087E-3
65.705109E-3
65.898514E-3
65.855598E-3
66.023254E-3
66.205788E-3
66.034698E-3
66.091919E-3
65.877914E-3
65.877914E-3
65.810966E-3
65.597534E-3
65.489388E-3
65.274811E-3
65.146637E-3
64.976120E-3
64.853668E-3
64.859390E-3
64.709473E-3
64.556122E-3
64.536095E-3
64.369011E-3
64.431381E-3
64.693451E-3
64.434814E-3
64.308357E-3
64.179039E-3
64.218521E-3
64.129829E-3
64.140701E-3
64.101219E-3
64.050293E-3
64.134407E-3
63.981056E-3
64.014816E-3
64.001083E-3
63.979340E-3
64.012527E-3
63.916397E-3
63.879204E-3
63.876343E-3
64.011955E-3
63.897514E-3
63.681221E-3
63.647461E-3
63.598824E-3
63.531303E-3
63.542747E-3
63.441467E-3
63.459206E-3
63.168526E-3
63.207436E-3
63.347626E-3
63.253784E-3
63.264084E-3
63.242340E-3
63.100433E-3
63.253212E-3
63.106728E-3
63.047218E-3
62.939644E-3
62.852097E-3
62.830353E-3
62.742233E-3
62.710762E-3
62.590027E-3
62.541962E-3
62.703896E-3
62.814903E-3
63.272667E-3
63.896942E-3
64.599609E-3
65.526009E-3
66.416359E-3
67.227173E-3
68.122673E-3
68.327522E-3
68.725204E-3
68.760109E-3
68.714905E-3
68.535805E-3
68.178749E-3
67.949295E-3
67.631149E-3
66.959381E-3
67.153358E-3
66.929626E-3
67.048073E-3
66.933060E-3
66.911316E-3
66.994858E-3
66.986275E-3
67.093849E-3
66.794586E-3
66.790581E-3
66.710472E-3
66.480446E-3
66.371727E-3
66.146851E-3
66.050148E-3
66.143417E-3
66.097641E-3
66.120529E-3
66.217232E-3
66.286469E-3
66.417503E-3
66.303062E-3
66.423225E-3
66.331673E-3
66.288757E-3
66.303062E-3
66.193199E-3
66.103935E-3
65.903091E-3
65.773773E-3
65.670776E-3
65.425873E-3
65.381813E-3
65.167809E-3
65.120316E-3
65.187263E-3
64.950943E-3
64.893723E-3
64.743233E-3
64.767265E-3
64.777565E-3
64.732361E-3
64.721489E-3
64.610481E-3
64.332962E-3
64.502907E-3
64.413643E-3
64.466286E-3
64.407921E-3
64.457130E-3
64.462852E-3
64.366722E-3
64.383888E-3
63.978767E-3
64.148140E-3
64.278030E-3
64.217377E-3
64.228821E-3
64.117813E-3
64.065170E-3
64.135551E-3
64.026833E-3
63.774490E-3
63.769913E-3
63.841438E-3
63.880348E-3
63.829422E-3
63.755608E-3
63.678932E-3
63.688087E-3
63.735008E-3
63.511276E-3
63.592529E-3
63.515282E-3
63.471794E-3
63.453484E-3
63.327026E-3
63.424301E-3
63.237190E-3
63.242340E-3
62.856674E-3
62.974548E-3
63.066673E-3
63.067818E-3
63.187981E-3
63.495255E-3
63.886642E-3
64.624786E-3
65.405273E-3
66.622925E-3
67.271805E-3
67.837143E-3
