Notes :


2023-11-04 ¿ÀÈÄ 7:18:49
Volts
Ch : LED 2,
590.516281E-3
589.953232E-3
589.625931E-3
589.298058E-3
589.361000E-3
589.659119E-3
590.019608E-3
590.211868E-3
590.215874E-3
590.182686E-3
589.755821E-3
588.904381E-3
587.880135E-3
586.931992E-3
586.158371E-3
585.232544E-3
584.219170E-3
583.367729E-3
582.462502E-3
581.661987E-3
580.903244E-3
580.178261E-3
579.548836E-3
578.991508E-3
578.618431E-3
578.174973E-3
577.574158E-3
577.017403E-3
576.549911E-3
576.196861E-3
575.600052E-3
575.205803E-3
574.873924E-3
574.654198E-3
574.362373E-3
574.099731E-3
573.896599E-3
573.749542E-3
573.592186E-3
573.439407E-3
573.350143E-3
573.258018E-3
573.077202E-3
572.884369E-3
572.800255E-3
572.552490E-3
572.172546E-3
571.972847E-3
571.817780E-3
571.611214E-3
571.331978E-3
571.164322E-3
571.187210E-3
571.088219E-3
571.023560E-3
570.941162E-3
570.978928E-3
570.984650E-3
570.965767E-3
570.905113E-3
570.803261E-3
570.706558E-3
570.510864E-3
570.173264E-3
570.007896E-3
569.737244E-3
569.400787E-3
569.129562E-3
569.032288E-3
569.031715E-3
569.009399E-3
568.984795E-3
569.218826E-3
569.769859E-3
571.301079E-3
573.995018E-3
577.423096E-3
581.332397E-3
585.268021E-3
588.797951E-3
591.493607E-3
593.207932E-3
593.846512E-3
593.550682E-3
592.547035E-3
591.149712E-3
589.443398E-3
587.788582E-3
586.088562E-3
584.604263E-3
583.505630E-3
582.632446E-3
582.152367E-3
582.005882E-3
582.159805E-3
582.409286E-3
582.678223E-3
583.004379E-3
583.043289E-3
582.618713E-3
581.729507E-3
580.732155E-3
580.012321E-3
579.416656E-3
579.180908E-3
579.257011E-3
579.503632E-3
580.039787E-3
580.583954E-3
581.154442E-3
581.620789E-3
581.881714E-3
581.998444E-3
581.922340E-3
581.698608E-3
581.438828E-3
581.023407E-3
580.554199E-3
580.088425E-3
579.608917E-3
579.180336E-3
578.785515E-3
578.430176E-3
578.034782E-3
577.627945E-3
577.242851E-3
577.007103E-3
576.735306E-3
576.448059E-3
576.175690E-3
576.081276E-3
575.963974E-3
575.748253E-3
575.415802E-3
575.241280E-3
575.156021E-3
574.984932E-3
574.742317E-3
574.600983E-3
574.506569E-3
574.309731E-3
574.330902E-3
574.337196E-3
574.290276E-3
574.225616E-3
574.132347E-3
573.905754E-3
573.873138E-3
573.619652E-3
573.459435E-3
573.448563E-3
573.357582E-3
573.439980E-3
573.260880E-3
573.053169E-3
573.018837E-3
572.837448E-3
572.613716E-3
572.377968E-3
572.153091E-3
571.898460E-3
571.660995E-3
571.337700E-3
571.039581E-3
570.711136E-3
570.459938E-3
570.374680E-3
570.268250E-3
570.324898E-3
570.505142E-3
570.735168E-3
571.556854E-3
573.290634E-3
576.112175E-3
579.842949E-3
583.941078E-3
588.276100E-3
592.156219E-3
595.163727E-3
597.122955E-3
598.005867E-3
597.954369E-3
597.068024E-3
595.675278E-3
594.146347E-3
592.345047E-3
590.859032E-3
589.591026E-3
588.471222E-3
587.782860E-3
587.554550E-3
587.523651E-3
587.710762E-3
587.928200E-3
588.278961E-3
588.490105E-3
588.419151E-3
588.086700E-3
587.288475E-3
586.182976E-3
585.103798E-3
584.121895E-3
583.334541E-3
582.891083E-3
582.824135E-3
582.932281E-3
583.143997E-3
583.531380E-3
583.815765E-3
584.173393E-3
584.473228E-3
584.414291E-3
584.278679E-3
584.081268E-3
583.866119E-3
583.466721E-3
583.039856E-3
582.602119E-3
582.072830E-3
581.538963E-3
581.025124E-3
580.633163E-3
580.252647E-3
579.896164E-3
579.706764E-3
579.402924E-3
579.249001E-3
579.051590E-3
578.833580E-3
578.767776E-3
578.555489E-3
578.335190E-3
578.216171E-3
577.978134E-3
577.812195E-3
577.617645E-3
577.475739E-3
577.365875E-3
577.349854E-3
577.323532E-3
577.181625E-3
577.084351E-3
576.964188E-3
576.797104E-3
576.668358E-3
576.523590E-3
576.272964E-3
576.121330E-3
575.939369E-3
575.845528E-3
575.678444E-3
575.442123E-3
575.343704E-3
575.173187E-3
574.999237E-3
574.863052E-3
574.845314E-3
574.820137E-3
574.550056E-3
574.542618E-3
574.515152E-3
574.441338E-3
574.396706E-3
574.275398E-3
573.998451E-3
573.692322E-3
573.385620E-3
573.169327E-3
572.887230E-3
572.636032E-3
572.399712E-3
572.522163E-3
572.582245E-3
572.625732E-3
573.440552E-3
575.231552E-3
578.015327E-3
581.664276E-3
585.760117E-3
590.166664E-3
594.036484E-3
597.147560E-3
599.169731E-3
599.994278E-3
599.948502E-3
599.042702E-3
597.755814E-3
596.193123E-3
594.430733E-3
593.023109E-3
591.450691E-3
590.257645E-3
589.495468E-3
589.049721E-3
589.007378E-3
588.998222E-3
589.307213E-3
589.712334E-3
590.098572E-3
590.135765E-3
589.843369E-3
589.163589E-3
588.030052E-3
586.538315E-3
585.296059E-3
584.318161E-3
583.459854E-3
582.986641E-3
582.886505E-3
583.097076E-3
583.381462E-3
583.677864E-3
583.947372E-3
584.103584E-3
584.138489E-3
583.939934E-3
583.677292E-3
583.378601E-3
582.816696E-3
582.397270E-3
581.815910E-3
581.196213E-3
580.613136E-3
580.099297E-3
579.544258E-3
579.142570E-3
578.843880E-3
578.426743E-3
578.084564E-3
577.868271E-3
577.536964E-3
577.288628E-3
577.163315E-3
576.920700E-3
576.802826E-3
576.721573E-3
576.569366E-3
576.579666E-3
576.387405E-3
576.271248E-3
576.089287E-3
576.053238E-3
575.967407E-3
575.903893E-3
575.787735E-3
575.800323E-3
575.660133E-3
575.543976E-3
575.365448E-3
575.264168E-3
575.111961E-3
574.899673E-3
574.669647E-3
574.436188E-3
574.287987E-3
574.158096E-3
573.851395E-3
573.686028E-3
573.639679E-3
573.593330E-3
573.534966E-3
573.430252E-3
573.320961E-3
573.102951E-3
572.887802E-3
572.771072E-3
572.498131E-3
572.162819E-3
571.931648E-3
571.654701E-3
571.313667E-3
570.986366E-3
570.812988E-3
570.795250E-3
570.759201E-3
570.667076E-3
570.624733E-3
571.114540E-3
572.400856E-3
574.747467E-3
577.975273E-3
581.955528E-3
586.122322E-3
590.087700E-3
593.310928E-3
595.585442E-3
596.722412E-3
596.837425E-3
595.984268E-3
594.763184E-3
593.210220E-3
591.547394E-3
589.920044E-3
588.347626E-3
587.194061E-3
586.387253E-3
585.812759E-3
585.680008E-3
585.699463E-3
585.825348E-3
586.116600E-3
586.434174E-3
586.458206E-3
586.006165E-3
585.162735E-3
584.254074E-3
583.447838E-3
582.828712E-3
582.496834E-3
582.528305E-3
582.877922E-3
583.238983E-3
583.828926E-3
584.263802E-3
584.687233E-3
584.822845E-3
585.036278E-3
584.929848E-3
584.642029E-3
584.398270E-3
583.981705E-3
583.569145E-3
583.084488E-3
582.647896E-3
582.221031E-3
581.643677E-3
581.070328E-3
580.574226E-3
580.064964E-3
579.655266E-3
579.392052E-3
579.033852E-3
578.726578E-3
578.514290E-3
578.348923E-3
578.194427E-3
577.958679E-3
577.674866E-3
577.472305E-3
577.122116E-3
576.933289E-3
576.611137E-3
576.474380E-3
576.337624E-3
576.198006E-3
576.058388E-3
575.966263E-3
575.926781E-3
575.943375E-3
575.694466E-3
575.441551E-3
575.240707E-3
575.086784E-3
574.901962E-3
574.725151E-3
574.591255E-3
574.535179E-3
574.484253E-3
574.369240E-3
574.275398E-3
574.282265E-3
574.186707E-3
574.000740E-3
573.788452E-3
573.637390E-3
573.330116E-3
573.010254E-3
572.655487E-3
572.435188E-3
572.224045E-3
572.248650E-3
572.316742E-3
572.438049E-3
572.650337E-3
573.040009E-3
573.810196E-3
575.441551E-3
578.248215E-3
581.886292E-3
586.161804E-3
590.532303E-3
594.667053E-3
598.172951E-3
600.544167E-3
601.825905E-3
602.109718E-3
601.553535E-3
600.409698E-3
598.868752E-3
597.044563E-3
595.354271E-3
593.865395E-3
592.601395E-3
591.730499E-3
591.230392E-3
591.142273E-3
591.155434E-3
591.513634E-3
591.830063E-3
592.109871E-3
592.294121E-3
592.103577E-3
591.504478E-3
590.347481E-3
589.183617E-3
588.101578E-3
587.153435E-3
586.647606E-3
586.292839E-3
586.312294E-3
586.571503E-3
587.080765E-3
587.461281E-3
587.639236E-3
587.886429E-3
588.030624E-3
587.940788E-3
587.792587E-3
587.523079E-3
587.134552E-3
586.707115E-3
586.302567E-3
585.770416E-3
585.154152E-3
584.695816E-3
584.222603E-3
583.873558E-3
583.356857E-3
582.987213E-3
582.698250E-3
582.432747E-3
581.994438E-3
581.767273E-3
581.488609E-3
581.333542E-3
581.193352E-3
581.045151E-3
580.904388E-3
580.759621E-3
580.518723E-3
580.438042E-3
580.217171E-3
580.187988E-3
580.076981E-3
580.047226E-3
580.081558E-3
579.936790E-3
579.893875E-3
579.798317E-3
579.753113E-3
579.670143E-3
579.599190E-3
579.505348E-3
579.273033E-3
579.112816E-3
578.931427E-3
578.692818E-3
578.620720E-3
578.535461E-3
578.600121E-3
578.495979E-3
578.410721E-3
578.323174E-3
578.359222E-3
578.244209E-3
578.018761E-3
577.844810E-3
577.782440E-3
577.440262E-3
577.222252E-3
577.009964E-3
576.818275E-3
576.573944E-3
576.361084E-3
576.339340E-3
576.433754E-3
576.466942E-3
576.887512E-3
578.128052E-3
580.434608E-3
583.791161E-3
587.875557E-3
592.472076E-3
596.791077E-3
600.684357E-3
603.525925E-3
605.194473E-3
605.861664E-3
605.499458E-3
604.480934E-3
603.002930E-3
601.352692E-3
599.636078E-3
598.029327E-3
596.715546E-3
595.638657E-3
595.004654E-3
594.673920E-3
594.645882E-3
594.733429E-3
594.973755E-3
595.256424E-3
595.631790E-3
595.543098E-3
595.018387E-3
593.985558E-3
592.790794E-3
591.619492E-3
590.544319E-3
589.762688E-3
589.171028E-3
588.851166E-3
588.939285E-3
589.181900E-3
589.577866E-3
589.948082E-3
590.055656E-3
590.110588E-3
589.975548E-3
589.840508E-3
589.589310E-3
589.227104E-3
588.854027E-3
588.303566E-3
587.616920E-3
586.998940E-3
586.299706E-3
585.766983E-3
585.075188E-3
584.520149E-3
583.924484E-3
583.402634E-3
583.051872E-3
582.618141E-3
582.158089E-3
581.736946E-3
581.314659E-3
581.109810E-3
580.665207E-3
580.322456E-3
580.012894E-3
579.652977E-3
579.384613E-3
579.101944E-3
578.863335E-3
578.641891E-3
578.536034E-3
578.489113E-3
578.243065E-3
578.148651E-3
578.043938E-3
577.872276E-3
577.637672E-3
577.340698E-3
577.219963E-3
577.120399E-3
577.005386E-3
576.779938E-3
576.559639E-3
576.505852E-3
576.392555E-3
576.270103E-3
576.235771E-3
576.133919E-3
576.026344E-3
575.959969E-3
575.737953E-3
575.617218E-3
575.371170E-3
575.154877E-3
574.897385E-3
574.686241E-3
574.377251E-3
574.115181E-3
574.115181E-3
573.984146E-3
573.867989E-3
573.785591E-3
573.794174E-3
574.269104E-3
575.622368E-3
577.959251E-3
581.247711E-3
585.135841E-3
589.451408E-3
593.597031E-3
596.916962E-3
599.497604E-3
600.825691E-3
600.970459E-3
600.426292E-3
599.333954E-3
597.917175E-3
596.236610E-3
594.647598E-3
593.124390E-3
591.828918E-3
590.875053E-3
590.159225E-3
589.791870E-3
589.730072E-3
589.863968E-3
590.139771E-3
590.416718E-3
590.389252E-3
590.027618E-3
589.109802E-3
588.145638E-3
587.324524E-3
586.673927E-3
586.354637E-3
586.308861E-3
586.458206E-3
586.911964E-3
587.439537E-3
587.929344E-3
588.228035E-3
588.368225E-3
588.599396E-3
588.550758E-3
588.208580E-3
587.820053E-3
587.426376E-3
586.797523E-3
586.128616E-3
585.522079E-3
584.934998E-3
584.518433E-3
583.997726E-3
583.513069E-3
583.113098E-3
582.598114E-3
582.247925E-3
582.004738E-3
581.729507E-3
581.530380E-3
581.223106E-3
580.955887E-3
580.668640E-3
580.434608E-3
580.226898E-3
579.980850E-3
579.853821E-3
579.673576E-3
579.500198E-3
579.366302E-3
579.261589E-3
579.305077E-3
579.147148E-3
579.103661E-3
578.970337E-3
578.864479E-3
578.838730E-3
578.664780E-3
578.635597E-3
578.574371E-3
578.550339E-3
578.620148E-3
578.489113E-3
578.502846E-3
578.484535E-3
578.272247E-3
578.172112E-3
578.060532E-3
577.993584E-3
577.779007E-3
577.634239E-3
577.393341E-3
577.132416E-3
576.905251E-3
576.742172E-3
576.448631E-3
576.424026E-3
576.413155E-3
576.389122E-3
576.627731E-3
577.080345E-3
578.580666E-3
581.086349E-3
584.515572E-3
588.640594E-3
593.224525E-3
597.654533E-3
601.318932E-3
604.197693E-3
605.817604E-3
606.329155E-3
605.856514E-3
604.748726E-3
603.246689E-3
601.471138E-3
599.713326E-3
598.115730E-3
596.781349E-3
595.930481E-3
595.303345E-3
594.808960E-3
594.685936E-3
594.832420E-3
595.046997E-3
595.272446E-3
595.421791E-3
595.355988E-3
594.761467E-3
593.860817E-3
592.679787E-3
591.489029E-3
590.619850E-3
589.986992E-3
589.643097E-3
589.482880E-3
589.544678E-3
589.807320E-3
590.068817E-3
590.459633E-3
590.611839E-3
590.730286E-3
590.806961E-3
590.673065E-3
590.464211E-3
590.341187E-3
589.879417E-3
589.384460E-3
588.863754E-3
588.364792E-3
587.827492E-3
587.256432E-3
586.788368E-3
586.407280E-3
586.045647E-3
585.815048E-3
585.633659E-3
585.345268E-3
585.165596E-3
584.891510E-3
584.682083E-3
584.453773E-3
584.236908E-3
584.070969E-3
583.915329E-3
583.708191E-3
583.594322E-3
583.483315E-3
583.345413E-3
583.265877E-3
583.306503E-3
583.114815E-3
582.977486E-3
582.957458E-3
582.895088E-3
582.714844E-3
582.459068E-3
582.320595E-3
582.036209E-3
581.758690E-3
581.711769E-3
581.639099E-3
581.442833E-3
581.299210E-3
581.141281E-3
580.977631E-3
580.699539E-3
580.676079E-3
580.537605E-3
580.383682E-3
580.119896E-3
579.979706E-3
579.782867E-3
579.540825E-3
579.331970E-3
579.163742E-3
578.795815E-3
578.538322E-3
578.267670E-3
578.068542E-3
578.177834E-3
578.220177E-3
578.508568E-3
579.544258E-3
581.842804E-3
585.107803E-3
589.001656E-3
593.515205E-3
598.039055E-3
601.879120E-3
605.030251E-3
607.011223E-3
607.766533E-3
607.507896E-3
606.733704E-3
605.371284E-3
603.575706E-3
601.800156E-3
600.183678E-3
598.668480E-3
597.465706E-3
596.713257E-3
596.359634E-3
596.213150E-3
596.197128E-3
596.375084E-3
596.605110E-3
596.905518E-3
596.775055E-3
596.397400E-3
595.517349E-3
594.273949E-3
592.959023E-3
591.747665E-3
590.970039E-3
590.432739E-3
590.222168E-3
590.394974E-3
590.629005E-3
590.912819E-3
591.252708E-3
591.439247E-3
591.596603E-3
591.735649E-3
591.605759E-3
591.361427E-3
591.061020E-3
590.664482E-3
590.166092E-3
589.575577E-3
589.078331E-3
588.565636E-3
588.068962E-3
587.631226E-3
587.281609E-3
586.959457E-3
586.700821E-3
586.402130E-3
586.015892E-3
585.745239E-3
585.490036E-3
585.218239E-3
584.963036E-3
584.746742E-3
584.496689E-3
584.431458E-3
584.170532E-3
584.171104E-3
584.071541E-3
583.972549E-3
583.760262E-3
583.659554E-3
583.692169E-3
583.495331E-3
583.238983E-3
583.099937E-3
582.928276E-3
582.846451E-3
582.706261E-3
582.440758E-3
582.393265E-3
582.215881E-3
582.065964E-3
582.023621E-3
581.806755E-3
581.716919E-3
581.544113E-3
581.343842E-3
581.147575E-3
580.957031E-3
580.844307E-3
580.659485E-3
580.351639E-3
580.146217E-3
579.784584E-3
579.575729E-3
579.172897E-3
578.815269E-3
578.667641E-3
578.694534E-3
578.672791E-3
578.495979E-3
578.643036E-3
579.158592E-3
580.644035E-3
583.234406E-3
586.687088E-3
590.778923E-3
595.090485E-3
598.956871E-3
602.172661E-3
604.542732E-3
605.639648E-3
605.739212E-3
604.991341E-3
603.771973E-3
602.159500E-3
600.292397E-3
598.538589E-3
596.903229E-3
595.649529E-3
594.708252E-3
594.095993E-3
593.691444E-3
593.496323E-3
593.694878E-3
593.688011E-3
593.822479E-3
593.732071E-3
592.906952E-3
591.836357E-3
590.697098E-3
589.897728E-3
589.164734E-3
588.697815E-3
588.583374E-3
588.859749E-3
589.351273E-3
589.782143E-3
590.214157E-3
590.645027E-3
590.730286E-3
590.752029E-3
590.562057E-3
590.229607E-3
589.808464E-3
589.340401E-3
588.773918E-3
588.268089E-3
