Notes :


2023-11-04 ¿ÀÈÄ 7:26:02
Volts
Ch : LED 2,
340.704918E-3
340.659142E-3
340.562439E-3
340.447998E-3
340.415382E-3
340.318680E-3
340.292358E-3
340.157890E-3
340.085220E-3
340.054893E-3
339.946747E-3
339.923859E-3
339.780807E-3
339.719009E-3
339.677811E-3
339.582825E-3
339.526749E-3
339.365959E-3
339.099312E-3
339.097023E-3
339.067268E-3
339.023209E-3
338.921928E-3
339.036369E-3
339.022064E-3
338.970566E-3
338.897324E-3
338.749123E-3
338.493347E-3
338.232422E-3
337.915993E-3
337.693405E-3
337.307739E-3
336.959839E-3
336.649132E-3
336.372757E-3
336.159897E-3
335.869789E-3
335.891533E-3
335.976791E-3
336.172485E-3
336.335564E-3
336.556435E-3
337.447929E-3
339.027214E-3
341.535187E-3
344.935799E-3
348.716354E-3
352.748680E-3
356.401062E-3
359.203148E-3
361.050797E-3
361.550903E-3
361.159515E-3
360.086632E-3
358.426666E-3
356.789017E-3
354.934502E-3
353.447342E-3
352.165031E-3
351.219177E-3
350.749969E-3
350.604630E-3
350.551414E-3
351.053238E-3
351.621437E-3
352.105522E-3
352.506065E-3
352.726936E-3
352.352715E-3
351.465225E-3
350.288200E-3
348.954391E-3
347.963905E-3
347.311592E-3
346.865273E-3
346.792030E-3
346.992302E-3
347.354507E-3
347.817421E-3
348.006821E-3
348.309517E-3
348.344994E-3
348.428535E-3
348.396492E-3
348.077202E-3
347.844887E-3
347.411156E-3
347.043800E-3
346.572304E-3
346.014404E-3
345.587540E-3
345.064545E-3
344.552994E-3
344.333839E-3
344.057465E-3
343.790245E-3
343.525314E-3
343.234634E-3
343.123627E-3
342.921638E-3
342.775726E-3
342.593765E-3
342.536545E-3
342.400932E-3
342.189789E-3
341.920853E-3
341.968346E-3
341.726303E-3
341.679382E-3
341.531754E-3
341.581535E-3
341.406441E-3
341.342926E-3
341.239357E-3
341.121483E-3
340.981293E-3
340.806770E-3
340.583611E-3
340.458870E-3
340.246010E-3
340.157318E-3
339.976501E-3
339.779091E-3
339.806557E-3
339.526176E-3
339.398003E-3
339.199448E-3
339.071846E-3
338.933945E-3
338.750267E-3
338.550568E-3
338.233566E-3
337.853622E-3
337.607002E-3
337.228203E-3
337.025070E-3
336.746407E-3
336.505508E-3
336.495209E-3
336.470032E-3
336.554718E-3
336.692619E-3
337.267685E-3
338.593483E-3
340.839386E-3
343.961906E-3
347.598267E-3
351.513863E-3
355.424309E-3
358.234406E-3
360.106087E-3
360.627365E-3
360.210228E-3
359.074402E-3
357.366371E-3
355.535316E-3
353.687096E-3
352.046585E-3
350.674438E-3
349.726295E-3
349.152946E-3
348.965263E-3
349.051666E-3
349.404716E-3
349.919128E-3
350.349426E-3
350.815201E-3
350.790024E-3
350.431824E-3
349.469376E-3
348.229408E-3
346.920776E-3
345.791817E-3
345.033646E-3
344.555855E-3
344.641113E-3
344.784737E-3
345.009613E-3
345.505714E-3
345.786667E-3
346.082497E-3
346.053886E-3
345.916557E-3
345.767784E-3
345.635033E-3
345.134354E-3
344.709206E-3
344.326973E-3
343.824577E-3
343.254089E-3
342.841530E-3
342.523384E-3
342.016411E-3
341.776085E-3
341.425323E-3
341.264534E-3
340.857697E-3
340.551567E-3
340.315247E-3
340.105820E-3
339.879227E-3
339.685822E-3
339.521599E-3
339.328766E-3
339.156532E-3
339.048386E-3
338.868713E-3
338.782883E-3
338.697052E-3
338.389778E-3
338.412094E-3
338.336563E-3
338.106537E-3
337.989807E-3
337.698555E-3
337.641907E-3
337.435341E-3
337.272263E-3
336.907768E-3
336.880875E-3
336.746979E-3
336.683464E-3
336.580467E-3
336.522102E-3
336.327553E-3
336.134148E-3
335.994530E-3
335.804558E-3
335.606575E-3
335.375404E-3
335.177994E-3
334.838104E-3
334.470749E-3
334.333420E-3
334.066772E-3
333.885956E-3
333.795547E-3
333.917999E-3
333.964348E-3
334.028435E-3
334.110260E-3
334.675026E-3
335.931587E-3
338.198662E-3
341.147804E-3
344.780731E-3
348.462296E-3
352.051163E-3
354.940224E-3
356.739807E-3
357.480812E-3
357.015038E-3
355.891800E-3
354.360008E-3
352.601624E-3
350.806046E-3
349.110603E-3
347.854614E-3
346.898460E-3
346.281052E-3
346.044159E-3
346.131134E-3
346.421814E-3
346.927071E-3
347.061539E-3
347.252083E-3
347.105026E-3
346.357727E-3
345.338058E-3
344.279480E-3
343.532181E-3
343.068123E-3
342.953682E-3
343.201447E-3
343.742752E-3
344.352150E-3
344.832802E-3
345.238495E-3
345.545197E-3
345.317459E-3
345.359802E-3
345.191574E-3
344.819069E-3
344.395638E-3
343.989372E-3
343.612289E-3
343.173409E-3
342.725945E-3
342.553711E-3
342.144585E-3
341.831017E-3
341.595840E-3
341.313171E-3
341.172981E-3
340.991592E-3
340.866280E-3
340.717506E-3
340.686607E-3
340.568733E-3
340.320396E-3
340.302086E-3
340.148735E-3
339.968491E-3
340.023994E-3
339.931297E-3
339.825439E-3
339.668655E-3
339.537621E-3
339.439774E-3
339.360237E-3
339.299011E-3
339.280128E-3
339.181137E-3
339.083290E-3
338.946533E-3
338.636398E-3
338.714218E-3
338.702202E-3
338.687897E-3
338.532257E-3
338.521385E-3
338.481903E-3
338.355446E-3
338.279343E-3
338.228416E-3
338.025856E-3
337.841034E-3
337.525177E-3
337.254524E-3
336.947250E-3
336.549568E-3
336.305237E-3
336.163902E-3
336.026573E-3
336.265182E-3
336.455154E-3
336.739540E-3
337.206459E-3
338.649559E-3
340.870285E-3
343.962479E-3
347.685814E-3
351.763916E-3
355.658340E-3
358.823776E-3
360.788727E-3
361.721420E-3
361.456490E-3
360.528374E-3
359.219170E-3
357.276535E-3
355.447769E-3
353.775215E-3
352.484894E-3
351.448059E-3
350.854111E-3
350.673866E-3
350.800323E-3
351.086426E-3
351.561356E-3
352.103806E-3
352.602768E-3
352.756691E-3
352.658844E-3
351.926994E-3
350.774574E-3
349.477386E-3
348.382187E-3
347.504997E-3
347.017479E-3
346.713066E-3
346.949387E-3
347.184563E-3
347.563362E-3
347.818565E-3
348.105240E-3
348.338127E-3
348.366737E-3
348.274040E-3
348.023987E-3
347.747612E-3
347.397423E-3
346.946526E-3
346.509361E-3
346.055031E-3
345.638466E-3
345.225906E-3
344.775009E-3
344.464874E-3
344.266891E-3
343.994522E-3
343.818855E-3
343.486404E-3
343.452644E-3
343.389130E-3
343.074417E-3
342.994308E-3
342.938805E-3
342.786026E-3
342.699051E-3
342.467308E-3
342.387199E-3
342.279625E-3
342.229271E-3
342.189789E-3
341.990662E-3
342.000389E-3
341.854477E-3
341.802406E-3
341.650200E-3
341.320038E-3
341.261101E-3
341.035080E-3
340.940666E-3
340.723801E-3
340.575600E-3
340.510941E-3
340.239716E-3
340.254021E-3
340.037155E-3
339.940453E-3
339.954758E-3
339.821434E-3
339.631462E-3
339.384842E-3
339.244080E-3
339.119911E-3
338.722801E-3
338.378906E-3
338.089943E-3
337.827873E-3
337.583542E-3
337.324905E-3
337.307739E-3
337.288284E-3
337.367249E-3
337.525177E-3
338.112259E-3
339.518738E-3
341.749191E-3
344.911766E-3
348.573303E-3
352.458000E-3
356.149864E-3
358.906746E-3
360.610771E-3
361.056519E-3
360.584450E-3
359.404564E-3
357.820129E-3
355.962753E-3
354.019547E-3
352.341270E-3
351.062393E-3
350.091362E-3
349.580383E-3
349.340630E-3
349.451637E-3
349.720001E-3
350.272751E-3
350.675583E-3
351.037216E-3
351.194572E-3
350.868416E-3
349.989510E-3
348.875999E-3
347.811699E-3
346.592903E-3
345.866776E-3
345.474243E-3
345.364380E-3
345.593834E-3
345.934296E-3
346.492767E-3
346.638107E-3
346.845245E-3
346.971703E-3
346.894455E-3
346.729088E-3
346.536255E-3
346.101379E-3
345.766640E-3
345.249939E-3
344.816780E-3
344.422531E-3
343.937874E-3
343.425751E-3
342.980003E-3
342.686462E-3
342.434120E-3
342.055321E-3
341.863632E-3
341.613007E-3
341.392708E-3
341.072845E-3
340.865707E-3
340.800476E-3
340.504074E-3
340.406799E-3
340.188217E-3
340.010262E-3
339.973640E-3
339.696121E-3
339.648056E-3
339.645195E-3
339.472389E-3
339.348793E-3
339.202881E-3
339.081573E-3
339.022636E-3
338.766289E-3
338.551712E-3
338.350868E-3
338.097954E-3
337.941742E-3
337.701416E-3
337.572098E-3
337.429047E-3
337.154961E-3
337.132645E-3
337.021637E-3
336.923790E-3
336.763000E-3
336.581039E-3
336.466599E-3
336.068344E-3
335.916138E-3
335.636902E-3
335.394859E-3
335.209465E-3
334.892464E-3
334.726524E-3
334.703636E-3
334.703636E-3
334.628677E-3
334.728241E-3
334.799767E-3
335.087013E-3
336.094093E-3
337.929726E-3
340.706062E-3
344.300652E-3
347.954750E-3
351.667213E-3
354.615784E-3
356.608772E-3
357.457352E-3
357.326889E-3
356.284332E-3
354.765701E-3
352.892303E-3
351.162529E-3
349.481964E-3
348.094368E-3
347.017479E-3
346.368027E-3
346.081924E-3
346.044731E-3
346.341133E-3
346.840668E-3
347.071838E-3
347.380257E-3
347.388268E-3
346.825790E-3
345.980644E-3
344.952965E-3
344.130707E-3
343.646622E-3
343.624878E-3
343.702126E-3
344.048309E-3
344.693184E-3
345.204163E-3
345.649338E-3
345.980072E-3
345.933723E-3
345.996666E-3
345.783234E-3
345.460510E-3
345.076561E-3
344.567299E-3
344.198227E-3
343.871498E-3
343.356514E-3
343.158531E-3
342.767715E-3
342.380905E-3
342.137718E-3
341.972351E-3
341.901970E-3
341.663361E-3
341.572380E-3
341.439629E-3
341.352654E-3
341.250801E-3
341.084290E-3
340.968132E-3
340.841675E-3
340.640831E-3
340.518951E-3
340.391922E-3
340.341568E-3
340.161324E-3
340.086937E-3
340.196228E-3
339.977646E-3
339.813423E-3
339.725876E-3
339.609146E-3
339.601707E-3
339.470100E-3
339.407730E-3
339.339638E-3
339.206314E-3
339.171410E-3
339.091301E-3
339.032936E-3
338.895035E-3
338.785172E-3
338.716507E-3
338.507080E-3
338.357735E-3
338.275337E-3
337.809563E-3
337.510300E-3
337.126350E-3
336.861420E-3
336.637688E-3
336.559868E-3
336.688042E-3
336.749268E-3
336.893463E-3
337.194443E-3
338.008690E-3
339.653778E-3
342.075920E-3
345.466805E-3
349.272537E-3
353.336334E-3
356.848526E-3
359.497261E-3
361.061096E-3
361.467361E-3
360.956955E-3
359.757614E-3
358.133698E-3
356.315231E-3
354.794884E-3
353.184700E-3
352.015114E-3
351.215172E-3
350.752258E-3
350.670433E-3
350.838089E-3
351.305580E-3
351.718712E-3
352.404213E-3
352.740097E-3
352.665710E-3
352.329826E-3
351.396561E-3
350.230980E-3
348.948669E-3
348.078918E-3
347.500992E-3
347.165108E-3
347.118759E-3
347.363663E-3
347.645760E-3
347.958755E-3
348.169327E-3
348.494339E-3
348.597908E-3
348.526382E-3
348.357010E-3
348.219109E-3
347.966766E-3
347.471237E-3
347.050095E-3
346.719933E-3
346.214676E-3
345.700264E-3
345.415878E-3
344.986153E-3
344.871712E-3
344.517517E-3
344.398499E-3
344.336128E-3
344.072342E-3
343.949890E-3
343.759918E-3
343.750763E-3
343.750763E-3
343.408012E-3
343.345642E-3
343.242073E-3
343.113327E-3
343.000031E-3
342.882729E-3
342.915916E-3
342.683029E-3
342.597771E-3
342.551422E-3
342.417526E-3
342.366028E-3
342.163467E-3
342.095947E-3
341.963196E-3
341.891670E-3
341.724014E-3
341.556931E-3
341.474533E-3
341.385269E-3
341.208458E-3
341.245079E-3
341.038513E-3
340.881157E-3
341.080856E-3
340.805626E-3
340.712357E-3
340.447998E-3
340.192223E-3
340.025139E-3
339.727020E-3
339.318466E-3
339.018631E-3
338.713074E-3
338.687897E-3
338.492203E-3
338.623810E-3
338.800621E-3
338.885880E-3
339.138794E-3
340.025139E-3
341.905403E-3
344.677734E-3
347.867775E-3
351.710701E-3
355.458641E-3
358.784866E-3
361.225319E-3
362.417221E-3
362.682152E-3
361.980057E-3
360.757256E-3
358.992004E-3
357.180977E-3
355.447769E-3
353.972054E-3
352.897453E-3
352.274323E-3
351.813126E-3
351.898384E-3
351.951599E-3
352.560425E-3
352.985001E-3
353.499985E-3
353.816414E-3
353.663635E-3
353.137779E-3
352.037430E-3
350.826073E-3
349.631882E-3
348.462296E-3
347.884369E-3
347.507286E-3
347.286415E-3
347.468948E-3
347.855759E-3
348.168755E-3
348.172760E-3
348.296928E-3
348.573875E-3
348.435974E-3
348.023415E-3
347.750473E-3
347.538757E-3
347.064400E-3
346.331406E-3
345.889091E-3
345.580101E-3
345.045090E-3
344.506073E-3
344.119835E-3
343.834877E-3
343.472672E-3
343.055534E-3
342.803764E-3
342.673874E-3
342.403793E-3
342.012405E-3
341.814995E-3
341.752052E-3
341.506577E-3
341.271973E-3
341.139793E-3
341.157532E-3
340.928650E-3
340.688324E-3
340.581894E-3
340.552139E-3
340.367317E-3
340.114975E-3
339.914131E-3
339.852905E-3
339.490128E-3
339.408875E-3
339.295006E-3
339.132500E-3
339.028931E-3
338.834381E-3
338.685036E-3
338.791466E-3
338.600349E-3
338.238716E-3
338.306808E-3
338.231850E-3
338.200378E-3
337.891960E-3
337.692833E-3
337.573814E-3
337.281990E-3
336.914062E-3
336.646843E-3
336.424255E-3
336.122704E-3
335.879517E-3
335.756493E-3
335.822868E-3
335.987091E-3
335.911560E-3
335.925293E-3
336.200523E-3
337.266541E-3
339.074135E-3
341.696548E-3
345.164680E-3
348.953819E-3
352.331543E-3
355.311584E-3
357.247925E-3
358.216095E-3
357.956314E-3
356.902313E-3
355.602264E-3
353.898239E-3
352.226830E-3
350.691605E-3
349.388123E-3
348.401070E-3
347.759628E-3
347.491837E-3
347.640610E-3
347.774506E-3
348.258018E-3
348.628807E-3
348.971558E-3
348.785591E-3
348.311234E-3
347.417450E-3
346.356010E-3
345.354652E-3
344.837379E-3
344.570732E-3
344.727516E-3
345.057106E-3
345.474243E-3
346.206093E-3
346.652412E-3
346.852684E-3
346.980286E-3
347.065544E-3
346.861267E-3
346.398354E-3
345.917702E-3
345.516014E-3
345.132065E-3
344.657135E-3
344.206810E-3
344.046593E-3
343.671799E-3
343.195724E-3
342.984581E-3
342.889595E-3
342.848969E-3
342.499924E-3
342.213249E-3
342.375755E-3
342.202950E-3
342.113686E-3
341.960907E-3
341.901398E-3
341.864777E-3
341.659355E-3
341.635895E-3
341.672516E-3
341.457939E-3
341.412163E-3
341.350937E-3
341.301155E-3
341.218185E-3
341.052818E-3
340.901184E-3
340.901756E-3
340.781021E-3
340.821075E-3
340.847969E-3
340.794182E-3
340.552139E-3
340.674019E-3
340.603065E-3
340.283775E-3
340.162468E-3
340.175056E-3
339.991951E-3
339.584541E-3
339.179993E-3
339.141655E-3
338.721657E-3
338.255310E-3
338.017273E-3
338.016129E-3
338.000107E-3
337.804985E-3
338.052750E-3
338.322830E-3
338.652420E-3
339.429474E-3
341.279411E-3
344.084358E-3
347.392845E-3
351.009178E-3
354.906464E-3
358.308792E-3
360.661697E-3
361.855888E-3
362.247849E-3
361.801529E-3
360.432816E-3
358.789444E-3
357.159233E-3
355.651474E-3
354.226685E-3
353.105736E-3
352.574158E-3
352.193069E-3
352.269173E-3
352.542686E-3
353.038788E-3
353.683090E-3
354.142570E-3
354.270172E-3
354.156303E-3
353.601265E-3
352.848816E-3
351.403999E-3
350.179482E-3
349.647331E-3
349.065399E-3
348.880005E-3
348.991585E-3
349.441338E-3
349.823570E-3
350.107384E-3
350.352287E-3
350.673866E-3
350.696182E-3
350.521088E-3
350.234985E-3
350.147438E-3
349.654770E-3
349.086571E-3
348.734665E-3
348.322678E-3
347.848892E-3
347.304153E-3
347.012901E-3
346.880722E-3
346.535110E-3
346.159744E-3
345.994377E-3
346.033287E-3
345.716858E-3
345.335770E-3
345.142365E-3
345.257950E-3
344.912338E-3
344.706345E-3
344.619370E-3
344.492340E-3
344.629669E-3
344.303513E-3
344.235420E-3
344.157028E-3
343.955040E-3
343.836021E-3
343.585396E-3
343.600845E-3
343.387413E-3
343.165970E-3
343.062973E-3
342.911339E-3
342.708778E-3
342.519951E-3
342.430687E-3
342.403793E-3
342.050743E-3
342.008400E-3
342.110252E-3
341.958046E-3
341.769218E-3
341.560936E-3
341.652489E-3
341.532898E-3
341.086006E-3
340.985870E-3
340.869141E-3
340.759850E-3
340.342140E-3
340.102959E-3
340.278625E-3
340.466881E-3
340.471458E-3
