Notes :


2023-11-10 ¿ÀÈÄ 11:45:47
Volts
Ch : LED 2,
822.437096E-3
822.045708E-3
821.830559E-3
821.709824E-3
821.579361E-3
821.470070E-3
821.255493E-3
821.096992E-3
820.938492E-3
820.539665E-3
820.411491E-3
820.255852E-3
820.040703E-3
819.925117E-3
819.792938E-3
819.784355E-3
819.633865E-3
819.653893E-3
819.580650E-3
819.308853E-3
819.289398E-3
819.078827E-3
818.698311E-3
818.703461E-3
818.369865E-3
818.322945E-3
818.182182E-3
817.863464E-3
817.528152E-3
816.943932E-3
816.748238E-3
816.412926E-3
816.013527E-3
815.629578E-3
815.215874E-3
815.016174E-3
814.394188E-3
814.126968E-3
813.541031E-3
812.958527E-3
812.738800E-3
812.749100E-3
812.931061E-3
813.153648E-3
813.642311E-3
815.323448E-3
817.873764E-3
821.533585E-3
825.989342E-3
830.836487E-3
835.106277E-3
838.859940E-3
841.556168E-3
843.378067E-3
843.946838E-3
843.507957E-3
842.252541E-3
840.811157E-3
839.129448E-3
837.443733E-3
836.096764E-3
834.632492E-3
833.651161E-3
832.907295E-3
832.309341E-3
832.097626E-3
831.970596E-3
831.845856E-3
831.659317E-3
830.886841E-3
830.022812E-3
828.627205E-3
827.493668E-3
826.629639E-3
826.060295E-3
825.989914E-3
826.338959E-3
826.836205E-3
827.546310E-3
828.174019E-3
828.884697E-3
829.362488E-3
829.498100E-3
829.657173E-3
828.841209E-3
828.382301E-3
827.605247E-3
826.882553E-3
826.163864E-3
825.381660E-3
824.509048E-3
823.699379E-3
823.072243E-3
822.451973E-3
821.694946E-3
821.160507E-3
820.592880E-3
820.204353E-3
820.005226E-3
819.601822E-3
819.316292E-3
818.698883E-3
818.575859E-3
818.389893E-3
818.012810E-3
817.916679E-3
817.643738E-3
817.566490E-3
817.500687E-3
817.208290E-3
817.240334E-3
817.257500E-3
817.242622E-3
817.325592E-3
817.056084E-3
817.248917E-3
817.251778E-3
817.082405E-3
817.161369E-3
817.072678E-3
817.193985E-3
816.979408E-3
816.803169E-3
816.699028E-3
816.427803E-3
816.184616E-3
816.031837E-3
815.467644E-3
814.887428E-3
814.508629E-3
814.222527E-3
813.922119E-3
813.453484E-3
813.354492E-3
813.046074E-3
813.087273E-3
813.231468E-3
813.499832E-3
814.814186E-3
817.194557E-3
820.650673E-3
824.718475E-3
829.013443E-3
833.399963E-3
837.416840E-3
840.247536E-3
841.979027E-3
842.630768E-3
842.507172E-3
841.448021E-3
840.042686E-3
838.222504E-3
836.495018E-3
835.233879E-3
833.569908E-3
832.419205E-3
831.519699E-3
830.902863E-3
830.674553E-3
830.361557E-3
830.312920E-3
829.955864E-3
829.389381E-3
828.374863E-3
827.181816E-3
825.942421E-3
824.902725E-3
824.103355E-3
823.930550E-3
823.959732E-3
824.361992E-3
824.933052E-3
825.666046E-3
826.341820E-3
826.789856E-3
827.376366E-3
827.207565E-3
826.959229E-3
826.564407E-3
825.884628E-3
825.606537E-3
824.566269E-3
823.800087E-3
823.120308E-3
822.306633E-3
821.501541E-3
820.911598E-3
820.266151E-3
819.962311E-3
819.556618E-3
819.139481E-3
818.786430E-3
818.507767E-3
818.406487E-3
817.985344E-3
817.835426E-3
817.584229E-3
817.282104E-3
817.474937E-3
816.840363E-3
816.652107E-3
816.522217E-3
816.234398E-3
816.054153E-3
815.865898E-3
815.675354E-3
815.523148E-3
815.638733E-3
815.389252E-3
815.100288E-3
814.998436E-3
814.854240E-3
814.668274E-3
814.693451E-3
814.559555E-3
814.353561E-3
814.132690E-3
813.947296E-3
813.847160E-3
813.559341E-3
813.410568E-3
813.035202E-3
812.556267E-3
812.233543E-3
811.772346E-3
811.189842E-3
810.722923E-3
810.214233E-3
809.766197E-3
809.361649E-3
809.369659E-3
809.492111E-3
810.326958E-3
811.922264E-3
814.556694E-3
818.449402E-3
823.037910E-3
827.886772E-3
832.763672E-3
836.936188E-3
840.355110E-3
842.340088E-3
842.958069E-3
842.911148E-3
841.835976E-3
840.390015E-3
838.572121E-3
836.873245E-3
835.328293E-3
834.031677E-3
832.693863E-3
832.313919E-3
832.009506E-3
832.044983E-3
832.267570E-3
832.384872E-3
832.487297E-3
832.129097E-3
831.580925E-3
830.209923E-3
828.829193E-3
827.526283E-3
826.495743E-3
825.848579E-3
825.421715E-3
825.499535E-3
825.838280E-3
826.257133E-3
826.795578E-3
827.227592E-3
827.596092E-3
827.779770E-3
827.689934E-3
827.524567E-3
826.963234E-3
826.400757E-3
825.761032E-3
825.378227E-3
824.594879E-3
823.530579E-3
822.848511E-3
822.172165E-3
821.462059E-3
820.860672E-3
820.283318E-3
819.908524E-3
819.696236E-3
819.205856E-3
818.973541E-3
818.493462E-3
818.293190E-3
818.026543E-3
817.675781E-3
817.559624E-3
817.254639E-3
817.145348E-3
817.128181E-3
816.804886E-3
816.684151E-3
816.444397E-3
816.197777E-3
816.091347E-3
815.855598E-3
815.864754E-3
815.481949E-3
815.284538E-3
815.335464E-3
814.994431E-3
814.977837E-3
814.896011E-3
814.747238E-3
814.675140E-3
814.304924E-3
814.141846E-3
813.720703E-3
813.502121E-3
813.250923E-3
812.934494E-3
812.479591E-3
811.987495E-3
811.552048E-3
811.096573E-3
810.678291E-3
810.210228E-3
809.757042E-3
809.559059E-3
809.390831E-3
809.434319E-3
809.888649E-3
811.233902E-3
813.380241E-3
816.707611E-3
820.953941E-3
825.677490E-3
830.498314E-3
834.964943E-3
838.643646E-3
840.984535E-3
842.487144E-3
842.448235E-3
841.686058E-3
840.328789E-3
838.605881E-3
836.921310E-3
835.053062E-3
833.484650E-3
832.165718E-3
831.187820E-3
830.596733E-3
830.346680E-3
830.335808E-3
830.199051E-3
829.950714E-3
829.801369E-3
828.881264E-3
827.842712E-3
826.578140E-3
825.437164E-3
824.662971E-3
824.184036E-3
824.234962E-3
824.470711E-3
825.034904E-3
825.801086E-3
826.346970E-3
826.817322E-3
827.249908E-3
827.301407E-3
827.313995E-3
826.956940E-3
826.460838E-3
825.905800E-3
825.202560E-3
824.598885E-3
823.734856E-3
822.976112E-3
822.333527E-3
821.436310E-3
821.065521E-3
820.422363E-3
819.875908E-3
819.724274E-3
819.053078E-3
818.720055E-3
818.486023E-3
818.153000E-3
817.973900E-3
817.534447E-3
817.450333E-3
817.282104E-3
817.030907E-3
816.819191E-3
816.426086E-3
816.289330E-3
816.142273E-3
815.774918E-3
815.742302E-3
815.432739E-3
815.451050E-3
815.102005E-3
815.237617E-3
815.414429E-3
815.374374E-3
815.398407E-3
815.184402E-3
814.913750E-3
814.862251E-3
814.573288E-3
814.299774E-3
814.092064E-3
813.815117E-3
813.627434E-3
813.177109E-3
812.865257E-3
812.432671E-3
811.926270E-3
811.624718E-3
811.156654E-3
810.840225E-3
810.599327E-3
810.652542E-3
811.023331E-3
811.686516E-3
813.461494E-3
816.380310E-3
820.365715E-3
824.893570E-3
829.574776E-3
834.183311E-3
838.171577E-3
841.010284E-3
842.741776E-3
843.341446E-3
842.814445E-3
841.534996E-3
839.595222E-3
837.718964E-3
835.815811E-3
833.928680E-3
832.466125E-3
831.233025E-3
830.465698E-3
829.802513E-3
829.619980E-3
829.717827E-3
829.303551E-3
829.114723E-3
828.163147E-3
827.094841E-3
825.842857E-3
824.647522E-3
823.962593E-3
823.432159E-3
823.220444E-3
823.663902E-3
824.214935E-3
824.990845E-3
825.723839E-3
826.537514E-3
826.866531E-3
827.113152E-3
827.057648E-3
826.619911E-3
826.156425E-3
825.468636E-3
824.743080E-3
824.166870E-3
823.164368E-3
822.427368E-3
821.863174E-3
820.964813E-3
820.149994E-3
819.459343E-3
818.989563E-3
818.600464E-3
818.223953E-3
817.932129E-3
817.656898E-3
817.586517E-3
817.070389E-3
816.843224E-3
816.639519E-3
816.297913E-3
816.059303E-3
815.821266E-3
815.678215E-3
815.614128E-3
815.203857E-3
815.259361E-3
815.139198E-3
815.011597E-3
814.772987E-3
814.492035E-3
814.491463E-3
814.302635E-3
814.094925E-3
814.084625E-3
813.932419E-3
813.774490E-3
813.654900E-3
813.396835E-3
813.371658E-3
813.117599E-3
812.921333E-3
812.767982E-3
812.368584E-3
812.186050E-3
811.682510E-3
811.297417E-3
810.812187E-3
810.338974E-3
810.000801E-3
809.295273E-3
809.041786E-3
809.065247E-3
809.028625E-3
809.407425E-3
810.219955E-3
812.463570E-3
815.807533E-3
820.318222E-3
825.409698E-3
830.554390E-3
835.675049E-3
839.805222E-3
842.955208E-3
844.731903E-3
845.205116E-3
844.648933E-3
843.069649E-3
841.143036E-3
839.201546E-3
837.127304E-3
835.370636E-3
834.003639E-3
833.002853E-3
832.424927E-3
831.971169E-3
832.044983E-3
832.257271E-3
832.213783E-3
832.185745E-3
831.691933E-3
830.974388E-3
829.756165E-3
828.225517E-3
827.064514E-3
826.020241E-3
825.841141E-3
825.622559E-3
825.635719E-3
826.166725E-3
826.602173E-3
827.181244E-3
827.593231E-3
827.897644E-3
828.122520E-3
827.992058E-3
827.855873E-3
827.231598E-3
826.565552E-3
826.032829E-3
825.087547E-3
824.356842E-3
823.415565E-3
822.447395E-3
822.227669E-3
821.240044E-3
820.485306E-3
820.016098E-3
819.661903E-3
819.321442E-3
818.889999E-3
818.647385E-3
818.247986E-3
818.134689E-3
817.757607E-3
817.524719E-3
817.331314E-3
817.103577E-3
816.816902E-3
816.980553E-3
816.704750E-3
816.570854E-3
816.345978E-3
816.309357E-3
816.217232E-3
816.032410E-3
815.920830E-3
815.729141E-3
815.497398E-3
815.444183E-3
815.121460E-3
814.726639E-3
814.770126E-3
814.545822E-3
814.465141E-3
814.149857E-3
813.922119E-3
813.661766E-3
813.397408E-3
813.207436E-3
812.679291E-3
812.438965E-3
811.992645E-3
811.429596E-3
810.999870E-3
810.452271E-3
810.134697E-3
809.640312E-3
809.159088E-3
809.100151E-3
808.956528E-3
809.181976E-3
809.455490E-3
810.498047E-3
812.919617E-3
816.182899E-3
820.783997E-3
825.710678E-3
830.453682E-3
835.262489E-3
839.067078E-3
841.862297E-3
843.340874E-3
843.297958E-3
842.464828E-3
840.895844E-3
838.821602E-3
836.742783E-3
834.706306E-3
832.894135E-3
831.395531E-3
830.164146E-3
829.413414E-3
829.164505E-3
829.075813E-3
828.787422E-3
828.731918E-3
828.452682E-3
827.852440E-3
826.919174E-3
825.684357E-3
824.535370E-3
823.633575E-3
823.127174E-3
823.120308E-3
823.156357E-3
823.838425E-3
824.508476E-3
825.044632E-3
825.722122E-3
826.115227E-3
826.199913E-3
826.234245E-3
825.827408E-3
825.495529E-3
824.906731E-3
824.187469E-3
823.675346E-3
822.985840E-3
822.157860E-3
821.224022E-3
820.583153E-3
819.846153E-3
819.114304E-3
818.669701E-3
818.320084E-3
817.905807E-3
817.604256E-3
817.203140E-3
817.013168E-3
816.610336E-3
816.222954E-3
816.028976E-3
815.674210E-3
815.504265E-3
815.205574E-3
815.152359E-3
815.019035E-3
814.734650E-3
814.772987E-3
814.533806E-3
814.352417E-3
814.304924E-3
814.006805E-3
813.928986E-3
813.770485E-3
813.867760E-3
813.703537E-3
813.427162E-3
813.397408E-3
813.155937E-3
813.056946E-3
812.904739E-3
812.503052E-3
812.472153E-3
812.528801E-3
812.120819E-3
811.877632E-3
811.463356E-3
811.420441E-3
811.168671E-3
810.751534E-3
810.384178E-3
809.851456E-3
809.311867E-3
808.878708E-3
808.469009E-3
808.358002E-3
808.077621E-3
808.247566E-3
808.267593E-3
808.887863E-3
810.395622E-3
813.061523E-3
816.881561E-3
821.388817E-3
826.156998E-3
831.025887E-3
835.051346E-3
838.473701E-3
840.379143E-3
841.183662E-3
840.941620E-3
839.687920E-3
837.878609E-3
835.866737E-3
833.724403E-3
831.829834E-3
829.955864E-3
828.845215E-3
827.733421E-3
826.726913E-3
826.724052E-3
826.417923E-3
826.444817E-3
826.234818E-3
825.758171E-3
824.896431E-3
823.840141E-3
822.964096E-3
822.267151E-3
821.750450E-3
821.714973E-3
821.934128E-3
822.526360E-3
823.308563E-3
824.105072E-3
824.979401E-3
825.278091E-3
825.663757E-3
825.646019E-3
825.464630E-3
825.128746E-3
824.449539E-3
823.812103E-3
822.973251E-3
821.923828E-3
821.416855E-3
820.517921E-3
819.833565E-3
819.150925E-3
818.540382E-3
818.144989E-3
817.661476E-3
817.267799E-3
816.764832E-3
816.443253E-3
816.192627E-3
815.774918E-3
815.637589E-3
815.346336E-3
815.104866E-3
815.013313E-3
814.678574E-3
814.298058E-3
814.217949E-3
814.054298E-3
813.984489E-3
813.593674E-3
813.641739E-3
813.351059E-3
813.269806E-3
813.077545E-3
812.829208E-3
812.774277E-3
812.626648E-3
812.462425E-3
812.409782E-3
812.143707E-3
812.198067E-3
812.061310E-3
811.807823E-3
811.612701E-3
811.249352E-3
811.113167E-3
810.904312E-3
810.610771E-3
810.342407E-3
809.993362E-3
809.671211E-3
809.216309E-3
808.370590E-3
808.108521E-3
807.622719E-3
807.206726E-3
806.799889E-3
806.685448E-3
806.805611E-3
807.304573E-3
808.840942E-3
811.580658E-3
815.492249E-3
820.350266E-3
825.541306E-3
830.638504E-3
835.126877E-3
838.654518E-3
841.422844E-3
842.064857E-3
841.876602E-3
840.705872E-3
838.874245E-3
836.964798E-3
834.845924E-3
833.045197E-3
831.382370E-3
830.069160E-3
829.392815E-3
828.668404E-3
828.467560E-3
828.496742E-3
828.670120E-3
828.687859E-3
828.357124E-3
828.001213E-3
827.162361E-3
825.872612E-3
824.635506E-3
823.535156E-3
822.910881E-3
822.653389E-3
822.764969E-3
823.210144E-3
823.563766E-3
824.029541E-3
824.731064E-3
825.234032E-3
825.609970E-3
825.519562E-3
825.441170E-3
824.943352E-3
824.347115E-3
823.719406E-3
822.814178E-3
822.110367E-3
821.203423E-3
820.409203E-3
819.606972E-3
818.796158E-3
818.149567E-3
817.540741E-3
817.058945E-3
816.857529E-3
816.137123E-3
815.835571E-3
815.509415E-3
815.022469E-3
814.835930E-3
814.445686E-3
814.391899E-3
814.161873E-3
813.690948E-3
813.857460E-3
813.776207E-3
813.762474E-3
813.597679E-3
813.456917E-3
813.375092E-3
813.222885E-3
813.114738E-3
813.139915E-3
812.834358E-3
812.675858E-3
812.582016E-3
812.409210E-3
812.168884E-3
812.016106E-3
811.927986E-3
811.658478E-3
811.474800E-3
811.385536E-3
810.989571E-3
810.849953E-3
810.575867E-3
810.245132E-3
809.991074E-3
809.709549E-3
809.350204E-3
808.788300E-3
808.431816E-3
807.929993E-3
807.427597E-3
807.111740E-3
806.712914E-3
806.659126E-3
806.410789E-3
806.655121E-3
807.723427E-3
809.454346E-3
812.545395E-3
816.755104E-3
821.477509E-3
826.637077E-3
831.345177E-3
835.054779E-3
838.089180E-3
839.633560E-3
840.049553E-3
839.192390E-3
837.947273E-3
836.009789E-3
833.751869E-3
831.785774E-3
829.543877E-3
828.338814E-3
827.138329E-3
826.343536E-3
826.005363E-3
825.844002E-3
825.985336E-3
826.153564E-3
826.039124E-3
825.858307E-3
824.930763E-3
823.894501E-3
822.789574E-3
821.830559E-3
821.384239E-3
821.352768E-3
821.481514E-3
821.938133E-3
822.812462E-3
823.474503E-3
824.031830E-3
824.463272E-3
824.799728E-3
824.801445E-3
824.593163E-3
824.139977E-3
823.716545E-3
823.501396E-3
822.466278E-3
821.711540E-3
820.813751E-3
820.152855E-3
819.366074E-3
818.727493E-3
818.212509E-3
817.520714E-3
817.098999E-3
816.910172E-3
816.471863E-3
816.253853E-3
815.796661E-3
815.629005E-3
815.354347E-3
815.378952E-3
815.065956E-3
814.579582E-3
814.572144E-3
814.311218E-3
814.080048E-3
813.978195E-3
813.759613E-3
813.586807E-3
813.558197E-3
813.365936E-3
813.293266E-3
813.132477E-3
813.238907E-3
813.114738E-3
813.047218E-3
812.971687E-3
812.707901E-3
812.674713E-3
812.443542E-3
812.283897E-3
812.067032E-3
811.700249E-3
811.415863E-3
811.083984E-3
810.615921E-3
810.274315E-3
809.492683E-3
809.338760E-3
808.962250E-3
808.701897E-3
808.403778E-3
808.064461E-3
808.057594E-3
808.135986E-3
808.371735E-3
809.175682E-3
811.165810E-3
814.343834E-3
818.572998E-3
823.219872E-3
828.008080E-3
832.311630E-3
835.962296E-3
838.660240E-3
839.859009E-3
840.038681E-3
839.127159E-3
837.544441E-3
835.763741E-3
833.669472E-3
831.802940E-3
830.029678E-3
828.648949E-3
827.268219E-3
826.722336E-3
