Notes :


2023-10-22 ¿ÀÀü 10:55:37
Volts
Ch : LED 2,
547.783470E-3
547.376633E-3
547.864723E-3
547.904205E-3
548.006058E-3
548.312187E-3
548.254967E-3
548.538780E-3
548.728180E-3
548.748779E-3
548.967361E-3
548.821449E-3
549.048042E-3
549.101257E-3
549.009132E-3
549.133873E-3
549.071503E-3
549.443436E-3
549.418831E-3
549.234009E-3
549.333000E-3
549.276924E-3
549.642563E-3
549.574471E-3
549.502373E-3
549.607658E-3
549.429703E-3
549.678040E-3
549.638557E-3
549.438286E-3
549.653435E-3
549.414253E-3
549.683762E-3
549.701500E-3
549.589348E-3
549.881744E-3
549.583054E-3
549.961853E-3
549.965286E-3
549.770164E-3
550.047684E-3
549.887466E-3
550.136948E-3
550.338936E-3
550.173569E-3
550.426483E-3
550.422478E-3
550.709152E-3
550.776672E-3
550.552940E-3
550.863075E-3
550.631905E-3
550.744057E-3
550.452805E-3
549.918938E-3
549.513817E-3
548.709869E-3
548.193169E-3
547.640991E-3
547.057915E-3
546.759224E-3
546.345520E-3
546.343803E-3
546.288300E-3
546.029091E-3
546.162415E-3
546.001625E-3
546.325493E-3
546.387291E-3
546.225929E-3
546.433640E-3
546.287155E-3
546.555519E-3
546.618462E-3
546.445084E-3
546.596146E-3
546.494865E-3
546.675682E-3
546.881104E-3
546.883965E-3
547.126579E-3
547.112274E-3
547.178078E-3
547.290802E-3
546.782112E-3
546.918869E-3
546.704865E-3
546.841621E-3
546.800423E-3
546.600723E-3
546.876526E-3
546.687126E-3
546.757507E-3
546.952057E-3
546.823311E-3
547.087097E-3
546.920586E-3
547.179222E-3
547.445869E-3
547.350883E-3
547.606659E-3
547.683907E-3
547.809219E-3
547.814941E-3
547.552299E-3
547.993469E-3
548.007202E-3
548.071289E-3
548.200035E-3
547.717667E-3
548.164558E-3
548.194885E-3
548.330498E-3
548.334503E-3
548.203468E-3
548.274422E-3
548.117638E-3
548.311615E-3
548.537636E-3
548.231506E-3
548.418617E-3
548.201752E-3
548.279572E-3
548.480988E-3
548.211479E-3
548.618317E-3
548.516464E-3
548.487282E-3
548.610306E-3
548.041534E-3
548.550797E-3
548.502731E-3
548.652077E-3
548.875237E-3
548.627472E-3
548.894691E-3
548.783684E-3
548.875809E-3
549.070930E-3
548.818588E-3
549.430847E-3
549.366188E-3
549.279785E-3
549.293518E-3
549.003410E-3
549.331284E-3
549.112701E-3
548.821449E-3
548.421478E-3
547.377205E-3
547.089958E-3
546.319199E-3
545.827103E-3
545.653152E-3
544.654655E-3
545.087242E-3
544.964218E-3
544.854927E-3
544.910431E-3
544.666100E-3
545.028305E-3
544.823456E-3
544.793701E-3
545.042610E-3
544.942474E-3
545.314407E-3
545.096397E-3
545.249748E-3
545.423698E-3
545.300674E-3
545.698357E-3
545.597076E-3
545.809937E-3
546.143532E-3
546.023369E-3
546.378708E-3
546.177864E-3
545.997047E-3
546.169853E-3
545.836258E-3
546.089745E-3
545.883751E-3
545.875168E-3
546.110916E-3
545.891762E-3
546.145821E-3
546.013641E-3
546.031380E-3
546.306038E-3
546.331787E-3
546.659088E-3
546.569824E-3
546.640205E-3
546.960640E-3
546.889114E-3
547.291374E-3
547.281075E-3
547.448730E-3
547.626686E-3
547.622108E-3
547.900772E-3
547.828674E-3
547.877312E-3
548.044968E-3
548.032379E-3
548.216057E-3
548.072433E-3
548.126221E-3
548.336220E-3
548.237801E-3
548.612595E-3
548.457527E-3
548.473549E-3
548.589706E-3
548.436928E-3
548.685837E-3
548.588562E-3
548.555946E-3
548.613739E-3
548.581123E-3
548.733902E-3
548.535347E-3
548.604584E-3
548.903847E-3
548.844337E-3
549.145889E-3
549.024010E-3
548.934174E-3
549.147606E-3
549.070930E-3
549.589348E-3
549.439430E-3
549.615097E-3
549.713516E-3
549.703789E-3
549.922371E-3
549.758720E-3
549.664879E-3
549.568748E-3
548.999977E-3
548.547363E-3
547.916222E-3
547.127724E-3
546.665955E-3
545.909500E-3
545.932388E-3
545.469475E-3
545.199394E-3
545.276642E-3
544.879532E-3
545.038033E-3
544.937897E-3
544.896126E-3
545.084953E-3
544.542503E-3
545.204544E-3
545.428276E-3
545.332146E-3
545.512962E-3
545.502663E-3
545.866585E-3
545.899773E-3
545.891762E-3
546.055412E-3
546.179581E-3
546.689415E-3
546.547508E-3
546.456528E-3
546.667671E-3
546.296883E-3
546.514893E-3
546.522331E-3
546.324348E-3
546.469688E-3
546.238518E-3
546.431351E-3
546.287155E-3
546.255684E-3
546.520615E-3
546.336937E-3
546.689415E-3
546.699715E-3
546.860504E-3
547.191238E-3
547.093964E-3
547.472191E-3
547.495651E-3
547.618675E-3
547.939110E-3
547.949982E-3
548.161125E-3
548.265266E-3
548.173141E-3
548.310471E-3
548.319054E-3
548.430061E-3
548.499870E-3
548.501587E-3
548.723602E-3
548.396873E-3
548.650932E-3
548.725891E-3
548.497009E-3
548.709869E-3
548.544502E-3
548.876953E-3
548.948479E-3
548.930740E-3
548.985100E-3
548.834038E-3
548.969650E-3
549.096680E-3
549.033737E-3
549.144745E-3
548.961639E-3
549.311256E-3
549.284363E-3
549.212265E-3
549.412537E-3
549.326706E-3
549.808502E-3
549.737549E-3
549.519539E-3
549.902344E-3
549.836540E-3
550.082016E-3
550.183296E-3
550.025940E-3
550.155830E-3
549.782181E-3
549.655151E-3
549.220848E-3
548.118210E-3
547.525978E-3
546.715736E-3
546.491432E-3
545.864868E-3
545.278931E-3
545.343018E-3
545.056915E-3
545.139885E-3
545.117569E-3
545.021439E-3
545.190239E-3
545.202255E-3
545.313835E-3
545.415688E-3
545.292091E-3
545.430565E-3
545.397377E-3
545.565033E-3
545.671463E-3
545.448875E-3
545.624542E-3
545.768166E-3
546.149254E-3
546.229362E-3
546.053696E-3
546.251678E-3
546.045685E-3
546.093178E-3
546.014786E-3
545.742416E-3
545.829391E-3
545.657730E-3
545.695496E-3
545.848846E-3
545.708656E-3
545.991898E-3
545.832253E-3
545.999908E-3
546.136093E-3
546.052551E-3
546.322632E-3
546.212196E-3
546.518326E-3
546.512032E-3
546.192169E-3
546.774673E-3
546.771812E-3
547.032738E-3
547.289085E-3
547.026443E-3
547.288513E-3
547.073364E-3
547.254753E-3
547.281647E-3
547.143745E-3
547.324562E-3
547.190666E-3
547.330284E-3
547.370338E-3
547.198677E-3
547.458458E-3
547.361183E-3
547.393799E-3
547.503662E-3
547.180939E-3
547.377205E-3
547.252464E-3
547.218704E-3
547.308540E-3
547.155190E-3
547.452736E-3
547.235298E-3
547.430420E-3
547.487068E-3
547.324562E-3
547.533989E-3
547.360039E-3
547.607803E-3
547.762299E-3
547.491074E-3
547.864151E-3
547.805214E-3
547.944260E-3
548.083878E-3
547.880173E-3
548.304176E-3
548.081017E-3
548.142242E-3
548.005486E-3
547.251320E-3
547.100830E-3
546.225929E-3
545.645142E-3
544.981956E-3
544.321632E-3
544.229507E-3
543.865585E-3
543.708801E-3
543.826103E-3
543.452454E-3
543.648720E-3
543.303108E-3
543.373489E-3
543.469048E-3
542.984390E-3
543.554306E-3
543.744850E-3
543.887329E-3
544.135094E-3
544.037819E-3
544.373703E-3
544.273567E-3
544.328499E-3
544.813728E-3
544.939613E-3
545.454597E-3
545.184517E-3
545.044327E-3
544.962502E-3
544.614029E-3
544.931602E-3
544.757080E-3
544.742203E-3
544.763374E-3
544.569397E-3
544.988251E-3
544.799423E-3
544.829178E-3
545.104980E-3
544.708443E-3
545.424271E-3
545.411110E-3
545.483208E-3
545.997620E-3
545.825958E-3
546.256828E-3
546.143532E-3
546.211624E-3
546.534920E-3
546.532631E-3
546.927452E-3
546.731758E-3
546.699142E-3
547.027588E-3
546.985245E-3
547.278214E-3
546.992111E-3
547.039604E-3
547.215843E-3
547.053909E-3
547.465897E-3
547.344589E-3
547.283936E-3
547.371483E-3
547.134018E-3
547.432709E-3
547.274208E-3
547.285080E-3
547.434425E-3
547.216988E-3
547.637558E-3
547.400093E-3
547.495079E-3
547.623253E-3
547.495079E-3
547.759438E-3
547.751999E-3
547.810364E-3
548.098755E-3
548.104477E-3
548.345947E-3
548.122215E-3
548.196602E-3
548.390007E-3
548.301888E-3
548.408890E-3
548.093033E-3
547.880745E-3
547.311974E-3
545.924377E-3
545.751572E-3
545.112991E-3
544.627762E-3
544.277000E-3
544.008064E-3
544.072151E-3
543.977165E-3
543.700218E-3
543.735695E-3
543.615532E-3
543.872452E-3
543.937683E-3
543.719101E-3
543.952560E-3
543.950844E-3
544.383430E-3
544.401169E-3
544.305611E-3
544.420624E-3
544.433784E-3
544.654655E-3
544.628334E-3
544.825745E-3
545.264626E-3
545.278358E-3
545.555305E-3
545.325851E-3
545.280075E-3
545.363617E-3
545.095825E-3
545.177078E-3
545.072937E-3
544.966507E-3
545.135307E-3
544.968796E-3
545.218849E-3
545.274353E-3
545.138168E-3
545.505524E-3
545.511818E-3
545.884323E-3
545.837975E-3
545.919800E-3
546.146965E-3
546.058273E-3
546.482849E-3
546.454811E-3
546.575546E-3
546.861649E-3
546.218491E-3
546.886253E-3
546.790695E-3
546.909714E-3
547.128296E-3
546.800995E-3
547.100258E-3
547.106552E-3
547.115135E-3
547.293091E-3
547.167206E-3
547.437859E-3
547.344589E-3
547.314835E-3
547.587204E-3
547.352600E-3
547.650146E-3
547.412109E-3
547.416115E-3
547.523689E-3
547.404099E-3
547.559166E-3
547.594643E-3
547.517967E-3
547.382927E-3
547.434998E-3
547.752571E-3
547.964287E-3
547.711372E-3
548.051262E-3
547.922516E-3
548.142242E-3
548.258400E-3
548.202324E-3
548.428345E-3
547.986603E-3
547.687340E-3
547.076797E-3
546.211052E-3
545.733261E-3
544.988823E-3
544.639206E-3
544.116783E-3
543.857002E-3
543.900490E-3
543.499947E-3
543.481636E-3
543.455887E-3
543.328857E-3
543.415260E-3
543.217850E-3
543.554306E-3
543.595505E-3
543.412971E-3
543.653297E-3
543.552017E-3
543.795204E-3
543.937111E-3
543.867302E-3
544.003487E-3
543.899918E-3
544.295311E-3
544.481277E-3
544.325066E-3
544.309044E-3
544.193459E-3
544.528198E-3
544.575691E-3
544.410324E-3
544.555092E-3
544.382858E-3
544.506454E-3
544.376564E-3
544.109344E-3
544.156265E-3
544.088173E-3
544.370842E-3
544.357681E-3
544.339943E-3
544.721031E-3
544.589996E-3
544.860649E-3
545.086670E-3
544.811440E-3
545.239449E-3
545.249748E-3
545.484924E-3
545.447159E-3
545.122147E-3
545.586205E-3
545.380211E-3
545.519829E-3
545.554161E-3
545.514679E-3
545.725822E-3
545.506096E-3
545.858574E-3
545.751572E-3
545.395660E-3
545.411682E-3
545.222282E-3
545.469475E-3
545.526123E-3
545.452881E-3
545.690346E-3
545.511818E-3
545.517540E-3
545.561600E-3
545.327568E-3
545.483780E-3
545.251465E-3
545.401955E-3
545.471764E-3
545.242882E-3
545.337296E-3
545.550728E-3
545.785904E-3
545.910072E-3
545.838547E-3
546.051407E-3
545.836258E-3
546.055412E-3
546.003342E-3
545.851135E-3
545.858002E-3
545.349884E-3
544.965363E-3
544.422913E-3
543.495369E-3
543.182945E-3
542.517471E-3
542.107201E-3
541.814232E-3
541.411400E-3
541.256905E-3
541.244316E-3
541.350174E-3
541.481781E-3
541.297531E-3
541.539574E-3
541.512680E-3
541.551018E-3
541.660881E-3
541.557312E-3
541.945267E-3
541.848564E-3
541.988754E-3
542.150116E-3
542.079735E-3
542.477989E-3
542.658806E-3
542.837906E-3
542.950058E-3
542.765808E-3
543.022728E-3
542.694855E-3
542.659950E-3
542.797852E-3
542.639351E-3
542.990112E-3
542.749214E-3
542.617607E-3
542.619324E-3
542.612457E-3
543.077660E-3
543.046761E-3
543.030167E-3
543.200684E-3
543.198967E-3
543.746567E-3
543.671036E-3
543.786621E-3
544.188881E-3
544.035530E-3
544.572830E-3
544.497299E-3
544.497871E-3
544.874382E-3
544.711304E-3
545.058060E-3
544.929886E-3
544.978523E-3
544.894981E-3
544.876671E-3
545.121574E-3
545.119286E-3
545.127296E-3
545.181656E-3
545.089531E-3
545.455170E-3
545.272636E-3
545.377350E-3
545.438576E-3
545.286942E-3
545.617104E-3
545.359039E-3
545.355606E-3
545.586777E-3
544.991684E-3
545.787621E-3
545.562172E-3
545.730400E-3
545.964432E-3
545.985031E-3
546.437645E-3
546.197891E-3
546.507454E-3
546.602440E-3
546.486282E-3
546.771240E-3
546.336365E-3
546.028519E-3
545.850563E-3
544.971085E-3
544.554520E-3
543.670464E-3
542.948914E-3
542.508316E-3
542.193604E-3
542.167854E-3
541.851425E-3
541.811943E-3
541.913223E-3
541.793060E-3
542.139244E-3
541.969299E-3
542.166710E-3
542.563820E-3
542.382431E-3
542.627335E-3
542.436218E-3
542.634773E-3
542.828751E-3
542.263412E-3
542.914581E-3
543.077660E-3
543.288803E-3
543.788910E-3
543.672752E-3
543.926811E-3
543.711090E-3
543.439865E-3
543.445587E-3
543.316841E-3
543.472481E-3
543.359756E-3
543.361473E-3
543.467331E-3
543.289948E-3
543.766594E-3
543.540001E-3
543.622398E-3
543.943405E-3
543.890190E-3
544.294167E-3
544.169426E-3
544.396019E-3
544.519043E-3
544.508171E-3
544.922447E-3
545.026588E-3
545.147896E-3
545.282936E-3
545.263481E-3
545.606804E-3
545.526695E-3
545.399666E-3
545.570183E-3
545.443153E-3
545.657730E-3
545.569611E-3
545.503807E-3
545.845985E-3
545.679474E-3
546.090889E-3
545.905495E-3
545.733261E-3
545.896912E-3
545.642853E-3
545.968437E-3
545.914650E-3
545.753288E-3
545.976448E-3
545.957565E-3
546.183586E-3
546.248817E-3
546.332359E-3
546.540642E-3
546.438789E-3
546.675110E-3
546.643639E-3
546.663094E-3
546.929741E-3
546.881676E-3
547.178650E-3
547.105980E-3
547.047615E-3
547.176361E-3
546.751785E-3
546.477699E-3
545.735550E-3
544.799995E-3
544.199753E-3
543.360901E-3
543.033600E-3
542.504883E-3
542.182732E-3
542.214775E-3
541.874886E-3
542.167854E-3
542.169571E-3
542.063141E-3
542.360115E-3
542.340660E-3
542.662811E-3
542.724609E-3
542.504883E-3
542.547226E-3
542.468262E-3
542.657661E-3
542.733765E-3
542.798996E-3
543.015289E-3
542.922592E-3
543.385506E-3
543.590355E-3
543.515968E-3
543.570328E-3
543.203545E-3
543.398666E-3
543.252182E-3
543.057060E-3
543.177795E-3
542.830467E-3
542.980957E-3
542.953491E-3
542.852211E-3
543.165779E-3
543.088531E-3
543.281937E-3
543.399239E-3
543.238449E-3
543.535995E-3
543.465042E-3
543.843269E-3
543.980026E-3
543.925667E-3
544.118500E-3
544.075584E-3
544.370270E-3
544.334221E-3
544.234657E-3
544.355965E-3
544.164276E-3
544.571114E-3
544.570541E-3
544.406891E-3
544.528770E-3
544.390297E-3
544.642639E-3
544.707870E-3
544.450951E-3
544.524765E-3
544.408607E-3
544.671249E-3
544.695282E-3
544.466972E-3
544.623184E-3
544.457817E-3
544.722176E-3
544.660378E-3
544.480705E-3
544.646072E-3
544.507027E-3
544.785690E-3
544.912148E-3
544.841194E-3
544.977379E-3
545.027161E-3
545.253181E-3
545.324135E-3
545.302391E-3
545.475197E-3
545.272064E-3
545.391083E-3
545.388222E-3
545.277214E-3
545.316124E-3
544.795418E-3
544.381714E-3
543.792915E-3
542.779541E-3
542.139244E-3
541.288376E-3
541.078949E-3
540.771675E-3
540.386009E-3
540.476418E-3
540.387154E-3
540.491295E-3
540.421486E-3
540.348816E-3
540.600586E-3
540.530777E-3
540.835762E-3
540.986824E-3
540.949631E-3
541.133308E-3
541.114998E-3
541.338158E-3
541.361618E-3
541.282082E-3
541.521835E-3
541.807365E-3
542.114639E-3
542.348099E-3
542.107773E-3
542.295456E-3
541.985321E-3
541.912651E-3
542.041969E-3
541.735268E-3
541.798782E-3
541.639137E-3
541.826248E-3
541.961288E-3
541.871452E-3
542.074585E-3
542.031097E-3
542.296600E-3
542.533493E-3
542.602730E-3
543.029022E-3
543.086243E-3
543.397522E-3
543.591499E-3
543.442154E-3
543.903923E-3
543.732834E-3
543.930244E-3
544.216347E-3
544.019508E-3
544.184303E-3
544.238663E-3
544.404030E-3
544.568253E-3
544.549942E-3
544.647217E-3
544.477272E-3
544.571114E-3
544.587135E-3
544.509888E-3
544.770241E-3
544.690704E-3
544.712448E-3
544.910431E-3
544.384003E-3
544.941330E-3
544.855499E-3
545.095253E-3
545.134163E-3
544.906998E-3
