Notes :


2023-11-04 ¿ÀÈÄ 9:49:53
Volts
Ch : LED 2,
480.677032E-3
480.255890E-3
479.890251E-3
479.422760E-3
479.023361E-3
478.480911E-3
478.116989E-3
477.710724E-3
477.438927E-3
477.243805E-3
477.073860E-3
476.842690E-3
476.673317E-3
476.550293E-3
476.513100E-3
476.321411E-3
476.233864E-3
476.276779E-3
476.098251E-3
476.059914E-3
475.932312E-3
475.762367E-3
475.741768E-3
475.725746E-3
475.677681E-3
475.460815E-3
475.380135E-3
475.287437E-3
475.059700E-3
474.938393E-3
474.881744E-3
474.762726E-3
474.605370E-3
474.409676E-3
474.344444E-3
474.200249E-3
474.106407E-3
474.153900E-3
473.895836E-3
473.743629E-3
473.724174E-3
473.442650E-3
473.453522E-3
473.271561E-3
473.240662E-3
472.912216E-3
472.722816E-3
472.538567E-3
472.229004E-3
471.997261E-3
471.952057E-3
471.688843E-3
471.639633E-3
471.594429E-3
471.997833E-3
472.906494E-3
474.669456E-3
476.999474E-3
479.780960E-3
482.890320E-3
486.035156E-3
488.866997E-3
490.962410E-3
492.236137E-3
492.685890E-3
492.509079E-3
491.714287E-3
490.625381E-3
489.279556E-3
488.107109E-3
487.045670E-3
486.200523E-3
485.592842E-3
485.210609E-3
485.210609E-3
485.079575E-3
485.334778E-3
485.559654E-3
485.694122E-3
485.673523E-3
485.479546E-3
485.022926E-3
484.267044E-3
483.621597E-3
483.272552E-3
482.696342E-3
482.411385E-3
482.343864E-3
482.490349E-3
482.773018E-3
482.920647E-3
483.012199E-3
483.156395E-3
483.231354E-3
483.075142E-3
482.968140E-3
482.608795E-3
482.239723E-3
481.832886E-3
481.466675E-3
480.944252E-3
480.515671E-3
480.130005E-3
479.681969E-3
479.343796E-3
479.045677E-3
478.781319E-3
478.630829E-3
478.401375E-3
478.379059E-3
478.098679E-3
477.790260E-3
477.833176E-3
477.710724E-3
477.747345E-3
477.532768E-3
477.552795E-3
477.420616E-3
477.297592E-3
477.357674E-3
477.237511E-3
477.121925E-3
477.097893E-3
476.945686E-3
476.859856E-3
476.772881E-3
476.659584E-3
476.545715E-3
476.367760E-3
476.424980E-3
476.206398E-3
476.101685E-3
475.993538E-3
475.775528E-3
475.741768E-3
475.631905E-3
475.448799E-3
475.501442E-3
475.201607E-3
475.197029E-3
475.167847E-3
475.028229E-3
474.908638E-3
474.642563E-3
474.536133E-3
474.216843E-3
474.038887E-3
473.842621E-3
473.593712E-3
473.441505E-3
473.325920E-3
473.208046E-3
473.212624E-3
473.230934E-3
473.875237E-3
474.866867E-3
476.842690E-3
479.483414E-3
482.400513E-3
485.500717E-3
488.430405E-3
490.828514E-3
492.608070E-3
493.273544E-3
493.440628E-3
492.849541E-3
491.891098E-3
490.612793E-3
489.190292E-3
487.991524E-3
486.908340E-3
486.007690E-3
485.355377E-3
485.010338E-3
484.938240E-3
484.925652E-3
485.020065E-3
485.225487E-3
485.220337E-3
485.067558E-3
484.586906E-3
484.000397E-3
483.266258E-3
482.620239E-3
482.282639E-3
482.223701E-3
482.167053E-3
482.456017E-3
482.718086E-3
483.105469E-3
483.534622E-3
483.560944E-3
483.583832E-3
483.439064E-3
483.202744E-3
482.841682E-3
482.311249E-3
481.855774E-3
481.244659E-3
480.870438E-3
480.231857E-3
479.737473E-3
479.359818E-3
478.865433E-3
478.504944E-3
478.245735E-3
477.982521E-3
477.852058E-3
477.599716E-3
477.440071E-3
477.301025E-3
477.113914E-3
476.875877E-3
476.841545E-3
476.865578E-3
476.502800E-3
476.523972E-3
476.532555E-3
476.454735E-3
476.418686E-3
476.394653E-3
476.273346E-3
476.286507E-3
476.045609E-3
476.184654E-3
475.903130E-3
475.697708E-3
475.603867E-3
475.453949E-3
475.421906E-3
475.246239E-3
474.943542E-3
474.942398E-3
474.761581E-3
474.642563E-3
474.578476E-3
474.365044E-3
474.274635E-3
474.052620E-3
474.013710E-3
473.812294E-3
473.626328E-3
473.510170E-3
473.121071E-3
472.798920E-3
472.507095E-3
472.281075E-3
472.172356E-3
471.990967E-3
472.014427E-3
472.172928E-3
472.871017E-3
474.319267E-3
476.405525E-3
479.207039E-3
482.219124E-3
485.405731E-3
488.322258E-3
490.656853E-3
492.255592E-3
492.810631E-3
492.840385E-3
492.296791E-3
491.238213E-3
489.983368E-3
488.663292E-3
487.349510E-3
486.352158E-3
485.516739E-3
484.807205E-3
484.650993E-3
484.590340E-3
484.713936E-3
484.853554E-3
485.081863E-3
485.255814E-3
485.038948E-3
484.821510E-3
484.165764E-3
483.385849E-3
482.681465E-3
482.172203E-3
481.876945E-3
481.823730E-3
481.827164E-3
481.875801E-3
482.118988E-3
482.399368E-3
482.518959E-3
482.608223E-3
482.584190E-3
482.360458E-3
482.152748E-3
481.781387E-3
481.289291E-3
480.766296E-3
480.348015E-3
479.795837E-3
479.232216E-3
478.837967E-3
478.381920E-3
478.013992E-3
477.805710E-3
477.381706E-3
477.346230E-3
477.131081E-3
476.841545E-3
476.854134E-3
476.597214E-3
476.539421E-3
476.457024E-3
476.329994E-3
476.424980E-3
476.141739E-3
476.046181E-3
476.053047E-3
475.977516E-3
475.927162E-3
475.827599E-3
475.851059E-3
475.669670E-3
475.450516E-3
475.518608E-3
475.391579E-3
475.315475E-3
475.198746E-3
474.972725E-3
474.895477E-3
474.691200E-3
474.585915E-3
474.427986E-3
474.203110E-3
474.223137E-3
473.987389E-3
473.947906E-3
473.845482E-3
473.708725E-3
473.598862E-3
473.431778E-3
473.121071E-3
473.170853E-3
473.095894E-3
472.945976E-3
472.798347E-3
472.638702E-3
472.402954E-3
471.990395E-3
471.754074E-3
471.629333E-3
471.443367E-3
471.390152E-3
471.345520E-3
471.778107E-3
472.845268E-3
474.801636E-3
477.388573E-3
480.492783E-3
483.786392E-3
486.760712E-3
489.445496E-3
491.417313E-3
492.490196E-3
492.831230E-3
492.367172E-3
491.241646E-3
490.058327E-3
488.640976E-3
487.427330E-3
486.241150E-3
485.419464E-3
484.708786E-3
484.354019E-3
484.255028E-3
484.033585E-3
484.278488E-3
484.543991E-3
484.633827E-3
484.748268E-3
484.513092E-3
484.177208E-3
483.514595E-3
482.973289E-3
482.615089E-3
482.111549E-3
481.800842E-3
481.771660E-3
481.808853E-3
481.950188E-3
482.199669E-3
482.393074E-3
482.426834E-3
482.650566E-3
482.415390E-3
482.092094E-3
481.949615E-3
481.546783E-3
481.111336E-3
480.734253E-3
480.329704E-3
479.869652E-3
479.449081E-3
478.970146E-3
478.629112E-3
478.286362E-3
478.039169E-3
477.756500E-3
477.513885E-3
477.434349E-3
477.141953E-3
477.127647E-3
476.945114E-3
476.751137E-3
476.606941E-3
476.489639E-3
476.389503E-3
476.444435E-3
476.371193E-3
476.350021E-3
475.879669E-3
475.968361E-3
475.966072E-3
475.869942E-3
475.829887E-3
475.691986E-3
475.610733E-3
475.492859E-3
475.306892E-3
475.498581E-3
475.148392E-3
474.904633E-3
474.720383E-3
474.513817E-3
474.474907E-3
474.254608E-3
474.096680E-3
473.983383E-3
473.850060E-3
473.758507E-3
473.601723E-3
473.558807E-3
473.409462E-3
473.248100E-3
473.126221E-3
472.978592E-3
472.875023E-3
472.690201E-3
472.483063E-3
472.376060E-3
472.093391E-3
471.830177E-3
471.704865E-3
471.518898E-3
471.241951E-3
471.256256E-3
471.519470E-3
472.243881E-3
473.650932E-3
476.048470E-3
479.039955E-3
482.011986E-3
485.026360E-3
487.893105E-3
489.891243E-3
491.134071E-3
491.583252E-3
491.265106E-3
490.330696E-3
489.191437E-3
487.794685E-3
486.473465E-3
485.431480E-3
484.065628E-3
483.183861E-3
482.634544E-3
482.221985E-3
482.126427E-3
482.167053E-3
482.385063E-3
482.518387E-3
482.628250E-3
482.371902E-3
481.959343E-3
481.363678E-3
480.689049E-3
480.322266E-3
480.000114E-3
479.925156E-3
480.060196E-3
480.273056E-3
480.417824E-3
480.745697E-3
480.909920E-3
481.117058E-3
481.110191E-3
481.004333E-3
480.895042E-3
480.472755E-3
480.075645E-3
479.534912E-3
478.999329E-3
478.488350E-3
477.923584E-3
477.533340E-3
476.993752E-3
476.646996E-3
476.237297E-3
475.962639E-3
475.739479E-3
475.394440E-3
475.273132E-3
475.065994E-3
474.825668E-3
474.684906E-3
474.631119E-3
474.391365E-3
474.246597E-3
474.080086E-3
474.029160E-3
473.893547E-3
473.801994E-3
473.703003E-3
473.622894E-3
473.486137E-3
473.329926E-3
473.316765E-3
473.212051E-3
472.963142E-3
472.877884E-3
472.780037E-3
472.619820E-3
472.407532E-3
472.051048E-3
472.057343E-3
471.961784E-3
471.784401E-3
471.635628E-3
471.473122E-3
471.380997E-3
471.129799E-3
471.018219E-3
470.842552E-3
470.720673E-3
470.667458E-3
470.579910E-3
470.348167E-3
470.207977E-3
469.916725E-3
469.775963E-3
469.500732E-3
469.458961E-3
469.082451E-3
468.758011E-3
468.691635E-3
468.616104E-3
468.798065E-3
469.569397E-3
471.138382E-3
473.543930E-3
476.399231E-3
479.434204E-3
482.440567E-3
485.050964E-3
487.240219E-3
488.455009E-3
489.007187E-3
488.781166E-3
488.021278E-3
486.885452E-3
485.568810E-3
484.148026E-3
482.953262E-3
481.909561E-3
481.182861E-3
480.547142E-3
480.347443E-3
480.245590E-3
480.335426E-3
480.447578E-3
480.544281E-3
480.629539E-3
480.634117E-3
480.313683E-3
479.955482E-3
479.266548E-3
478.714371E-3
478.331566E-3
478.027725E-3
477.979088E-3
478.028870E-3
478.147888E-3
478.372192E-3
478.538704E-3
478.900337E-3
478.864288E-3
478.862000E-3
478.680038E-3
478.443146E-3
478.197670E-3
477.711296E-3
477.348518E-3
476.839828E-3
476.515388E-3
476.030159E-3
475.491714E-3
475.095177E-3
474.747849E-3
474.419403E-3
474.076653E-3
473.816299E-3
473.654366E-3
473.713875E-3
473.375702E-3
473.131371E-3
472.956848E-3
472.880745E-3
472.864723E-3
472.719955E-3
472.659874E-3
472.624397E-3
472.275352E-3
472.424126E-3
472.323990E-3
472.352600E-3
472.148323E-3
472.138023E-3
472.086525E-3
471.887398E-3
471.916008E-3
471.747780E-3
471.642494E-3
471.441078E-3
471.207047E-3
471.199036E-3
471.041107E-3
470.855713E-3
470.723534E-3
470.540428E-3
470.574188E-3
470.383072E-3
470.175934E-3
470.023155E-3
469.833183E-3
469.847488E-3
469.740486E-3
469.706154E-3
469.617462E-3
469.421196E-3
469.290161E-3
469.165421E-3
468.956566E-3
468.803787E-3
468.515968E-3
468.359184E-3
468.180084E-3
467.952347E-3
467.864799E-3
467.819595E-3
468.029022E-3
468.854713E-3
470.475769E-3
472.889328E-3
475.705719E-3
479.074860E-3
482.028580E-3
484.667015E-3
486.795044E-3
487.958336E-3
488.568306E-3
488.234711E-3
487.427902E-3
486.395073E-3
485.154533E-3
483.835602E-3
482.587624E-3
481.576538E-3
480.811501E-3
480.271339E-3
480.072212E-3
479.978371E-3
480.015564E-3
480.152893E-3
480.419540E-3
480.538559E-3
480.590057E-3
480.361176E-3
479.970932E-3
479.278564E-3
478.725243E-3
478.219986E-3
478.075218E-3
478.008842E-3
478.065491E-3
478.207970E-3
478.316689E-3
478.528404E-3
478.789330E-3
478.795624E-3
478.867149E-3
478.823662E-3
478.519821E-3
478.340149E-3
477.878952E-3
477.521324E-3
477.050972E-3
476.613808E-3
476.267624E-3
475.759506E-3
475.733185E-3
475.220490E-3
474.823952E-3
474.657440E-3
474.253464E-3
474.147606E-3
474.031448E-3
473.853493E-3
473.688126E-3
473.554230E-3
473.508453E-3
473.342514E-3
473.299026E-3
473.209763E-3
473.070717E-3
473.141670E-3
472.829247E-3
472.967720E-3
472.912216E-3
472.828102E-3
472.829819E-3
472.687912E-3
472.673035E-3
472.597504E-3
472.409821E-3
472.293663E-3
472.290230E-3
472.176933E-3
472.080803E-3
471.875381E-3
471.881104E-3
471.638489E-3
471.555519E-3
471.466827E-3
471.366692E-3
471.150970E-3
470.975304E-3
470.922089E-3
470.835686E-3
470.741844E-3
470.633125E-3
470.480919E-3
470.349312E-3
470.354462E-3
470.079231E-3
469.908142E-3
469.697571E-3
469.481850E-3
469.348526E-3
469.112778E-3
469.045258E-3
469.091034E-3
469.290733E-3
470.113564E-3
471.731186E-3
474.114990E-3
476.977158E-3
479.957771E-3
482.851410E-3
485.196304E-3
487.018204E-3
487.728882E-3
487.986374E-3
487.615013E-3
486.670303E-3
485.536194E-3
484.126854E-3
482.873154E-3
481.571388E-3
480.574608E-3
479.830170E-3
479.192734E-3
478.838539E-3
478.706932E-3
478.521538E-3
478.786469E-3
478.917503E-3
478.658867E-3
478.697205E-3
478.157616E-3
477.659798E-3
477.131081E-3
476.880455E-3
476.700211E-3
476.808929E-3
476.942825E-3
477.009201E-3
477.413177E-3
477.860641E-3
478.131294E-3
478.292084E-3
478.295517E-3
478.132439E-3
477.976799E-3
477.603149E-3
477.279854E-3
476.695633E-3
476.190376E-3
475.725746E-3
475.176430E-3
474.700928E-3
474.215698E-3
473.799133E-3
473.482132E-3
473.148537E-3
472.931099E-3
472.590065E-3
472.382927E-3
472.318840E-3
472.109985E-3
471.948624E-3
471.841621E-3
471.771240E-3
471.604729E-3
471.572113E-3
471.616745E-3
471.430779E-3
471.305466E-3
471.233368E-3
471.034241E-3
471.088028E-3
470.981026E-3
470.749283E-3
470.736694E-3
470.657158E-3
470.613670E-3
470.456314E-3
470.331573E-3
470.273781E-3
470.036888E-3
470.038033E-3
470.051193E-3
469.787979E-3
469.556808E-3
469.402313E-3
469.286728E-3
469.131660E-3
468.942833E-3
468.910217E-3
468.709373E-3
468.529129E-3
468.386078E-3
468.154907E-3
467.967796E-3
467.653084E-3
467.396164E-3
467.247963E-3
466.783333E-3
466.811943E-3
466.892624E-3
467.201042E-3
468.102837E-3
469.785690E-3
472.262192E-3
475.099754E-3
478.188515E-3
481.023788E-3
483.400154E-3
485.319328E-3
486.278343E-3
486.605072E-3
486.324692E-3
485.475540E-3
484.345436E-3
483.051109E-3
481.751060E-3
480.700493E-3
479.690552E-3
478.960991E-3
478.408813E-3
478.116417E-3
478.118134E-3
478.132439E-3
478.261757E-3
478.303528E-3
478.490639E-3
478.391647E-3
478.049469E-3
477.627754E-3
477.042961E-3
476.579475E-3
476.258469E-3
476.099396E-3
476.177788E-3
476.332283E-3
476.656151E-3
476.830673E-3
477.022934E-3
477.121925E-3
477.217484E-3
477.211189E-3
477.111053E-3
476.762009E-3
476.553726E-3
476.143456E-3
475.690269E-3
475.271416E-3
474.728966E-3
474.318695E-3
473.831749E-3
473.544502E-3
473.034668E-3
472.884750E-3
472.743416E-3
472.412109E-3
472.302818E-3
472.132874E-3
471.946907E-3
471.918297E-3
471.778107E-3
471.712875E-3
471.561241E-3
471.485138E-3
471.401024E-3
471.289444E-3
471.283722E-3
471.165848E-3
471.237946E-3
471.152115E-3
470.954132E-3
470.866013E-3
470.837975E-3
470.759010E-3
470.727539E-3
470.518112E-3
470.443153E-3
470.404816E-3
470.247459E-3
470.302963E-3
469.972801E-3
469.883537E-3
469.804001E-3
469.606018E-3
469.429779E-3
469.311905E-3
469.179153E-3
469.182014E-3
469.039536E-3
469.059563E-3
468.836975E-3
468.723106E-3
468.510818E-3
468.278503E-3
468.219566E-3
467.691994E-3
467.595291E-3
467.419624E-3
467.282295E-3
467.388153E-3
467.164993E-3
467.413330E-3
468.093681E-3
469.568253E-3
471.984673E-3
474.732971E-3
477.824593E-3
480.778313E-3
483.389854E-3
485.515022E-3
486.789322E-3
487.320328E-3
487.160110E-3
486.543274E-3
485.393143E-3
484.018707E-3
482.672310E-3
481.468964E-3
480.427551E-3
479.766083E-3
479.174995E-3
478.962708E-3
478.910065E-3
478.917503E-3
479.084015E-3
479.203606E-3
479.384422E-3
479.352379E-3
479.084015E-3
478.943825E-3
478.186798E-3
477.669525E-3
477.331924E-3
477.070999E-3
477.150536E-3
477.168274E-3
477.358818E-3
477.543640E-3
478.076363E-3
478.057480E-3
478.099251E-3
477.985382E-3
477.924728E-3
477.677536E-3
477.496147E-3
477.043533E-3
476.636696E-3
476.276779E-3
475.783539E-3
475.456238E-3
475.016785E-3
474.771881E-3
474.353027E-3
474.095535E-3
473.775673E-3
473.597717E-3
473.743629E-3
473.404312E-3
473.048973E-3
473.014641E-3
472.934532E-3
472.896194E-3
472.750282E-3
472.671318E-3
472.650146E-3
472.508240E-3
472.390938E-3
472.434998E-3
