Notes :


2023-10-22 ¿ÀÈÄ 11:47:11
Volts
Ch : LED 2,
417.137718E-3
414.990807E-3
418.013191E-3
415.729523E-3
416.087723E-3
417.176628E-3
414.801407E-3
418.190002E-3
416.577530E-3
416.246223E-3
417.477036E-3
415.186501E-3
418.377686E-3
416.536331E-3
416.457367E-3
417.935944E-3
415.580177E-3
418.913269E-3
417.125130E-3
417.420387E-3
419.074631E-3
414.836884E-3
419.528389E-3
418.042946E-3
418.232918E-3
419.562149E-3
417.112541E-3
419.522667E-3
416.982651E-3
415.872574E-3
415.417671E-3
411.046028E-3
412.335777E-3
408.783531E-3
408.066559E-3
408.211327E-3
405.460167E-3
408.382988E-3
406.517029E-3
406.945610E-3
408.339500E-3
406.148529E-3
409.473038E-3
407.916069E-3
408.013344E-3
409.245872E-3
406.961632E-3
409.733391E-3
407.785606E-3
407.891464E-3
409.202957E-3
406.856918E-3
410.329056E-3
408.596420E-3
409.126854E-3
410.843468E-3
408.788681E-3
411.989594E-3
410.569954E-3
410.680962E-3
411.918068E-3
409.538841E-3
412.148666E-3
410.017204E-3
410.362244E-3
411.682892E-3
408.754921E-3
411.704063E-3
409.946251E-3
410.207748E-3
411.718941E-3
409.120560E-3
412.005615E-3
410.378838E-3
410.503578E-3
412.008476E-3
409.745979E-3
413.088799E-3
411.232567E-3
411.530113E-3
412.731743E-3
409.878731E-3
413.350868E-3
411.702347E-3
412.315750E-3
413.925934E-3
411.332130E-3
414.819145E-3
412.956619E-3
413.136292E-3
414.511299E-3
412.157822E-3
415.223122E-3
413.750839E-3
413.694763E-3
414.872932E-3
412.346649E-3
415.838814E-3
414.266968E-3
414.372826E-3
415.525246E-3
412.613869E-3
415.674019E-3
413.907623E-3
414.061546E-3
415.494347E-3
412.988091E-3
416.054535E-3
414.357948E-3
414.709282E-3
416.295433E-3
413.570595E-3
417.133141E-3
414.975357E-3
415.657997E-3
417.337990E-3
413.350296E-3
417.802048E-3
416.247940E-3
416.637039E-3
417.517662E-3
414.772797E-3
417.438126E-3
414.005470E-3
412.873650E-3
412.807846E-3
408.599854E-3
410.539055E-3
407.267761E-3
406.782532E-3
407.599068E-3
404.659653E-3
407.799339E-3
406.188011E-3
407.062912E-3
408.343506E-3
405.758286E-3
409.268188E-3
407.905197E-3
408.255959E-3
409.543419E-3
407.139015E-3
410.282135E-3
408.381844E-3
409.296227E-3
410.539055E-3
407.968140E-3
411.710930E-3
410.625458E-3
410.942459E-3
412.604713E-3
410.115051E-3
413.213539E-3
411.601639E-3
411.769867E-3
412.965775E-3
410.128784E-3
412.976646E-3
411.349297E-3
411.072922E-3
412.410164E-3
409.584618E-3
413.139153E-3
412.025070E-3
411.811638E-3
412.897110E-3
410.610580E-3
414.133072E-3
413.063622E-3
412.949753E-3
414.397430E-3
411.644554E-3
414.918137E-3
414.022636E-3
414.023209E-3
415.504074E-3
412.800980E-3
415.916634E-3
414.794540E-3
414.814568E-3
416.150093E-3
413.603210E-3
416.751480E-3
415.389633E-3
415.611076E-3
416.773796E-3
413.263893E-3
416.786385E-3
415.574455E-3
416.010475E-3
417.417526E-3
415.160179E-3
418.146515E-3
416.821861E-3
416.831589E-3
418.120766E-3
415.059471E-3
418.367958E-3
416.512871E-3
416.571808E-3
418.058968E-3
415.060616E-3
418.672943E-3
416.909981E-3
417.541122E-3
419.048882E-3
416.295433E-3
419.880867E-3
418.812561E-3
418.650055E-3
419.949532E-3
417.566872E-3
420.859337E-3
419.495201E-3
418.843460E-3
419.495773E-3
415.652275E-3
417.281914E-3
413.698769E-3
412.294006E-3
411.664581E-3
407.478333E-3
409.435272E-3
407.508087E-3
406.925011E-3
408.019066E-3
405.513382E-3
408.919144E-3
407.345009E-3
408.086014E-3
409.264755E-3
406.561089E-3
410.362244E-3
409.239006E-3
409.145164E-3
410.259819E-3
407.378769E-3
410.672951E-3
409.383202E-3
409.053612E-3
410.569382E-3
408.341217E-3
411.626244E-3
410.780525E-3
411.428833E-3
413.060188E-3
410.418892E-3
413.819504E-3
412.501717E-3
412.360954E-3
413.944817E-3
410.993958E-3
413.877869E-3
412.092018E-3
411.857414E-3
413.086510E-3
410.369682E-3
413.997459E-3
412.647629E-3
412.201309E-3
413.791466E-3
411.299515E-3
414.354515E-3
413.381767E-3
413.191795E-3
414.031792E-3
411.429977E-3
415.199089E-3
414.128494E-3
414.337921E-3
415.880585E-3
413.211250E-3
416.499710E-3
414.706993E-3
414.876938E-3
416.284561E-3
413.770294E-3
417.062187E-3
415.892029E-3
415.548134E-3
416.706276E-3
413.792038E-3
416.987801E-3
416.000748E-3
415.876007E-3
417.159462E-3
414.562798E-3
417.559433E-3
416.043091E-3
416.062546E-3
417.391777E-3
414.551353E-3
417.806625E-3
416.233635E-3
416.412735E-3
417.701912E-3
415.199089E-3
417.654419E-3
416.294289E-3
416.397285E-3
418.088722E-3
415.254021E-3
418.574524E-3
417.221832E-3
417.203522E-3
418.901825E-3
416.088295E-3
419.296646E-3
417.623520E-3
417.769432E-3
419.075203E-3
416.386986E-3
418.832016E-3
416.289711E-3
414.570808E-3
414.439774E-3
409.487343E-3
410.723305E-3
408.156395E-3
406.338501E-3
407.015419E-3
403.920937E-3
406.241798E-3
405.323410E-3
405.670738E-3
407.292938E-3
404.810715E-3
408.195305E-3
407.027435E-3
406.865501E-3
408.408165E-3
405.970573E-3
408.960915E-3
407.735825E-3
407.411385E-3
408.460808E-3
405.545425E-3
408.857918E-3
408.257103E-3
409.092522E-3
410.345650E-3
408.201027E-3
411.919212E-3
410.608864E-3
410.503006E-3
411.615372E-3
408.744049E-3
411.516953E-3
410.238647E-3
409.906197E-3
411.106682E-3
407.833099E-3
411.135292E-3
409.974289E-3
409.989166E-3
411.137581E-3
408.484268E-3
411.862564E-3
410.680962E-3
410.956192E-3
412.121201E-3
409.856415E-3
413.032150E-3
411.727524E-3
412.161255E-3
413.047600E-3
410.702705E-3
413.833237E-3
412.862778E-3
413.083076E-3
414.319611E-3
411.497498E-3
415.065193E-3
413.569450E-3
413.655853E-3
414.628029E-3
412.333488E-3
415.758705E-3
414.347076E-3
414.274406E-3
415.472031E-3
413.165474E-3
415.724945E-3
414.752769E-3
414.614296E-3
416.274834E-3
413.640976E-3
416.675377E-3
415.429687E-3
415.272903E-3
416.575241E-3
413.788605E-3
417.248154E-3
416.116905E-3
415.819931E-3
416.804695E-3
414.621162E-3
418.097305E-3
416.697121E-3
416.787529E-3
418.192863E-3
415.657425E-3
418.957901E-3
418.279839E-3
417.423248E-3
418.519020E-3
415.771294E-3
417.894745E-3
415.627670E-3
413.590050E-3
413.021278E-3
408.860779E-3
411.202240E-3
408.627319E-3
407.094383E-3
407.442856E-3
404.696846E-3
408.316040E-3
407.488060E-3
407.171059E-3
408.480263E-3
406.029510E-3
409.808350E-3
408.856773E-3
409.034157E-3
410.234070E-3
407.670593E-3
411.479187E-3
410.266685E-3
409.577751E-3
410.620308E-3
408.508873E-3
412.059975E-3
411.503220E-3
411.396790E-3
413.109398E-3
410.794258E-3
414.297295E-3
413.049889E-3
412.171555E-3
413.285637E-3
410.798836E-3
413.917351E-3
412.774086E-3
411.736679E-3
412.748337E-3
410.303307E-3
413.710213E-3
412.582970E-3
411.895752E-3
413.207817E-3
410.773087E-3
414.404297E-3
413.279915E-3
412.762642E-3
414.097595E-3
412.069130E-3
416.143799E-3
414.716148E-3
413.887596E-3
415.223122E-3
413.301659E-3
416.869354E-3
415.691185E-3
414.915848E-3
416.181564E-3
414.357948E-3
418.426323E-3
417.254448E-3
416.348076E-3
417.319679E-3
415.239143E-3
418.543625E-3
417.513084E-3
416.653061E-3
417.867279E-3
415.720940E-3
419.379616E-3
418.241501E-3
416.885948E-3
418.248367E-3
416.053963E-3
419.752693E-3
418.295860E-3
417.737389E-3
418.582535E-3
416.487694E-3
419.958115E-3
418.323898E-3
417.463303E-3
418.758202E-3
416.920853E-3
420.760918E-3
419.180489E-3
418.477249E-3
420.056534E-3
418.057251E-3
421.758842E-3
420.392990E-3
419.663429E-3
421.164322E-3
418.964195E-3
422.357368E-3
420.323181E-3
417.827225E-3
417.320824E-3
413.104248E-3
414.929581E-3
411.650848E-3
409.071350E-3
409.110832E-3
406.052971E-3
409.308815E-3
407.637978E-3
406.632614E-3
408.091736E-3
406.549072E-3
410.790253E-3
409.768867E-3
408.876228E-3
410.165405E-3
407.997322E-3
411.755562E-3
410.325623E-3
409.539413E-3
410.675240E-3
408.570099E-3
412.285995E-3
411.053467E-3
410.407448E-3
411.729813E-3
410.285568E-3
414.353943E-3
413.252449E-3
412.320900E-3
413.525963E-3
411.470032E-3
415.057182E-3
413.456726E-3
412.262535E-3
413.400650E-3
410.939026E-3
414.499283E-3
412.825012E-3
411.808205E-3
412.639046E-3
410.975075E-3
414.121056E-3
412.751770E-3
411.872864E-3
413.448715E-3
411.874580E-3
415.071487E-3
414.138794E-3
413.187790E-3
413.571739E-3
412.409592E-3
416.076851E-3
415.250015E-3
414.075279E-3
415.494347E-3
413.548851E-3
416.796684E-3
415.497780E-3
414.850616E-3
416.447639E-3
414.455795E-3
417.869568E-3
416.309738E-3
415.379333E-3
416.691399E-3
414.910698E-3
418.042374E-3
416.218758E-3
415.383911E-3
417.052460E-3
414.933586E-3
418.234634E-3
417.099953E-3
415.687180E-3
416.953468E-3
415.247154E-3
418.477249E-3
417.217827E-3
416.123199E-3
417.626381E-3
415.325546E-3
418.848038E-3
417.730522E-3
416.647339E-3
417.966843E-3
416.110039E-3
419.028854E-3
418.417168E-3
417.354012E-3
419.007683E-3
417.130852E-3
419.962120E-3
419.129562E-3
418.382835E-3
419.610214E-3
416.971779E-3
418.671227E-3
416.160965E-3
413.326263E-3
412.461662E-3
408.495140E-3
409.664154E-3
407.590485E-3
405.637550E-3
406.684113E-3
404.278564E-3
406.902122E-3
406.230927E-3
404.611015E-3
407.026291E-3
405.706215E-3
408.986664E-3
408.801270E-3
407.952118E-3
409.585762E-3
407.767868E-3
410.390854E-3
409.521675E-3
408.452225E-3
410.014343E-3
408.167267E-3
411.395073E-3
410.603142E-3
409.688759E-3
411.853981E-3
410.283852E-3
413.353157E-3
412.063980E-3
410.827446E-3
412.365532E-3
410.215187E-3
412.646484E-3
411.131287E-3
409.287071E-3
411.182213E-3
409.375191E-3
412.450218E-3
411.213684E-3
410.239220E-3
412.024498E-3
410.060120E-3
412.810707E-3
411.924362E-3
411.226273E-3
413.100243E-3
411.260605E-3
414.283562E-3
413.617516E-3
412.855339E-3
414.810562E-3
412.972641E-3
415.984726E-3
414.872932E-3
413.871002E-3
415.323257E-3
413.638687E-3
416.536331E-3
415.706062E-3
414.105034E-3
415.764427E-3
414.110756E-3
417.430115E-3
416.903687E-3
414.918709E-3
417.049599E-3
415.109253E-3
417.881012E-3
417.042160E-3
415.992737E-3
418.043518E-3
415.953255E-3
418.726158E-3
417.515945E-3
416.300011E-3
418.123055E-3
416.142082E-3
418.742752E-3
418.382263E-3
417.210388E-3
418.941879E-3
416.904259E-3
419.979286E-3
419.017410E-3
418.176842E-3
420.477676E-3
418.202019E-3
420.734596E-3
419.625664E-3
416.991234E-3
417.410088E-3
413.669014E-3
413.914490E-3
411.709213E-3
408.709717E-3
409.654427E-3
406.820297E-3
408.962631E-3
407.688904E-3
406.730461E-3
407.737541E-3
406.601715E-3
409.359741E-3
408.897972E-3
408.022499E-3
410.227203E-3
408.893967E-3
411.210823E-3
410.932732E-3
409.841537E-3
412.005043E-3
409.856987E-3
412.399864E-3
411.768723E-3
410.655212E-3
412.636185E-3
411.033440E-3
413.801765E-3
413.329697E-3
412.145805E-3
414.533043E-3
412.664223E-3
414.690399E-3
414.007759E-3
411.637688E-3
413.943672E-3
411.856842E-3
414.259529E-3
413.224983E-3
411.654854E-3
413.847542E-3
412.063980E-3
414.352226E-3
414.273834E-3
412.863922E-3
415.123558E-3
413.379478E-3
415.521240E-3
415.288925E-3
414.080429E-3
416.203880E-3
414.369392E-3
416.915131E-3
416.506577E-3
414.708710E-3
416.702271E-3
415.358734E-3
418.118477E-3
417.756844E-3
416.194725E-3
418.375397E-3
416.267967E-3
418.408012E-3
418.437767E-3
416.883087E-3
418.714714E-3
416.959763E-3
419.179916E-3
418.977928E-3
417.311096E-3
419.383049E-3
417.558861E-3
419.717789E-3
419.067764E-3
416.986084E-3
419.589615E-3
417.736244E-3
419.827652E-3
419.702911E-3
416.822433E-3
420.143509E-3
418.196297E-3
420.520592E-3
420.037079E-3
418.507576E-3
421.355438E-3
419.313240E-3
421.665001E-3
420.959473E-3
419.713211E-3
422.922707E-3
420.387268E-3
421.915627E-3
421.437836E-3
419.053459E-3
420.809555E-3
416.183853E-3
415.770721E-3
413.631821E-3
409.289932E-3
411.326408E-3
407.805061E-3
408.380127E-3
408.030510E-3
406.222343E-3
409.629822E-3
407.731247E-3
409.195518E-3
409.447289E-3
406.891251E-3
411.295509E-3
409.182358E-3
410.963631E-3
411.112404E-3
409.374619E-3
412.709999E-3
410.058403E-3
411.190796E-3
411.020851E-3
408.542633E-3
412.506294E-3
410.574532E-3
412.239075E-3
412.441063E-3
410.794830E-3
414.650917E-3
412.323761E-3
413.606644E-3
413.503647E-3
411.950684E-3
414.665794E-3
412.021637E-3
413.098526E-3
412.804413E-3
411.417389E-3
414.565086E-3
411.776161E-3
412.900543E-3
412.840462E-3
411.717796E-3
414.890099E-3
412.167549E-3
413.893318E-3
413.971710E-3
412.585258E-3
416.103172E-3
413.512802E-3
414.324760E-3
414.950180E-3
413.758850E-3
417.296791E-3
414.157677E-3
415.373039E-3
416.031647E-3
414.719582E-3
418.529320E-3
415.355301E-3
416.419029E-3
416.512299E-3
415.174484E-3
419.014549E-3
415.625954E-3
416.717720E-3
416.856194E-3
415.411949E-3
419.070053E-3
416.142654E-3
417.782593E-3
417.480469E-3
416.475677E-3
420.307159E-3
416.835594E-3
418.315315E-3
418.139648E-3
415.585327E-3
420.055389E-3
417.527390E-3
418.535614E-3
418.339920E-3
417.136002E-3
420.893669E-3
417.164040E-3
418.228912E-3
418.844032E-3
417.248726E-3
420.780945E-3
417.412376E-3
418.965340E-3
419.569588E-3
418.049240E-3
420.760918E-3
416.631317E-3
416.042519E-3
414.882660E-3
410.378838E-3
412.556076E-3
408.036804E-3
407.964706E-3
407.140160E-3
405.172348E-3
408.498573E-3
405.567169E-3
407.315254E-3
407.908630E-3
406.768227E-3
410.544205E-3
407.648277E-3
409.203529E-3
409.771729E-3
408.750916E-3
411.959839E-3
409.122276E-3
410.079575E-3
410.856628E-3
409.422684E-3
413.002396E-3
409.922218E-3
411.550140E-3
412.319756E-3
411.106110E-3
414.726448E-3
411.784172E-3
412.995529E-3
413.348007E-3
411.779022E-3
414.655495E-3
411.254311E-3
412.150955E-3
412.151527E-3
410.551643E-3
413.697624E-3
411.022568E-3
411.867142E-3
412.491989E-3
411.038589E-3
414.626312E-3
411.709213E-3
413.049889E-3
413.767433E-3
412.573242E-3
415.699768E-3
413.377762E-3
414.226913E-3
414.944458E-3
413.361168E-3
416.561508E-3
414.182854E-3
415.101814E-3
415.978432E-3
414.459801E-3
417.366600E-3
414.900970E-3
415.817070E-3
416.690254E-3
415.454865E-3
418.635178E-3
416.090584E-3
416.796684E-3
417.150879E-3
414.360237E-3
418.400574E-3
416.166687E-3
416.932869E-3
417.773438E-3
416.355515E-3
419.511795E-3
416.575241E-3
416.941452E-3
417.540550E-3
416.287994E-3
419.468307E-3
416.677666E-3
417.640114E-3
417.971992E-3
416.956902E-3
420.414734E-3
417.983437E-3
419.248581E-3
419.487190E-3
418.387985E-3
421.666145E-3
419.085503E-3
419.842529E-3
419.868851E-3
415.463448E-3
419.003677E-3
414.862061E-3
413.964844E-3
412.668800E-3
409.446144E-3
411.488914E-3
407.560730E-3
407.772446E-3
407.787895E-3
405.862999E-3
409.085083E-3
407.174492E-3
408.017921E-3
409.443855E-3
407.938957E-3
411.118126E-3
409.103966E-3
410.073280E-3
410.928154E-3
409.383774E-3
412.342644E-3
410.309601E-3
411.159897E-3
411.781883E-3
409.938812E-3
412.799263E-3
410.683250E-3
411.764145E-3
413.546562E-3
412.025070E-3
415.086937E-3
412.938881E-3
413.207245E-3
414.061546E-3
412.483978E-3
414.926147E-3
412.315750E-3
412.516022E-3
413.509941E-3
411.430550E-3
414.272118E-3
412.147522E-3
412.830162E-3
413.677025E-3
