Notes :


2023-11-04 ¿ÀÈÄ 6:48:16
Volts
Ch : LED 2,
292.406845E-3
292.187691E-3
292.037773E-3
291.835785E-3
291.707039E-3
291.548538E-3
291.272163E-3
291.090775E-3
290.841866E-3
290.642166E-3
290.475655E-3
290.421295E-3
290.200424E-3
290.368080E-3
290.536880E-3
290.975761E-3
292.082977E-3
293.486595E-3
295.501900E-3
297.811317E-3
300.171089E-3
302.256775E-3
303.867531E-3
304.943848E-3
305.478287E-3
305.374146E-3
304.855156E-3
304.131889E-3
303.460693E-3
302.641296E-3
301.932907E-3
301.348114E-3
301.006508E-3
300.744438E-3
300.683784E-3
300.711250E-3
300.825691E-3
300.979614E-3
301.112938E-3
301.305199E-3
301.241112E-3
300.910950E-3
300.269508E-3
299.583435E-3
298.898506E-3
298.364639E-3
297.867966E-3
297.777557E-3
297.818184E-3
298.131180E-3
298.198700E-3
298.445320E-3
298.560905E-3
298.558617E-3
298.530579E-3
298.487663E-3
298.137474E-3
297.782135E-3
297.493744E-3
297.154999E-3
296.718979E-3
296.354485E-3
295.858955E-3
295.457840E-3
295.206642E-3
294.866753E-3
294.635010E-3
294.425011E-3
294.139481E-3
293.973541E-3
293.738365E-3
293.627357E-3
293.507767E-3
293.298340E-3
293.399048E-3
293.329239E-3
293.334961E-3
293.079758E-3
292.880058E-3
292.821121E-3
292.676926E-3
292.631721E-3
292.547607E-3
292.544174E-3
292.434883E-3
292.244911E-3
292.254639E-3
292.128754E-3
292.098999E-3
292.203712E-3
291.997147E-3
291.908455E-3
291.654968E-3
291.414642E-3
291.319656E-3
290.970039E-3
290.941429E-3
290.645599E-3
290.477371E-3
290.292549E-3
289.920044E-3
289.690590E-3
289.526939E-3
289.433670E-3
289.551544E-3
289.552116E-3
289.861107E-3
290.364647E-3
291.502190E-3
293.175888E-3
294.953728E-3
297.027969E-3
298.879623E-3
300.576782E-3
301.825905E-3
302.379227E-3
302.639008E-3
302.441025E-3
301.877975E-3
301.112366E-3
300.022316E-3
299.277306E-3
298.417854E-3
297.901726E-3
297.518921E-3
297.147560E-3
297.278595E-3
297.311211E-3
297.505760E-3
297.719765E-3
297.643089E-3
297.603607E-3
297.156715E-3
296.666336E-3
296.334457E-3
295.611763E-3
295.295906E-3
295.132828E-3
295.133400E-3
295.424080E-3
295.667267E-3
296.008873E-3
296.208572E-3
296.371078E-3
296.529007E-3
296.359062E-3
296.308708E-3
295.947075E-3
295.622635E-3
295.302773E-3
294.797516E-3
294.502831E-3
294.129753E-3
293.721199E-3
293.385315E-3
292.877197E-3
292.627716E-3
292.432594E-3
292.196846E-3
292.322731E-3
292.189407E-3
292.248917E-3
292.257500E-3
292.242622E-3
292.292976E-3
292.253494E-3
292.238617E-3
292.187119E-3
292.068100E-3
292.133904E-3
292.065239E-3
292.107010E-3
292.084694E-3
292.066956E-3
292.270088E-3
292.061234E-3
292.053223E-3
291.866112E-3
291.556549E-3
291.464424E-3
291.198921E-3
291.133690E-3
291.008949E-3
290.912819E-3
290.937424E-3
290.614700E-3
290.455055E-3
290.279388E-3
289.981270E-3
289.900589E-3
289.636230E-3
289.655685E-3
289.876556E-3
290.578651E-3
291.878700E-3
293.550110E-3
295.602608E-3
297.701454E-3
299.629784E-3
301.350403E-3
302.384377E-3
303.017235E-3
303.041267E-3
302.521706E-3
301.932335E-3
301.045418E-3
300.388527E-3
299.637794E-3
298.954582E-3
298.594093E-3
298.218727E-3
298.191833E-3
298.227882E-3
298.184395E-3
298.400116E-3
298.580933E-3
298.690796E-3
298.566055E-3
298.121452E-3
297.605324E-3
296.917534E-3
296.481514E-3
296.147919E-3
296.047783E-3
296.234322E-3
296.454620E-3
296.881485E-3
297.180748E-3
297.398186E-3
297.716904E-3
297.616196E-3
297.600174E-3
297.339249E-3
296.939278E-3
296.690369E-3
296.210861E-3
295.890427E-3
295.458984E-3
294.974899E-3
294.655037E-3
294.149208E-3
293.826485E-3
293.437386E-3
293.000221E-3
292.933846E-3
292.742729E-3
292.909813E-3
293.029404E-3
293.035698E-3
292.987061E-3
292.714119E-3
292.693520E-3
292.677498E-3
292.639732E-3
292.724991E-3
292.704964E-3
292.833710E-3
292.948723E-3
292.869186E-3
292.971039E-3
292.856026E-3
292.877769E-3
292.960739E-3
293.145561E-3
293.369293E-3
293.116379E-3
292.813110E-3
292.272949E-3
291.685295E-3
291.237259E-3
290.754318E-3
290.575790E-3
290.674782E-3
290.777206E-3
291.098213E-3
291.304207E-3
291.806030E-3
292.872620E-3
294.296265E-3
296.383095E-3
298.428726E-3
300.593948E-3
302.430725E-3
303.617477E-3
304.407692E-3
304.459763E-3
304.320717E-3
303.705597E-3
302.907944E-3
302.255058E-3
301.500320E-3
300.827408E-3
300.177956E-3
299.762535E-3
299.644661E-3
299.326515E-3
299.192047E-3
299.241829E-3
299.279022E-3
299.525070E-3
299.335098E-3
299.081612E-3
298.534012E-3
297.936630E-3
297.483444E-3
296.825981E-3
296.640015E-3
296.610260E-3
296.744728E-3
297.104645E-3
297.435379E-3
297.931480E-3
298.131752E-3
298.254204E-3
298.249626E-3
298.009872E-3
297.674561E-3
297.369576E-3
296.892929E-3
296.545029E-3
296.092415E-3
295.752525E-3
295.432663E-3
295.000076E-3
294.618988E-3
294.250488E-3
294.002151E-3
293.733788E-3
293.507195E-3
293.475151E-3
293.337250E-3
293.239403E-3
293.181610E-3
293.038559E-3
293.014526E-3
292.838860E-3
292.865753E-3
292.928696E-3
293.055153E-3
293.149567E-3
293.223953E-3
293.295479E-3
293.207359E-3
293.342400E-3
293.506622E-3
293.455124E-3
293.368149E-3
293.409348E-3
293.433952E-3
293.376732E-3
293.287468E-3
293.266296E-3
293.404770E-3
293.438530E-3
293.716049E-3
294.074249E-3
294.980049E-3
296.345329E-3
298.062515E-3
300.098419E-3
302.042198E-3
304.033470E-3
305.603600E-3
306.559181E-3
307.029533E-3
306.932259E-3
306.394958E-3
305.685425E-3
304.783058E-3
303.994560E-3
303.151131E-3
302.614975E-3
302.165794E-3
301.795006E-3
301.742363E-3
301.576996E-3
301.479721E-3
301.532364E-3
301.591873E-3
301.306343E-3
300.958443E-3
300.566483E-3
299.956512E-3
299.291611E-3
298.806381E-3
298.398399E-3
298.206139E-3
298.431587E-3
298.471642E-3
298.685646E-3
298.936272E-3
299.097061E-3
299.241829E-3
299.253845E-3
299.113655E-3
298.919106E-3
298.544312E-3
298.276520E-3
297.854233E-3
297.407913E-3
296.918106E-3
296.460915E-3
296.054649E-3
295.646095E-3
295.350266E-3
294.929123E-3
294.705963E-3
294.501686E-3
294.251633E-3
294.138908E-3
293.887138E-3
293.722916E-3
293.714905E-3
293.447685E-3
293.350983E-3
293.201637E-3
293.084908E-3
293.150711E-3
293.127251E-3
293.217087E-3
293.224525E-3
293.108940E-3
293.280602E-3
293.189621E-3
293.168449E-3
292.975044E-3
292.897224E-3
292.807961E-3
292.690086E-3
292.434311E-3
292.268372E-3
292.031479E-3
291.863823E-3
291.590881E-3
291.418648E-3
291.272163E-3
291.191483E-3
291.261292E-3
291.510773E-3
292.238045E-3
293.701744E-3
295.565414E-3
297.668839E-3
299.811172E-3
302.003860E-3
303.663254E-3
304.665184E-3
305.371284E-3
305.316925E-3
304.932976E-3
304.166222E-3
303.247261E-3
302.393532E-3
301.515770E-3
300.910950E-3
300.137329E-3
299.780273E-3
299.615479E-3
299.383163E-3
299.508476E-3
299.567986E-3
299.609756E-3
299.516487E-3
299.187469E-3
298.562622E-3
298.043060E-3
297.584724E-3
297.321510E-3
297.213364E-3
297.257996E-3
297.469139E-3
297.657967E-3
298.018456E-3
298.079681E-3
298.443031E-3
298.562050E-3
298.497963E-3
298.415565E-3
298.097420E-3
297.848511E-3
297.446823E-3
297.022820E-3
296.826553E-3
296.347046E-3
295.957947E-3
295.582008E-3
295.183754E-3
294.957161E-3
294.553757E-3
294.433022E-3
294.227600E-3
294.206429E-3
294.100571E-3
293.934631E-3
293.873405E-3
293.665695E-3
293.684578E-3
293.650818E-3
293.661118E-3
293.775558E-3
294.069099E-3
293.992424E-3
294.041634E-3
294.014168E-3
294.032478E-3
293.998718E-3
293.963814E-3
293.908882E-3
293.821335E-3
293.799591E-3
293.668556E-3
293.452263E-3
293.301773E-3
292.961311E-3
292.784500E-3
292.640877E-3
292.685509E-3
292.552185E-3
292.547607E-3
292.855453E-3
293.649101E-3
294.996071E-3
296.896362E-3
299.015236E-3
301.275444E-3
303.162575E-3
305.174446E-3
306.462479E-3
307.237244E-3
307.400322E-3
307.083321E-3
306.250191E-3
305.292892E-3
304.323578E-3
303.666115E-3
302.816963E-3
301.984978E-3
301.600456E-3
301.317215E-3
301.141548E-3
301.061440E-3
300.972176E-3
301.011658E-3
300.853729E-3
300.489807E-3
300.028610E-3
299.523926E-3
299.115944E-3
298.835564E-3
298.670197E-3
298.604393E-3
298.653030E-3
299.157143E-3
299.317932E-3
299.566269E-3
299.836922E-3
299.944496E-3
299.936485E-3
299.827766E-3
299.605751E-3
299.386024E-3
299.073029E-3
298.667908E-3
298.112869E-3
297.635078E-3
297.140121E-3
296.622276E-3
296.233749E-3
295.909309E-3
295.455551E-3
295.143700E-3
294.960594E-3
294.873047E-3
294.747162E-3
294.639015E-3
294.525719E-3
294.342041E-3
294.257927E-3
294.174957E-3
294.136620E-3
294.227600E-3
294.133186E-3
294.196129E-3
294.124031E-3
294.156647E-3
294.203568E-3
294.202995E-3
294.129753E-3
294.095421E-3
294.137192E-3
294.172668E-3
294.121170E-3
294.108009E-3
294.071960E-3
293.948936E-3
293.549538E-3
293.447685E-3
293.237686E-3
293.008232E-3
292.672348E-3
292.415428E-3
292.158508E-3
291.951370E-3
291.780281E-3
291.746521E-3
292.046356E-3
292.588806E-3
293.923187E-3
295.713043E-3
297.945213E-3
300.398254E-3
302.932549E-3
305.320930E-3
307.213211E-3
308.375931E-3
308.894348E-3
308.770752E-3
308.288383E-3
307.397461E-3
306.440163E-3
305.366707E-3
304.429436E-3
303.658104E-3
303.006935E-3
302.580643E-3
302.364922E-3
302.181816E-3
302.158928E-3
302.160645E-3
302.194977E-3
302.240181E-3
302.055359E-3
301.746941E-3
301.179314E-3
300.631142E-3
300.267220E-3
299.918747E-3
299.775124E-3
299.580574E-3
299.810600E-3
300.120735E-3
300.191116E-3
300.452614E-3
300.652885E-3
300.710106E-3
300.656319E-3
300.532150E-3
300.237465E-3
299.892426E-3
299.400330E-3
299.061584E-3
298.554611E-3
298.156929E-3
297.722626E-3
297.330666E-3
296.975899E-3
296.727562E-3
296.409416E-3
296.064949E-3
295.929909E-3
295.856094E-3
295.747948E-3
295.656967E-3
295.549965E-3
295.421791E-3
295.069885E-3
295.059586E-3
295.085907E-3
294.914818E-3
294.958305E-3
294.974899E-3
294.930267E-3
294.945145E-3
294.828987E-3
294.919968E-3
294.780350E-3
294.641304E-3
294.576645E-3
294.461060E-3
294.344330E-3
294.396400E-3
294.201851E-3
294.212151E-3
294.093704E-3
293.808746E-3
293.627930E-3
293.465424E-3
293.177032E-3
292.830849E-3
292.540741E-3
292.329597E-3
291.924477E-3
291.735077E-3
291.497612E-3
291.458130E-3
291.422653E-3
291.615486E-3
292.307281E-3
293.613052E-3
295.433235E-3
297.715187E-3
300.201416E-3
302.673912E-3
304.863167E-3
306.705093E-3
307.861519E-3
308.323860E-3
308.264351E-3
307.484436E-3
306.667900E-3
305.570412E-3
304.477501E-3
303.363991E-3
302.349472E-3
301.674843E-3
301.180458E-3
300.877190E-3
300.647736E-3
300.703239E-3
300.838852E-3
300.861168E-3
300.870323E-3
300.572205E-3
300.047493E-3
299.504471E-3
299.059296E-3
298.643875E-3
298.666763E-3
298.645020E-3
298.908806E-3
299.238968E-3
299.522209E-3
299.855232E-3
300.046349E-3
300.139046E-3
300.014305E-3
299.915314E-3
299.779129E-3
299.343109E-3
299.015808E-3
298.666763E-3
298.238182E-3
297.786713E-3
297.338104E-3
296.796227E-3
296.451187E-3
296.012306E-3
295.704460E-3
295.485878E-3
295.352554E-3
295.167160E-3
294.885063E-3
294.894791E-3
294.783783E-3
294.664192E-3
294.623566E-3
294.437027E-3
294.570351E-3
294.476509E-3
294.603539E-3
294.516563E-3
294.506264E-3
294.391823E-3
294.358635E-3
294.332314E-3
294.292831E-3
294.180107E-3
294.280815E-3
294.193268E-3
294.165230E-3
294.193268E-3
293.986702E-3
293.954659E-3
293.810463E-3
293.643951E-3
293.610191E-3
293.350983E-3
293.149567E-3
292.929268E-3
292.567062E-3
292.200279E-3
291.893578E-3
291.866684E-3
291.747665E-3
291.700745E-3
291.725922E-3
291.940498E-3
292.502975E-3
293.919754E-3
295.802307E-3
298.065376E-3
300.389099E-3
302.795219E-3
305.009079E-3
306.706810E-3
307.869530E-3
308.359337E-3
307.965088E-3
307.253265E-3
306.150627E-3
304.995346E-3
303.750229E-3
302.739143E-3
301.758385E-3
301.062584E-3
300.498390E-3
300.090408E-3
299.891853E-3
299.800301E-3
299.736214E-3
299.568558E-3
299.225235E-3
299.008942E-3
298.492813E-3
298.068237E-3
297.925758E-3
297.837639E-3
297.949791E-3
298.172379E-3
298.514557E-3
298.894501E-3
299.221230E-3
299.592018E-3
299.776840E-3
299.848366E-3
299.783707E-3
299.608040E-3
299.267578E-3
298.955727E-3
298.409843E-3
297.814751E-3
297.513771E-3
296.950150E-3
296.442604E-3
296.015167E-3
295.570564E-3
295.234680E-3
294.952583E-3
294.775772E-3
294.659615E-3
294.462204E-3
294.196129E-3
294.251633E-3
294.090843E-3
294.050217E-3
293.938065E-3
293.903160E-3
293.864822E-3
293.636513E-3
293.757248E-3
293.852234E-3
293.771553E-3
293.893433E-3
293.823051E-3
293.780136E-3
293.800735E-3
293.642807E-3
293.604469E-3
293.535233E-3
293.522644E-3
293.585587E-3
293.544388E-3
293.487740E-3
293.324089E-3
293.256569E-3
293.080902E-3
292.906952E-3
292.698669E-3
292.440033E-3
292.177963E-3
292.074394E-3
291.701317E-3
291.590881E-3
291.533089E-3
291.269302E-3
291.212082E-3
291.200066E-3
291.669273E-3
292.702103E-3
294.348907E-3
296.504974E-3
298.831558E-3
301.264572E-3
303.904724E-3
306.091118E-3
307.772255E-3
308.671188E-3
309.090042E-3
308.793068E-3
307.963371E-3
306.991768E-3
305.581856E-3
304.482079E-3
303.460693E-3
302.569199E-3
302.004433E-3
301.543236E-3
301.265717E-3
301.185036E-3
301.125526E-3
301.206207E-3
301.170731E-3
301.161575E-3
300.832558E-3
300.389099E-3
299.944496E-3
299.497032E-3
299.240112E-3
299.176025E-3
299.228668E-3
299.394035E-3
299.533653E-3
299.731636E-3
300.037193E-3
300.107574E-3
300.284386E-3
300.206566E-3
300.236320E-3
300.090981E-3
299.854660E-3
299.656677E-3
299.233818E-3
298.944855E-3
298.475075E-3
297.903442E-3
297.518349E-3
297.027969E-3
296.498108E-3
296.192551E-3
295.898437E-3
295.709610E-3
295.446396E-3
295.309639E-3
295.317078E-3
295.123672E-3
294.996643E-3
294.946289E-3
295.095634E-3
295.073891E-3
294.992638E-3
295.136833E-3
295.194626E-3
295.178032E-3
295.191193E-3
295.246696E-3
295.311928E-3
295.404625E-3
295.291901E-3
295.207787E-3
295.266724E-3
295.286179E-3
295.173454E-3
295.620918E-3
295.801163E-3
295.559692E-3
295.271301E-3
294.944572E-3
294.765472E-3
294.435310E-3
294.320297E-3
294.423866E-3
294.445610E-3
293.995285E-3
293.593597E-3
293.128395E-3
292.773628E-3
292.311287E-3
292.137909E-3
292.045212E-3
292.059517E-3
292.087555E-3
292.247772E-3
292.771339E-3
293.958664E-3
295.631218E-3
297.909164E-3
300.382233E-3
303.121948E-3
305.500031E-3
307.340813E-3
308.703804E-3
309.283447E-3
309.222794E-3
308.627701E-3
307.620049E-3
306.492805E-3
305.285454E-3
304.206848E-3
303.265572E-3
302.443314E-3
301.777267E-3
301.463699E-3
301.140404E-3
301.154709E-3
301.272583E-3
301.354408E-3
301.412201E-3
301.190186E-3
300.930405E-3
300.510979E-3
300.244331E-3
299.910164E-3
299.800301E-3
299.773407E-3
299.553108E-3
300.059509E-3
300.353622E-3
300.569916E-3
300.822830E-3
300.897217E-3
300.968170E-3
300.821114E-3
300.563622E-3
300.280952E-3
299.882126E-3
299.624634E-3
299.154282E-3
298.595238E-3
298.077965E-3
297.608757E-3
297.208214E-3
296.690941E-3
296.223450E-3
295.968246E-3
