Notes :


2023-11-02 ¿ÀÈÄ 6:32:35
Volts
Ch : LED 2,
807.480812E-3
806.007385E-3
805.783653E-3
804.872704E-3
805.240631E-3
804.679871E-3
803.355217E-3
803.331757E-3
802.260017E-3
801.798820E-3
801.128769E-3
800.483322E-3
800.886154E-3
800.658989E-3
801.714134E-3
802.381897E-3
802.428246E-3
803.483391E-3
803.253937E-3
803.790665E-3
803.680801E-3
802.976418E-3
803.231049E-3
802.326965E-3
802.301216E-3
801.876068E-3
800.979424E-3
800.650406E-3
800.075912E-3
800.070190E-3
799.631882E-3
798.770714E-3
798.735809E-3
797.872925E-3
798.010254E-3
797.941589E-3
797.273827E-3
797.700119E-3
797.196579E-3
797.336769E-3
797.238350E-3
796.837234E-3
797.248077E-3
796.596909E-3
797.039795E-3
797.103310E-3
796.604347E-3
797.289276E-3
796.710205E-3
797.055244E-3
796.968842E-3
796.632957E-3
797.329330E-3
796.295929E-3
796.532822E-3
796.296501E-3
795.179558E-3
795.662498E-3
794.630241E-3
794.534683E-3
794.517517E-3
793.585396E-3
794.126701E-3
793.159103E-3
793.227196E-3
792.859268E-3
792.083931E-3
792.298508E-3
791.002464E-3
790.837669E-3
790.722656E-3
790.320969E-3
791.790390E-3
792.970848E-3
795.844460E-3
799.032211E-3
801.425171E-3
806.331825E-3
808.946800E-3
811.045074E-3
812.053299E-3
811.633301E-3
811.486816E-3
809.719849E-3
808.574295E-3
807.057381E-3
805.296135E-3
804.862976E-3
803.148651E-3
802.542114E-3
802.243423E-3
801.431465E-3
801.992798E-3
801.331902E-3
801.632309E-3
801.462936E-3
800.990868E-3
801.477242E-3
800.182915E-3
799.932861E-3
799.718285E-3
799.020195E-3
799.807549E-3
799.192429E-3
799.574089E-3
799.916840E-3
799.848747E-3
800.806046E-3
800.551987E-3
800.850105E-3
801.013756E-3
800.307083E-3
800.859261E-3
799.873924E-3
799.510574E-3
799.136925E-3
798.292351E-3
798.474884E-3
796.945953E-3
796.400070E-3
796.115685E-3
795.142937E-3
795.705414E-3
794.556999E-3
794.410515E-3
794.431686E-3
793.979073E-3
794.359016E-3
793.404007E-3
793.363380E-3
793.515015E-3
793.114471E-3
793.963051E-3
792.974281E-3
793.177986E-3
793.445206E-3
792.860985E-3
793.674088E-3
792.858696E-3
793.074989E-3
793.139076E-3
792.014122E-3
792.973137E-3
792.299652E-3
792.494774E-3
792.400932E-3
791.938019E-3
792.485046E-3
791.861343E-3
791.966629E-3
792.319107E-3
791.566658E-3
792.029572E-3
791.031647E-3
790.690613E-3
790.353584E-3
789.593124E-3
789.944458E-3
789.260674E-3
789.445496E-3
789.697838E-3
790.276337E-3
792.897034E-3
794.671440E-3
797.854614E-3
801.587105E-3
804.549980E-3
808.549118E-3
810.371017E-3
812.117958E-3
812.651253E-3
812.244987E-3
812.145424E-3
810.176468E-3
809.428596E-3
808.652687E-3
807.040787E-3
806.956100E-3
805.389977E-3
804.819489E-3
804.393768E-3
803.786087E-3
804.479027E-3
803.759766E-3
804.048157E-3
804.025841E-3
803.243065E-3
803.582954E-3
802.455139E-3
802.235985E-3
802.359009E-3
802.094650E-3
802.943802E-3
802.844238E-3
803.492546E-3
804.029274E-3
804.139709E-3
805.242920E-3
804.857826E-3
804.924774E-3
804.952812E-3
804.315948E-3
804.520226E-3
803.473091E-3
803.098869E-3
802.424812E-3
800.787735E-3
801.326180E-3
800.276756E-3
799.891090E-3
799.781799E-3
799.138641E-3
799.755478E-3
798.921776E-3
799.047089E-3
798.989296E-3
798.601341E-3
799.304008E-3
798.677444E-3
798.501205E-3
798.745537E-3
798.448563E-3
799.193573E-3
798.615646E-3
799.014473E-3
799.354362E-3
798.859406E-3
799.829292E-3
799.345779E-3
799.330902E-3
799.292564E-3
798.794174E-3
799.246216E-3
798.687172E-3
798.533249E-3
798.613930E-3
797.879791E-3
798.776436E-3
798.080063E-3
798.002815E-3
798.058891E-3
797.317314E-3
797.486115E-3
796.469307E-3
795.905113E-3
795.949173E-3
795.136642E-3
796.035576E-3
796.375465E-3
797.971344E-3
800.855827E-3
803.447342E-3
807.346916E-3
809.964752E-3
812.355423E-3
814.504051E-3
813.850594E-3
814.981842E-3
813.681793E-3
812.669563E-3
811.460495E-3
809.433746E-3
808.589172E-3
806.758690E-3
805.415154E-3
804.972267E-3
803.661919E-3
803.643036E-3
802.860832E-3
802.590179E-3
802.037430E-3
800.341415E-3
800.794029E-3
799.872780E-3
799.244499E-3
799.434471E-3
798.842812E-3
799.788094E-3
799.994087E-3
800.557137E-3
801.513290E-3
801.256371E-3
802.146149E-3
801.848602E-3
801.681519E-3
801.973915E-3
800.890732E-3
800.808907E-3
800.114250E-3
799.334335E-3
799.255943E-3
798.393631E-3
798.843956E-3
797.939873E-3
797.452927E-3
797.056389E-3
796.222687E-3
796.517372E-3
795.660210E-3
795.409012E-3
795.749474E-3
795.138931E-3
796.111107E-3
795.764923E-3
795.812988E-3
796.179771E-3
795.577240E-3
796.471024E-3
796.148300E-3
795.706558E-3
795.909119E-3
795.520592E-3
795.978355E-3
795.832443E-3
796.039581E-3
796.099663E-3
795.833588E-3
796.707916E-3
796.260452E-3
796.069336E-3
796.346283E-3
795.804977E-3
796.151161E-3
795.862770E-3
795.751190E-3
796.214676E-3
795.438194E-3
795.926857E-3
795.257378E-3
794.763565E-3
794.490623E-3
793.559074E-3
793.696976E-3
793.101311E-3
792.845535E-3
793.408012E-3
793.709564E-3
796.195793E-3
798.770714E-3
802.198792E-3
806.268311E-3
809.266090E-3
812.806320E-3
814.801598E-3
815.225601E-3
815.649033E-3
814.472580E-3
814.030266E-3
812.347984E-3
810.622215E-3
809.524727E-3
807.608986E-3
807.445335E-3
806.513214E-3
805.599976E-3
805.515862E-3
804.640388E-3
804.988861E-3
804.364014E-3
803.798103E-3
803.936005E-3
802.769279E-3
803.106880E-3
802.210808E-3
801.417160E-3
801.646614E-3
801.404572E-3
802.499771E-3
802.708626E-3
802.845955E-3
803.469086E-3
803.244209E-3
804.076767E-3
803.545189E-3
802.935791E-3
803.102875E-3
802.242851E-3
802.474594E-3
801.830864E-3
801.098442E-3
800.995445E-3
799.783516E-3
799.632454E-3
798.723221E-3
797.950745E-3
797.763634E-3
796.787453E-3
797.134209E-3
796.793175E-3
796.277046E-3
796.456718E-3
796.032143E-3
796.651840E-3
796.656990E-3
796.315384E-3
796.450996E-3
796.238708E-3
796.945381E-3
796.729088E-3
796.561432E-3
796.925354E-3
796.403503E-3
797.067261E-3
797.169113E-3
797.282410E-3
797.792244E-3
797.524452E-3
798.634529E-3
798.230553E-3
797.989082E-3
798.248863E-3
797.535896E-3
798.110390E-3
798.031998E-3
797.693825E-3
797.551918E-3
797.281265E-3
798.191643E-3
797.993660E-3
797.740746E-3
797.791100E-3
796.887589E-3
797.224045E-3
796.934509E-3
796.503067E-3
796.991158E-3
796.951675E-3
798.450279E-3
800.190926E-3
802.594185E-3
806.266022E-3
809.393120E-3
813.690948E-3
816.494751E-3
818.415642E-3
820.069885E-3
819.933701E-3
820.147133E-3
818.992996E-3
817.414284E-3
816.390610E-3
814.589310E-3
814.038277E-3
813.055801E-3
812.004662E-3
811.757469E-3
810.568428E-3
810.644531E-3
810.298920E-3
809.854889E-3
810.038567E-3
808.945084E-3
809.044075E-3
808.178902E-3
807.476234E-3
807.689095E-3
807.215881E-3
807.885933E-3
808.134842E-3
808.007812E-3
808.666992E-3
808.399773E-3
809.050941E-3
809.057236E-3
807.740021E-3
808.418083E-3
808.114243E-3
808.466148E-3
808.307076E-3
807.505417E-3
807.406998E-3
806.350708E-3
806.310081E-3
805.634880E-3
804.737663E-3
804.495621E-3
803.561211E-3
803.737450E-3
803.427315E-3
802.997017E-3
803.596115E-3
802.882004E-3
803.419304E-3
803.515434E-3
803.016472E-3
803.672791E-3
803.109169E-3
803.320313E-3
803.339767E-3
802.753258E-3
803.632736E-3
803.058243E-3
803.409004E-3
803.440475E-3
803.254509E-3
803.942299E-3
803.319168E-3
803.320885E-3
803.205872E-3
802.744102E-3
803.497696E-3
802.623940E-3
802.944946E-3
802.730370E-3
802.268028E-3
803.010750E-3
801.933289E-3
801.805687E-3
801.557922E-3
800.766563E-3
800.851250E-3
799.671364E-3
799.516296E-3
799.187851E-3
798.587036E-3
799.772072E-3
800.255585E-3
802.607918E-3
805.522156E-3
808.403206E-3
812.533951E-3
814.671135E-3
817.371368E-3
818.553543E-3
818.848801E-3
819.347191E-3
817.861748E-3
816.763115E-3
815.287971E-3
813.351631E-3
812.757111E-3
810.767555E-3
809.770775E-3
809.120178E-3
806.980133E-3
807.749176E-3
806.284332E-3
806.191063E-3
805.609703E-3
804.536819E-3
804.591179E-3
803.195572E-3
802.900314E-3
803.008461E-3
802.577591E-3
803.869057E-3
803.609276E-3
804.366875E-3
804.659271E-3
804.618073E-3
805.518723E-3
804.952812E-3
804.866982E-3
804.703903E-3
803.848457E-3
804.179764E-3
802.869987E-3
802.355003E-3
801.922989E-3
800.956535E-3
800.894165E-3
799.404144E-3
799.051666E-3
798.683167E-3
797.699547E-3
798.014832E-3
796.927071E-3
796.790314E-3
796.940231E-3
796.460724E-3
797.127342E-3
796.233559E-3
796.348572E-3
796.398926E-3
795.865059E-3
796.465302E-3
795.824432E-3
795.891953E-3
796.026993E-3
795.842743E-3
796.572876E-3
795.745468E-3
796.247292E-3
796.254158E-3
795.956039E-3
796.727371E-3
796.073341E-3
796.073341E-3
796.051598E-3
795.600700E-3
796.058464E-3
795.514870E-3
795.454788E-3
795.638466E-3
794.684601E-3
795.538330E-3
795.101166E-3
794.856262E-3
794.665718E-3
793.955040E-3
794.239426E-3
793.432045E-3
793.626595E-3
793.905830E-3
793.070412E-3
795.863914E-3
797.708702E-3
800.806046E-3
804.540825E-3
807.666779E-3
811.640167E-3
813.634300E-3
815.590096E-3
816.638947E-3
816.177177E-3
816.242981E-3
814.472580E-3
813.138199E-3
811.818695E-3
810.181046E-3
809.621429E-3
807.939148E-3
807.031059E-3
806.619072E-3
805.687523E-3
806.250000E-3
805.522156E-3
805.202293E-3
805.450630E-3
804.796028E-3
805.116463E-3
803.841591E-3
803.212166E-3
803.124619E-3
802.396774E-3
803.286552E-3
803.035927E-3
803.350067E-3
803.940582E-3
803.773499E-3
804.690170E-3
804.446411E-3
804.454994E-3
804.615211E-3
804.032707E-3
804.115105E-3
802.966690E-3
802.411079E-3
802.035141E-3
800.891304E-3
800.911903E-3
799.824142E-3
799.144936E-3
799.174118E-3
798.099518E-3
798.628235E-3
797.985649E-3
797.602844E-3
797.648048E-3
796.607780E-3
796.805763E-3
796.315956E-3
796.442986E-3
796.948242E-3
796.254730E-3
797.157097E-3
796.762276E-3
796.969414E-3
797.278976E-3
796.521378E-3
797.195435E-3
796.556854E-3
796.062469E-3
796.303368E-3
795.596695E-3
796.520233E-3
796.212387E-3
796.362305E-3
796.567726E-3
795.985222E-3
796.632385E-3
796.487045E-3
796.117401E-3
796.109390E-3
795.521164E-3
796.165466E-3
795.914268E-3
795.616150E-3
795.639038E-3
794.919777E-3
795.498848E-3
795.065117E-3
794.937515E-3
795.014191E-3
794.649696E-3
795.215607E-3
795.299721E-3
796.373749E-3
798.324966E-3
800.406075E-3
804.577446E-3
807.888794E-3
811.283684E-3
814.748955E-3
816.523361E-3
818.446541E-3
818.436813E-3
817.871475E-3
817.172241E-3
815.573502E-3
814.964676E-3
813.606262E-3
812.191200E-3
811.533737E-3
809.917831E-3
810.052872E-3
809.246063E-3
808.818054E-3
809.005165E-3
808.259583E-3
808.739090E-3
808.101654E-3
806.855392E-3
806.826782E-3
805.922127E-3
806.172180E-3
806.083488E-3
805.997658E-3
806.746101E-3
806.662560E-3
807.593536E-3
807.867622E-3
807.612419E-3
808.190918E-3
807.709694E-3
808.474731E-3
808.118820E-3
807.571793E-3
807.736588E-3
806.958389E-3
807.191849E-3
806.497765E-3
805.634308E-3
805.409431E-3
804.339981E-3
804.526520E-3
803.969765E-3
803.325462E-3
803.411293E-3
802.563286E-3
803.073120E-3
802.845383E-3
802.546120E-3
803.033066E-3
802.622795E-3
803.308296E-3
802.951813E-3
802.775574E-3
803.211594E-3
802.738953E-3
803.584671E-3
803.387260E-3
803.229332E-3
803.613853E-3
803.055954E-3
803.636169E-3
803.566933E-3
803.216743E-3
803.373528E-3
802.655411E-3
803.093719E-3
802.793884E-3
802.425385E-3
802.602768E-3
802.040291E-3
802.242279E-3
802.032852E-3
801.593971E-3
801.854897E-3
801.158524E-3
801.449776E-3
800.887871E-3
800.294495E-3
800.325966E-3
799.483109E-3
799.514580E-3
799.289703E-3
798.363304E-3
798.918343E-3
798.772430E-3
800.048447E-3
801.593399E-3
803.507423E-3
806.821060E-3
809.549332E-3
813.092995E-3
815.959167E-3
817.604256E-3
819.144058E-3
819.099998E-3
819.290543E-3
818.400192E-3
816.578293E-3
816.011238E-3
813.903236E-3
812.777138E-3
811.186409E-3
809.370232E-3
809.171104E-3
808.079910E-3
807.901382E-3
807.568359E-3
806.179619E-3
807.254219E-3
806.115532E-3
805.828857E-3
805.490112E-3
804.667282E-3
805.280113E-3
804.527664E-3
805.232620E-3
805.850029E-3
805.939293E-3
807.133484E-3
806.580162E-3
807.286263E-3
807.446480E-3
807.000732E-3
807.773781E-3
806.575584E-3
806.362152E-3
805.792236E-3
804.693031E-3
804.611778E-3
803.168106E-3
802.753830E-3
802.122688E-3
801.120758E-3
801.060677E-3
799.801254E-3
799.868774E-3
799.608994E-3
798.867416E-3
799.263954E-3
798.359299E-3
798.392487E-3
798.522949E-3
798.110962E-3
798.942375E-3
798.266602E-3
798.282623E-3
798.634529E-3
798.327827E-3
798.980713E-3
798.171043E-3
798.257446E-3
798.256302E-3
797.777367E-3
798.307228E-3
797.397423E-3
797.275543E-3
797.486115E-3
797.188568E-3
797.660637E-3
796.908188E-3
797.082710E-3
797.309875E-3
796.721077E-3
797.198868E-3
796.073341E-3
795.969772E-3
795.850182E-3
794.948959E-3
795.387840E-3
794.341278E-3
794.265747E-3
794.319534E-3
793.305588E-3
794.323540E-3
793.738747E-3
794.305229E-3
795.623016E-3
797.050095E-3
800.418091E-3
803.108597E-3
806.858826E-3
810.278893E-3
812.739372E-3
815.334892E-3
815.402985E-3
815.611267E-3
815.383530E-3
813.935280E-3
813.290405E-3
811.295700E-3
810.212517E-3
809.108734E-3
807.531738E-3
807.237053E-3
805.958748E-3
805.923271E-3
806.003952E-3
805.264091E-3
806.152725E-3
805.621147E-3
805.245209E-3
804.821777E-3
803.842163E-3
804.043007E-3
803.232193E-3
803.212166E-3
803.362656E-3
802.523232E-3
804.331398E-3
804.388618E-3
804.883003E-3
805.384827E-3
805.171967E-3
805.786514E-3
805.016327E-3
804.763985E-3
804.698753E-3
803.150940E-3
803.740311E-3
802.694893E-3
802.242851E-3
801.868057E-3
800.901604E-3
801.038933E-3
800.075912E-3
799.474525E-3
799.372101E-3
798.348427E-3
798.726082E-3
797.953606E-3
797.706985E-3
797.965622E-3
797.332764E-3
798.136139E-3
797.767639E-3
797.867203E-3
798.639679E-3
798.006248E-3
798.350716E-3
797.874641E-3
797.844315E-3
797.955894E-3
797.377968E-3
798.014259E-3
797.701263E-3
797.350502E-3
797.635460E-3
797.274399E-3
797.919846E-3
797.196579E-3
797.252083E-3
797.078705E-3
796.285057E-3
796.817780E-3
796.436691E-3
796.026421E-3
796.146584E-3
795.473671E-3
795.971489E-3
795.560074E-3
795.229912E-3
795.169830E-3
794.321823E-3
794.704628E-3
794.017982E-3
793.426895E-3
793.462944E-3
792.761993E-3
793.287849E-3
793.192863E-3
793.895531E-3
796.109390E-3
798.071480E-3
802.028275E-3
805.415154E-3
808.613205E-3
811.816406E-3
813.219452E-3
815.321732E-3
815.539742E-3
814.993286E-3
814.371300E-3
813.009453E-3
812.432671E-3
810.808182E-3
809.592247E-3
808.549690E-3
807.206154E-3
807.324600E-3
806.429100E-3
805.718422E-3
805.526733E-3
805.099297E-3
805.888939E-3
805.549622E-3
805.008316E-3
805.208588E-3
804.247284E-3
804.779434E-3
804.388046E-3
804.263878E-3
804.881859E-3
804.748535E-3
805.751610E-3
805.835724E-3
806.132126E-3
806.789589E-3
806.592178E-3
807.284546E-3
806.901169E-3
806.425095E-3
806.534958E-3
805.562210E-3
805.377960E-3
805.187988E-3
804.172897E-3
803.993797E-3
802.931786E-3
803.412437E-3
