Notes :


2023-11-10 ¿ÀÈÄ 10:30:05
Volts
Ch : LED 2,
242.991829E-3
242.924309E-3
242.766953E-3
242.682266E-3
242.560959E-3
242.374420E-3
242.286873E-3
242.112350E-3
241.894913E-3
241.798210E-3
241.575623E-3
241.636848E-3
241.479492E-3
241.414261E-3
241.470337E-3
241.919518E-3
243.033600E-3
244.377136E-3
246.449089E-3
248.816872E-3
251.170921E-3
253.175354E-3
254.686546E-3
255.495071E-3
255.664444E-3
255.271339E-3
254.623604E-3
253.644562E-3
252.619171E-3
251.781464E-3
250.868797E-3
250.207901E-3
249.817657E-3
249.690056E-3
249.687767E-3
249.683762E-3
249.790764E-3
249.802780E-3
250.003052E-3
250.040245E-3
249.900055E-3
249.616241E-3
248.977661E-3
248.447800E-3
247.880745E-3
247.437286E-3
247.200966E-3
247.042465E-3
247.073364E-3
247.024155E-3
247.081375E-3
247.322845E-3
247.354317E-3
247.383499E-3
247.300529E-3
247.171211E-3
247.056770E-3
246.830750E-3
246.617317E-3
246.334076E-3
246.076012E-3
245.772171E-3
245.317268E-3
245.146179E-3
244.749069E-3
244.382286E-3
244.242096E-3
243.937111E-3
243.895912E-3
243.757439E-3
243.597794E-3
243.648148E-3
243.507957E-3
243.360329E-3
243.324280E-3
243.095970E-3
243.025017E-3
242.871094E-3
242.805290E-3
242.764664E-3
242.666817E-3
242.683411E-3
242.608452E-3
242.475128E-3
242.508888E-3
242.425346E-3
242.461395E-3
242.289734E-3
242.191887E-3
242.185593E-3
242.080307E-3
242.125511E-3
242.042542E-3
241.940689E-3
241.835976E-3
241.684341E-3
241.734695E-3
241.615105E-3
241.548157E-3
241.451454E-3
241.325569E-3
241.574478E-3
241.472626E-3
241.299248E-3
241.184235E-3
241.104698E-3
241.016579E-3
240.810585E-3
240.563393E-3
240.360832E-3
240.277290E-3
240.221214E-3
240.200043E-3
240.209198E-3
240.427780E-3
240.839767E-3
241.862297E-3
243.321991E-3
245.385933E-3
247.691345E-3
249.983025E-3
252.044678E-3
253.544426E-3
254.510880E-3
254.921722E-3
254.719162E-3
254.180145E-3
253.293228E-3
252.249527E-3
251.317406E-3
250.351524E-3
249.757576E-3
249.317551E-3
248.978233E-3
248.945618E-3
248.935318E-3
249.086380E-3
249.181938E-3
249.346161E-3
249.510384E-3
249.298096E-3
249.139595E-3
248.509598E-3
247.867012E-3
247.160339E-3
246.629333E-3
246.272278E-3
246.005630E-3
246.017647E-3
246.110344E-3
246.270561E-3
246.412468E-3
246.478271E-3
246.395302E-3
246.427917E-3
246.324921E-3
246.216202E-3
245.926094E-3
245.648575E-3
245.380783E-3
245.237732E-3
244.876099E-3
244.596863E-3
244.282722E-3
244.055557E-3
243.798065E-3
243.530273E-3
243.285370E-3
243.102264E-3
242.875099E-3
242.756081E-3
242.746353E-3
242.579269E-3
242.461395E-3
242.446518E-3
242.418480E-3
242.437363E-3
242.263412E-3
242.116928E-3
242.103195E-3
242.043114E-3
242.013359E-3
241.876602E-3
241.813660E-3
241.767311E-3
241.774178E-3
241.803360E-3
241.661453E-3
241.697502E-3
241.708374E-3
241.573906E-3
241.486931E-3
241.322708E-3
241.264343E-3
241.288376E-3
241.150475E-3
241.157341E-3
241.083527E-3
241.066933E-3
241.001701E-3
240.912437E-3
240.977669E-3
240.871811E-3
240.626335E-3
240.620613E-3
240.488434E-3
240.463829E-3
240.270424E-3
240.197754E-3
240.100479E-3
239.982605E-3
239.975166E-3
239.839554E-3
239.866447E-3
239.899635E-3
239.829826E-3
240.014076E-3
240.580559E-3
241.761589E-3
243.517685E-3
245.673752E-3
247.944260E-3
250.178146E-3
251.989746E-3
253.210258E-3
253.721237E-3
253.738403E-3
253.277779E-3
252.379417E-3
251.506805E-3
250.366402E-3
249.507523E-3
248.727036E-3
248.132515E-3
247.823524E-3
247.490501E-3
247.543144E-3
247.635269E-3
247.690201E-3
247.980309E-3
248.028946E-3
248.080444E-3
247.884178E-3
247.392082E-3
246.879959E-3
246.355820E-3
246.012497E-3
245.894051E-3
246.078300E-3
246.187592E-3
246.284866E-3
246.594429E-3
246.841621E-3
246.991539E-3
247.109985E-3
246.937752E-3
246.862221E-3
246.656227E-3
246.411896E-3
246.193886E-3
245.854568E-3
245.630836E-3
245.344734E-3
244.961929E-3
244.779396E-3
244.437790E-3
244.268990E-3
244.146538E-3
243.888474E-3
243.778610E-3
243.600655E-3
243.478203E-3
243.380928E-3
243.394089E-3
243.297386E-3
243.091965E-3
243.098831E-3
243.087387E-3
243.019867E-3
243.029594E-3
242.882538E-3
242.783546E-3
242.845345E-3
242.708588E-3
242.718315E-3
242.428780E-3
242.446518E-3
242.324066E-3
242.275429E-3
242.219925E-3
242.250824E-3
242.174721E-3
242.037964E-3
241.884041E-3
241.933823E-3
241.781044E-3
241.759872E-3
241.681480E-3
241.573906E-3
241.493797E-3
241.306686E-3
241.204834E-3
241.153908E-3
241.057205E-3
240.961647E-3
240.837479E-3
240.597725E-3
240.486145E-3
240.218353E-3
240.098763E-3
239.955711E-3
239.908218E-3
239.863014E-3
239.757729E-3
240.023232E-3
240.304184E-3
241.277504E-3
242.821884E-3
244.847488E-3
247.170067E-3
249.441719E-3
251.439285E-3
253.038025E-3
253.926659E-3
254.334641E-3
254.180717E-3
253.595924E-3
252.748489E-3
251.696777E-3
250.754356E-3
249.785042E-3
249.304962E-3
248.880959E-3
248.534203E-3
248.287582E-3
248.329353E-3
248.416328E-3
248.596573E-3
248.706436E-3
248.810005E-3
248.776817E-3
248.597717E-3
248.185730E-3
247.524261E-3
247.006989E-3
246.405602E-3
246.100044E-3
245.891190E-3
245.773888E-3
245.940399E-3
245.970726E-3
246.196175E-3
246.304321E-3
246.401596E-3
246.436501E-3
246.313477E-3
246.176720E-3
245.986176E-3
245.685768E-3
245.515823E-3
245.119286E-3
244.761086E-3
244.378853E-3
244.048119E-3
243.974304E-3
243.616104E-3
243.422699E-3
243.187523E-3
242.774963E-3
242.889404E-3
242.687416E-3
242.598152E-3
242.479706E-3
242.315483E-3
242.301178E-3
242.138100E-3
242.066574E-3
242.148399E-3
241.991615E-3
241.894341E-3
241.842842E-3
241.744995E-3
241.690636E-3
241.592216E-3
241.521835E-3
241.400528E-3
241.338158E-3
241.300964E-3
241.250038E-3
241.296387E-3
241.156769E-3
241.195679E-3
241.061211E-3
240.952492E-3
240.925026E-3
240.737343E-3
240.641785E-3
240.625191E-3
240.436935E-3
240.462112E-3
240.283012E-3
240.276718E-3
240.272141E-3
240.218353E-3
240.253830E-3
240.073586E-3
239.941406E-3
239.854431E-3
239.650154E-3
239.568329E-3
239.420128E-3
239.211845E-3
239.141464E-3
238.998985E-3
239.063072E-3
239.008141E-3
239.305115E-3
240.001488E-3
241.100693E-3
242.751503E-3
244.745064E-3
247.024155E-3
249.203110E-3
251.168633E-3
252.616310E-3
253.326988E-3
253.636551E-3
253.446007E-3
252.757072E-3
251.806068E-3
250.828171E-3
249.973297E-3
249.146461E-3
248.433495E-3
247.955704E-3
247.548294E-3
247.398376E-3
247.423553E-3
247.549438E-3
247.707939E-3
247.873306E-3
247.966576E-3
247.977448E-3
247.691917E-3
247.229576E-3
246.742058E-3
246.158981E-3
245.697212E-3
245.371056E-3
245.244598E-3
245.236015E-3
245.241165E-3
245.407104E-3
245.472908E-3
245.701218E-3
245.639420E-3
245.685768E-3
245.700073E-3
245.452309E-3
245.276642E-3
245.098686E-3
244.734764E-3
244.471550E-3
244.246674E-3
243.957138E-3
243.722534E-3
243.340874E-3
243.082237E-3
242.790413E-3
242.687416E-3
242.515755E-3
242.345238E-3
242.321777E-3
242.115784E-3
241.909218E-3
241.830254E-3
241.750717E-3
241.733551E-3
241.591644E-3
241.608238E-3
241.513252E-3
241.433144E-3
241.399956E-3
241.365051E-3
241.472054E-3
241.312408E-3
241.228867E-3
241.167068E-3
241.158485E-3
241.075516E-3
241.028595E-3
240.966797E-3
240.911293E-3
240.800858E-3
240.795135E-3
240.676689E-3
240.637779E-3
240.602303E-3
240.474701E-3
240.433502E-3
240.392876E-3
240.226936E-3
240.300751E-3
240.150261E-3
240.246391E-3
240.118217E-3
239.912796E-3
239.984894E-3
239.849854E-3
239.864731E-3
239.615822E-3
239.500809E-3
239.373207E-3
239.277649E-3
239.234161E-3
239.038467E-3
239.136314E-3
239.182091E-3
239.541435E-3
240.390587E-3
241.705513E-3
243.612099E-3
245.907784E-3
248.046112E-3
250.221634E-3
251.571465E-3
252.446365E-3
252.703285E-3
252.409744E-3
251.867867E-3
250.988388E-3
249.995613E-3
249.151611E-3
248.263550E-3
247.607803E-3
246.936607E-3
246.531487E-3
246.459389E-3
246.290588E-3
246.405602E-3
246.494865E-3
246.568108E-3
246.679115E-3
246.463966E-3
246.275711E-3
245.840836E-3
245.503807E-3
245.237160E-3
244.999695E-3
245.063782E-3
245.040321E-3
245.094681E-3
245.392227E-3
245.587921E-3
245.821953E-3
246.078873E-3
245.990753E-3
245.942116E-3
245.801353E-3
245.746422E-3
245.461464E-3
245.258904E-3
244.916725E-3
244.551659E-3
244.337654E-3
244.022369E-3
243.740845E-3
243.490791E-3
243.224716E-3
243.031311E-3
242.835045E-3
242.621613E-3
242.605019E-3
242.542648E-3
242.419052E-3
242.321777E-3
242.099762E-3
242.067719E-3
241.876602E-3
241.779327E-3
241.810799E-3
241.629982E-3
241.627693E-3
241.481209E-3
241.565895E-3
241.545296E-3
241.371918E-3
241.367912E-3
241.167068E-3
241.217995E-3
241.054916E-3
240.900421E-3
240.945625E-3
240.812874E-3
240.869522E-3
240.739632E-3
240.720749E-3
240.717316E-3
240.542221E-3
240.470695E-3
240.394592E-3
240.266991E-3
240.195465E-3
239.913940E-3
239.907074E-3
239.758301E-3
239.564323E-3
239.465904E-3
239.182091E-3
239.125443E-3
239.074516E-3
238.887405E-3
238.826752E-3
238.696861E-3
238.625336E-3
238.646507E-3
238.888550E-3
239.631844E-3
240.771675E-3
242.665100E-3
244.703293E-3
246.958351E-3
249.219704E-3
250.960922E-3
252.299881E-3
252.932739E-3
252.846909E-3
252.475548E-3
251.784897E-3
250.849915E-3
249.872589E-3
248.930168E-3
248.192024E-3
247.529984E-3
247.252464E-3
247.049332E-3
246.866226E-3
246.973228E-3
246.857643E-3
247.037315E-3
247.119141E-3
247.044754E-3
247.108269E-3
246.812439E-3
246.514893E-3
245.990753E-3
245.452881E-3
245.217133E-3
244.955635E-3
244.775963E-3
244.711876E-3
244.658089E-3
244.884109E-3
244.884682E-3
245.012283E-3
245.101547E-3
244.989967E-3
245.026016E-3
244.942474E-3
244.742775E-3
244.538498E-3
244.186020E-3
243.929672E-3
243.529129E-3
243.270493E-3
243.057060E-3
242.542076E-3
242.389870E-3
242.058563E-3
241.913223E-3
241.727829E-3
241.640282E-3
241.533279E-3
241.319275E-3
241.313553E-3
241.149902E-3
240.992546E-3
240.979958E-3
240.814590E-3
240.776825E-3
240.734482E-3
240.535355E-3
240.549088E-3
240.451813E-3
240.385437E-3
240.407181E-3
240.317345E-3
240.247536E-3
240.226936E-3
240.178299E-3
240.113640E-3
239.977455E-3
240.002632E-3
239.809799E-3
239.780045E-3
239.697075E-3
239.670753E-3
239.617538E-3
239.377785E-3
239.390373E-3
239.397240E-3
239.275360E-3
239.269066E-3
239.190674E-3
239.133453E-3
239.074516E-3
238.882256E-3
238.922310E-3
238.666534E-3
238.443375E-3
238.272285E-3
238.084030E-3
238.133812E-3
238.034248E-3
238.072586E-3
238.173866E-3
238.606453E-3
239.688492E-3
241.104698E-3
243.148613E-3
245.345879E-3
247.517395E-3
249.531555E-3
250.843620E-3
251.761436E-3
252.140808E-3
251.805496E-3
251.271629E-3
250.390434E-3
249.425125E-3
248.440933E-3
247.633553E-3
247.071075E-3
246.473694E-3
246.118355E-3
246.073151E-3
245.988464E-3
246.010780E-3
246.105766E-3
246.195602E-3
246.348953E-3
246.138382E-3
246.073151E-3
245.631981E-3
245.167351E-3
244.668388E-3
244.215202E-3
244.062424E-3
243.918228E-3
243.913651E-3
244.048119E-3
244.129372E-3
244.416618E-3
244.497299E-3
244.584274E-3
244.617462E-3
244.453239E-3
244.330788E-3
244.148827E-3
243.788338E-3
243.703079E-3
243.304825E-3
243.030739E-3
242.677116E-3
242.448807E-3
242.339516E-3
241.937828E-3
241.830826E-3
241.679192E-3
241.510391E-3
241.384506E-3
241.220284E-3
241.184807E-3
241.015434E-3
240.913010E-3
240.752220E-3
240.727043E-3
240.805435E-3
240.671539E-3
240.661812E-3
240.622330E-3
240.439224E-3
240.482712E-3
240.295601E-3
240.182304E-3
240.292740E-3
240.268707E-3
240.395737E-3
240.403748E-3
240.452385E-3
240.455818E-3
240.336800E-3
240.392876E-3
240.206337E-3
240.115356E-3
240.111923E-3
239.931107E-3
240.005493E-3
239.860725E-3
239.793777E-3
239.872742E-3
239.802361E-3
239.830399E-3
239.604378E-3
239.500237E-3
239.356041E-3
239.035034E-3
238.956642E-3
238.930321E-3
238.732910E-3
238.685989E-3
238.592148E-3
238.586426E-3
238.824463E-3
239.378929E-3
240.468407E-3
241.928673E-3
243.983459E-3
245.954132E-3
248.078728E-3
249.775887E-3
250.943184E-3
251.515388E-3
251.445580E-3
251.124001E-3
250.559235E-3
249.569321E-3
248.616600E-3
247.729683E-3
246.839905E-3
246.273994E-3
245.823097E-3
245.541573E-3
245.356750E-3
245.322418E-3
245.495224E-3
245.488930E-3
245.667458E-3
245.594215E-3
245.387077E-3
245.049477E-3
244.538498E-3
244.305611E-3
244.144249E-3
244.053268E-3
244.377708E-3
244.389153E-3
244.572830E-3
244.789696E-3
244.973373E-3
245.236588E-3
245.331573E-3
245.221138E-3
245.162201E-3
244.873810E-3
244.687271E-3
244.408607E-3
244.220924E-3
243.941116E-3
243.531418E-3
243.259621E-3
243.076515E-3
242.916870E-3
242.685127E-3
242.404747E-3
242.297745E-3
242.056847E-3
242.043114E-3
241.921806E-3
241.780472E-3
241.734695E-3
241.481209E-3
241.446877E-3
241.382790E-3
241.311264E-3
241.295242E-3
241.133308E-3
241.142464E-3
241.169357E-3
240.850067E-3
240.978813E-3
240.804863E-3
240.778542E-3
240.673828E-3
240.600014E-3
240.614891E-3
240.529633E-3
240.493011E-3
240.476990E-3
240.355110E-3
240.387154E-3
240.158272E-3
240.150833E-3
240.090179E-3
239.992332E-3
239.992332E-3
239.841843E-3
239.734840E-3
239.764023E-3
239.558601E-3
239.336586E-3
239.113998E-3
239.048195E-3
238.859940E-3
238.761520E-3
238.840485E-3
238.731766E-3
238.831902E-3
239.136887E-3
239.793777E-3
241.188240E-3
242.960930E-3
245.155334E-3
247.299957E-3
249.257469E-3
250.986671E-3
251.950836E-3
252.485847E-3
252.443504E-3
251.961708E-3
251.334572E-3
250.451088E-3
249.584198E-3
248.776817E-3
248.087883E-3
247.671318E-3
247.275925E-3
247.151184E-3
247.097969E-3
247.104263E-3
247.283363E-3
247.261047E-3
247.497940E-3
247.493362E-3
247.342873E-3
247.024155E-3
246.341515E-3
245.773315E-3
245.316124E-3
245.011139E-3
245.004845E-3
244.826317E-3
244.843483E-3
245.008850E-3
245.148468E-3
245.333862E-3
245.348740E-3
245.462036E-3
245.391083E-3
245.035744E-3
244.973373E-3
244.680405E-3
244.478416E-3
244.259834E-3
243.890762E-3
243.751144E-3
243.292236E-3
243.146896E-3
242.969513E-3
242.657089E-3
242.485428E-3
242.110634E-3
242.106056E-3
241.920090E-3
241.716957E-3
241.679764E-3
241.541290E-3
241.520119E-3
241.516113E-3
241.339874E-3
241.371346E-3
241.143036E-3
241.088676E-3
241.058350E-3
240.823174E-3
240.898132E-3
240.714455E-3
240.802574E-3
240.749359E-3
240.727043E-3
240.723610E-3
240.661240E-3
240.577126E-3
240.359688E-3
240.330505E-3
240.277863E-3
240.201187E-3
240.205765E-3
240.170860E-3
240.050125E-3
240.110779E-3
240.016937E-3
240.105057E-3
240.054131E-3
239.916229E-3
239.834404E-3
239.626694E-3
239.468193E-3
239.347458E-3
239.118004E-3
238.998413E-3
238.728333E-3
238.661957E-3
238.796425E-3
238.772964E-3
238.972664E-3
239.093971E-3
239.741135E-3
240.956497E-3
242.446518E-3
244.420052E-3
246.541214E-3
248.617744E-3
250.439072E-3
251.743126E-3
252.521896E-3
252.630615E-3
252.215195E-3
251.722527E-3
250.805283E-3
249.936676E-3
249.083519E-3
248.188019E-3
247.719955E-3
