Notes :


2023-11-04 ¿ÀÈÄ 6:54:18
Volts
Ch : LED 2,
437.867546E-3
437.715340E-3
437.836075E-3
437.731934E-3
437.675858E-3
437.663269E-3
437.659264E-3
437.527084E-3
437.103081E-3
436.870193E-3
436.561203E-3
435.871696E-3
435.618210E-3
435.346985E-3
434.752464E-3
434.272385E-3
434.335899E-3
434.069252E-3
433.818054E-3
433.721924E-3
433.956528E-3
434.033203E-3
434.767342E-3
436.446190E-3
439.370155E-3
442.834282E-3
446.815681E-3
451.152420E-3
455.227089E-3
458.600807E-3
461.293602E-3
462.597084E-3
463.009071E-3
461.945915E-3
460.562897E-3
458.874321E-3
456.937981E-3
455.037117E-3
453.590584E-3
452.443886E-3
451.593590E-3
450.723839E-3
451.122093E-3
451.428795E-3
451.665688E-3
451.917458E-3
451.911736E-3
452.049637E-3
451.655388E-3
450.732994E-3
449.741364E-3
448.802948E-3
448.130035E-3
447.640228E-3
447.625923E-3
447.850800E-3
448.279953E-3
448.555756E-3
448.831558E-3
449.170303E-3
449.348831E-3
449.044418E-3
448.697662E-3
448.215294E-3
447.692871E-3
447.033691E-3
446.456337E-3
445.855522E-3
445.348549E-3
444.585800E-3
443.844795E-3
443.033409E-3
442.340469E-3
441.645241E-3
441.117096E-3
440.678787E-3
440.230751E-3
439.883995E-3
439.514351E-3
439.319801E-3
439.306641E-3
439.192772E-3
439.030838E-3
438.729286E-3
438.520432E-3
438.410568E-3
438.163948E-3
437.920189E-3
437.601471E-3
437.378311E-3
437.119675E-3
436.929131E-3
436.885643E-3
436.915398E-3
436.518288E-3
436.105728E-3
435.856247E-3
435.670853E-3
435.317802E-3
435.002518E-3
435.006523E-3
434.841728E-3
434.711838E-3
434.448624E-3
434.340477E-3
434.167671E-3
433.811760E-3
433.435822E-3
432.932281E-3
432.609558E-3
432.183838E-3
431.893158E-3
431.481743E-3
431.108665E-3
430.657768E-3
430.334473E-3
430.354500E-3
430.492973E-3
430.582809E-3
431.059456E-3
432.397270E-3
434.696388E-3
437.804604E-3
441.527367E-3
445.572853E-3
449.601173E-3
453.109360E-3
455.752945E-3
457.257843E-3
457.818604E-3
457.322502E-3
456.110001E-3
454.342461E-3
452.318573E-3
450.363350E-3
448.630714E-3
447.251701E-3
446.272087E-3
445.838356E-3
445.543671E-3
445.519066E-3
445.743370E-3
446.034050E-3
446.176529E-3
446.067810E-3
445.753670E-3
444.847298E-3
444.018745E-3
443.002510E-3
442.296410E-3
442.100143E-3
442.032623E-3
442.374229E-3
442.825699E-3
443.314362E-3
443.690872E-3
443.996429E-3
444.095421E-3
443.871117E-3
443.307495E-3
442.724991E-3
442.103004E-3
441.341972E-3
440.627289E-3
439.897728E-3
439.201927E-3
438.315582E-3
437.447548E-3
436.643028E-3
436.105728E-3
435.626793E-3
435.240555E-3
435.277176E-3
434.949303E-3
434.733582E-3
434.576797E-3
434.474373E-3
434.537888E-3
434.609413E-3
434.619141E-3
434.771919E-3
434.624290E-3
434.638596E-3
434.627724E-3
434.619141E-3
434.642601E-3
434.513283E-3
434.512711E-3
434.486961E-3
434.632301E-3
434.351921E-3
434.414864E-3
434.368515E-3
434.372520E-3
434.251785E-3
434.038353E-3
433.946800E-3
433.756256E-3
433.493614E-3
433.396912E-3
433.162308E-3
432.978630E-3
432.822418E-3
432.341194E-3
431.963539E-3
431.672859E-3
431.327248E-3
430.873489E-3
430.752754E-3
430.510139E-3
430.386543E-3
430.406570E-3
430.903244E-3
432.127762E-3
434.216881E-3
437.195206E-3
440.798378E-3
444.596672E-3
448.877335E-3
452.703667E-3
455.829048E-3
457.919312E-3
458.866310E-3
458.790779E-3
457.855225E-3
456.319427E-3
454.702950E-3
452.737427E-3
451.043701E-3
449.504471E-3
448.358917E-3
447.548103E-3
447.239113E-3
447.118378E-3
447.104073E-3
447.274017E-3
447.389030E-3
447.433090E-3
447.290039E-3
446.668053E-3
445.938492E-3
445.226097E-3
444.403267E-3
444.238472E-3
444.230461E-3
444.531441E-3
445.130539E-3
445.533943E-3
445.905304E-3
446.278381E-3
446.545029E-3
446.407700E-3
446.397972E-3
446.203423E-3
445.732498E-3
445.252419E-3
444.528580E-3
443.936920E-3
443.230247E-3
442.265511E-3
441.006660E-3
440.219307E-3
439.498901E-3
438.842583E-3
438.468361E-3
438.106155E-3
437.935066E-3
437.877846E-3
437.816048E-3
437.921333E-3
437.840652E-3
437.635231E-3
437.326813E-3
437.092209E-3
437.093353E-3
437.183762E-3
437.073326E-3
437.131691E-3
437.167168E-3
437.058449E-3
437.034988E-3
437.132263E-3
437.206078E-3
437.010384E-3
436.683083E-3
436.541176E-3
436.489677E-3
436.358070E-3
436.145782E-3
436.001015E-3
435.882568E-3
435.681725E-3
435.520935E-3
435.375595E-3
435.238838E-3
435.063744E-3
434.976196E-3
434.505844E-3
434.034348E-3
433.589745E-3
433.381462E-3
432.982635E-3
432.691383E-3
432.433319E-3
432.056808E-3
431.974983E-3
432.023621E-3
432.176399E-3
432.786942E-3
434.245491E-3
436.809540E-3
440.271950E-3
443.999290E-3
448.466492E-3
452.648163E-3
456.566048E-3
459.385300E-3
461.207771E-3
461.874962E-3
461.476135E-3
460.279083E-3
458.476639E-3
456.360626E-3
454.362488E-3
452.537155E-3
451.187325E-3
450.256920E-3
449.695587E-3
449.601746E-3
449.665260E-3
449.910736E-3
450.000000E-3
450.182533E-3
450.393677E-3
450.280380E-3
449.857521E-3
449.075317E-3
448.174095E-3
447.439384E-3
447.041130E-3
446.681786E-3
446.317863E-3
446.323013E-3
446.415138E-3
446.560478E-3
446.932411E-3
446.990204E-3
446.898651E-3
446.714973E-3
446.404266E-3
446.040916E-3
445.509911E-3
444.807816E-3
443.881416E-3
443.068886E-3
442.191696E-3
441.427803E-3
440.383530E-3
439.877701E-3
439.355850E-3
439.054298E-3
438.737297E-3
438.469505E-3
438.414574E-3
438.058090E-3
437.852097E-3
437.654114E-3
437.326241E-3
437.186050E-3
436.931419E-3
436.898232E-3
436.735153E-3
436.721420E-3
436.656189E-3
436.580658E-3
436.535454E-3
436.240768E-3
436.149216E-3
435.868263E-3
435.613632E-3
435.447121E-3
435.067749E-3
434.895515E-3
434.640312E-3
434.391403E-3
434.226608E-3
434.032059E-3
433.958817E-3
433.950806E-3
433.595467E-3
433.210373E-3
432.886505E-3
432.615852E-3
432.236481E-3
431.743240E-3
431.485176E-3
431.120110E-3
430.874062E-3
430.634880E-3
430.365944E-3
430.163956E-3
429.701042E-3
429.505920E-3
429.387474E-3
429.360580E-3
429.645538E-3
430.794525E-3
433.020401E-3
436.267090E-3
439.818764E-3
444.103432E-3
448.338890E-3
451.965523E-3
454.526138E-3
456.039047E-3
456.425858E-3
455.799866E-3
454.457474E-3
452.371788E-3
450.347328E-3
448.308563E-3
446.532440E-3
445.116806E-3
444.126892E-3
443.324089E-3
442.941284E-3
442.651749E-3
442.497253E-3
442.803955E-3
442.952728E-3
443.065453E-3
442.928696E-3
442.409134E-3
441.582298E-3
440.837860E-3
440.458488E-3
440.161514E-3
440.020180E-3
440.156937E-3
440.542603E-3
441.071892E-3
441.660690E-3
442.095566E-3
442.319870E-3
442.430878E-3
442.363358E-3
442.013741E-3
441.404343E-3
440.735435E-3
439.955521E-3
439.262581E-3
438.434601E-3
437.587166E-3
436.784363E-3
436.052513E-3
435.475731E-3
434.988213E-3
434.752464E-3
434.650612E-3
434.432030E-3
434.147644E-3
434.024620E-3
433.723640E-3
433.530235E-3
433.366013E-3
433.394051E-3
433.431816E-3
433.617783E-3
433.816338E-3
433.906174E-3
433.986282E-3
433.811188E-3
433.659554E-3
433.545113E-3
433.412361E-3
433.394051E-3
433.427238E-3
433.360863E-3
433.387756E-3
433.460426E-3
433.498764E-3
433.289909E-3
433.015251E-3
432.711983E-3
432.476807E-3
432.181549E-3
431.886864E-3
431.524086E-3
431.070900E-3
430.916977E-3
430.668640E-3
430.511856E-3
430.201149E-3
430.220032E-3
429.984856E-3
429.733086E-3
429.533386E-3
429.534531E-3
430.285263E-3
431.987572E-3
434.853172E-3
438.387108E-3
442.430878E-3
446.662331E-3
450.646019E-3
454.040337E-3
456.095695E-3
457.012939E-3
456.874466E-3
455.837631E-3
454.286385E-3
452.434158E-3
450.408554E-3
448.670769E-3
447.134399E-3
445.979691E-3
445.080757E-3
444.627571E-3
444.427299E-3
444.318008E-3
444.299698E-3
444.445610E-3
444.485092E-3
444.440460E-3
443.988991E-3
443.449402E-3
442.749596E-3
442.129898E-3
441.890717E-3
441.816902E-3
442.169380E-3
442.155075E-3
442.647171E-3
443.198776E-3
443.603897E-3
444.015884E-3
444.136047E-3
444.116592E-3
443.944931E-3
443.559265E-3
443.223953E-3
442.615128E-3
441.975403E-3
441.260147E-3
440.424728E-3
439.418793E-3
438.566208E-3
437.824631E-3
437.221527E-3
436.443329E-3
436.310577E-3
436.197853E-3
436.031342E-3
435.912323E-3
435.864830E-3
435.773849E-3
435.649681E-3
435.497475E-3
435.193634E-3
435.160446E-3
435.127831E-3
435.137558E-3
435.174179E-3
435.253143E-3
435.229111E-3
435.147858E-3
435.243988E-3
435.265732E-3
435.125542E-3
435.056305E-3
434.903526E-3
434.738731E-3
434.615135E-3
434.506989E-3
434.607697E-3
434.480095E-3
434.326172E-3
434.230614E-3
434.111023E-3
433.840370E-3
433.561707E-3
433.181763E-3
432.927132E-3
432.800674E-3
432.309723E-3
432.004738E-3
431.692886E-3
431.423950E-3
431.201935E-3
430.951309E-3
430.835152E-3
430.843163E-3
430.920410E-3
431.461143E-3
432.967186E-3
435.606194E-3
439.090347E-3
443.252563E-3
447.628212E-3
451.820183E-3
455.528641E-3
458.125305E-3
460.043907E-3
460.479927E-3
459.888268E-3
458.659744E-3
456.828690E-3
454.740715E-3
452.735138E-3
450.862312E-3
449.307632E-3
448.462486E-3
447.894287E-3
447.821617E-3
447.698593E-3
447.811317E-3
448.178673E-3
448.525429E-3
448.799515E-3
448.606682E-3
448.314857E-3
447.648239E-3
446.825981E-3
446.261787E-3
445.625496E-3
445.286751E-3
445.101929E-3
445.241547E-3
445.583153E-3
445.988274E-3
446.222878E-3
446.361923E-3
446.431160E-3
446.435165E-3
446.239471E-3
445.990562E-3
445.406342E-3
444.669914E-3
443.813896E-3
442.846298E-3
442.030907E-3
441.172600E-3
440.269089E-3
439.541817E-3
438.936424E-3
438.573074E-3
438.287544E-3
438.133621E-3
437.962532E-3
437.605476E-3
437.254143E-3
437.041283E-3
436.656189E-3
436.495972E-3
436.216164E-3
436.267662E-3
436.161804E-3
436.205292E-3
436.299706E-3
436.376381E-3
436.462784E-3
436.265373E-3
435.886002E-3
435.885429E-3
435.567284E-3
435.318375E-3
435.020828E-3
434.920120E-3
434.738731E-3
434.544182E-3
434.484100E-3
434.477234E-3
434.393692E-3
434.323311E-3
433.936501E-3
433.581161E-3
433.239555E-3
432.861328E-3
432.638168E-3
432.287979E-3
432.043648E-3
431.755829E-3
431.480026E-3
431.317520E-3
430.892372E-3
430.474663E-3
430.046654E-3
429.872131E-3
429.705620E-3
429.516792E-3
430.230904E-3
431.870842E-3
434.604836E-3
438.197136E-3
442.335892E-3
446.633148E-3
450.787926E-3
454.076385E-3
456.317139E-3
457.395172E-3
457.261276E-3
456.132889E-3
454.376793E-3
452.407265E-3
450.151062E-3
448.397827E-3
446.655464E-3
445.293617E-3
444.404411E-3
443.839645E-3
443.479729E-3
443.245697E-3
443.362999E-3
443.610191E-3
443.643951E-3
443.771553E-3
443.015099E-3
442.252922E-3
441.760826E-3
441.096497E-3
440.479660E-3
440.431595E-3
440.701675E-3
440.713692E-3
441.039848E-3
441.481590E-3
442.116737E-3
442.346764E-3
442.406845E-3
442.420006E-3
442.283249E-3
442.092133E-3
441.657257E-3
440.810394E-3
439.858246E-3
438.913536E-3
437.994576E-3
437.036133E-3
436.169815E-3
435.461998E-3
434.914970E-3
434.628868E-3
434.187698E-3
434.029198E-3
433.796310E-3
433.573723E-3
433.225822E-3
432.820129E-3
432.744598E-3
432.555771E-3
432.533455E-3
432.355499E-3
432.263374E-3
432.253075E-3
432.160950E-3
432.211876E-3
432.295418E-3
432.293701E-3
432.191277E-3
432.241058E-3
431.996155E-3
431.871986E-3
431.765556E-3
431.698036E-3
431.687737E-3
431.692314E-3
431.667709E-3
431.577873E-3
431.488609E-3
431.236267E-3
430.978775E-3
430.757332E-3
430.511284E-3
430.212021E-3
429.773712E-3
429.802895E-3
429.226112E-3
428.675079E-3
428.231049E-3
428.050804E-3
427.947235E-3
427.895164E-3
427.820778E-3
428.001595E-3
428.896523E-3
430.612564E-3
433.469582E-3
437.064743E-3
441.108513E-3
445.113945E-3
448.872185E-3
452.016449E-3
454.182243E-3
455.207062E-3
455.059433E-3
454.130173E-3
452.490234E-3
450.355339E-3
448.365784E-3
446.457481E-3
444.871902E-3
443.651390E-3
442.738724E-3
442.445183E-3
442.255211E-3
442.393112E-3
442.600250E-3
442.742157E-3
442.861748E-3
442.639732E-3
442.152214E-3
441.557693E-3
441.066742E-3
440.786362E-3
440.813255E-3
441.035271E-3
441.494179E-3
442.192268E-3
443.151283E-3
443.682289E-3
444.053650E-3
444.236755E-3
444.383812E-3
444.116020E-3
443.615913E-3
443.164444E-3
442.721558E-3
441.998291E-3
441.242409E-3
440.846443E-3
439.946938E-3
438.982773E-3
438.094139E-3
437.388611E-3
436.814117E-3
436.262512E-3
435.793304E-3
435.531235E-3
435.400200E-3
435.121536E-3
435.102081E-3
435.080338E-3
435.133553E-3
434.968185E-3
435.026550E-3
435.036278E-3
434.916687E-3
434.822845E-3
434.854889E-3
434.919548E-3
434.895515E-3
434.819412E-3
434.888077E-3
435.057449E-3
434.848595E-3
434.940147E-3
434.996796E-3
434.977341E-3
434.739876E-3
434.405136E-3
434.275246E-3
434.234619E-3
434.078407E-3
433.676147E-3
433.727074E-3
433.715630E-3
433.411789E-3
433.232689E-3
433.269882E-3
432.986069E-3
432.534027E-3
431.952095E-3
431.829643E-3
431.340981E-3
430.773354E-3
430.540466E-3
430.657768E-3
430.654907E-3
431.168747E-3
432.272530E-3
434.661484E-3
437.829781E-3
441.396904E-3
445.549393E-3
449.949074E-3
454.053497E-3
457.263565E-3
459.338951E-3
460.393524E-3
460.330009E-3
459.453964E-3
457.809448E-3
455.810165E-3
453.561401E-3
451.393318E-3
449.581146E-3
448.376656E-3
447.634506E-3
447.113228E-3
446.980476E-3
447.274590E-3
447.640800E-3
448.049927E-3
448.410988E-3
448.576927E-3
448.288536E-3
447.427940E-3
446.469498E-3
445.718765E-3
444.991493E-3
444.615555E-3
444.660759E-3
444.815826E-3
445.256996E-3
445.751953E-3
446.070671E-3
446.720695E-3
446.955299E-3
446.847153E-3
446.652603E-3
446.246338E-3
445.620346E-3
444.950294E-3
444.233894E-3
443.299484E-3
442.594528E-3
441.921043E-3
441.165161E-3
440.587234E-3
439.958382E-3
439.540672E-3
439.138412E-3
438.791656E-3
438.675499E-3
438.346481E-3
438.142776E-3
437.936211E-3
437.697601E-3
437.623787E-3
437.590599E-3
437.616348E-3
437.667847E-3
437.604332E-3
437.557983E-3
437.364578E-3
437.228394E-3
437.022972E-3
436.914253E-3
436.868477E-3
436.854744E-3
436.719704E-3
436.745453E-3
436.598969E-3
436.545753E-3
436.312866E-3
436.038208E-3
435.734367E-3
435.467720E-3
435.266876E-3
434.931564E-3
434.631729E-3
434.413719E-3
434.217453E-3
434.006310E-3
433.856964E-3
433.644676E-3
433.461571E-3
433.082199E-3
432.726860E-3
432.274818E-3
431.849098E-3
431.556129E-3
431.357574E-3
431.466866E-3
431.580162E-3
432.362938E-3
434.133911E-3
436.876488E-3
440.397263E-3
444.369507E-3
448.570633E-3
452.651596E-3
456.126595E-3
458.532143E-3
459.685135E-3
460.031891E-3
459.225082E-3
457.609177E-3
455.703163E-3
453.680420E-3
451.601601E-3
449.725342E-3
448.056793E-3
446.995354E-3
446.230888E-3
446.016312E-3
446.018028E-3
446.108437E-3
446.534729E-3
446.784210E-3
447.008514E-3
446.944427E-3
446.270943E-3
445.314217E-3
444.344330E-3
443.694305E-3
443.377876E-3
443.237686E-3
443.440247E-3
443.900871E-3
444.420433E-3
444.912529E-3
445.548248E-3
445.589447E-3
445.460701E-3
445.164871E-3
444.546890E-3
443.762970E-3
443.086624E-3
442.180252E-3
441.368866E-3
440.415001E-3
439.530945E-3
438.828278E-3
