Notes :


2023-11-13 ¿ÀÀü 12:38:01
Volts
Ch : LED 2,
928.357315E-3
928.347588E-3
928.290939E-3
928.214264E-3
928.166771E-3
928.110695E-3
928.177071E-3
927.945328E-3
928.054619E-3
927.984810E-3
927.971077E-3
928.107262E-3
928.326416E-3
928.804779E-3
929.708290E-3
930.994606E-3
932.738113E-3
934.462738E-3
936.130714E-3
937.438202E-3
938.575172E-3
939.515305E-3
939.903831E-3
940.184784E-3
940.091515E-3
939.646912E-3
939.472389E-3
938.923645E-3
938.582611E-3
938.260460E-3
937.754631E-3
937.611008E-3
937.386703E-3
937.304306E-3
937.165833E-3
937.149239E-3
937.220192E-3
936.733818E-3
936.654854E-3
936.404228E-3
936.075211E-3
935.739899E-3
935.343361E-3
935.072708E-3
935.158539E-3
934.973145E-3
935.040092E-3
935.038376E-3
935.271835E-3
935.359383E-3
935.387993E-3
935.472679E-3
935.489845E-3
935.366821E-3
935.208321E-3
935.077858E-3
934.874725E-3
934.626389E-3
934.537697E-3
934.404945E-3
934.023857E-3
933.891106E-3
933.676529E-3
933.516884E-3
933.419609E-3
933.245087E-3
933.201599E-3
932.942390E-3
932.939529E-3
932.799339E-3
932.458305E-3
932.298660E-3
932.452583E-3
932.379913E-3
932.446861E-3
932.155037E-3
932.050896E-3
931.932449E-3
931.821442E-3
931.838608E-3
931.587410E-3
931.670380E-3
931.483269E-3
931.572533E-3
931.551933E-3
931.430054E-3
931.465530E-3
931.495857E-3
931.368256E-3
931.351662E-3
931.277275E-3
931.192017E-3
931.110764E-3
931.036949E-3
930.903053E-3
930.727386E-3
930.597496E-3
930.364609E-3
930.481339E-3
930.249023E-3
930.212975E-3
930.327988E-3
930.587196E-3
931.320190E-3
932.537270E-3
933.855629E-3
935.544205E-3
937.147522E-3
938.452721E-3
939.596558E-3
940.239143E-3
940.855408E-3
940.967560E-3
940.910339E-3
940.799332E-3
940.180779E-3
939.809418E-3
939.313889E-3
938.928795E-3
938.730812E-3
938.418961E-3
938.264465E-3
938.166046E-3
938.009834E-3
938.134003E-3
938.171768E-3
938.186646E-3
938.146591E-3
937.851334E-3
937.606430E-3
937.089157E-3
936.803627E-3
936.646843E-3
936.404228E-3
936.300087E-3
936.121559E-3
936.395645E-3
936.346436E-3
936.505508E-3
936.615372E-3
936.622238E-3
936.623955E-3
936.518097E-3
936.383057E-3
936.326981E-3
936.141014E-3
936.011124E-3
935.813713E-3
935.554504E-3
935.422325E-3
935.093880E-3
935.104752E-3
934.856415E-3
934.681892E-3
934.645271E-3
934.333420E-3
934.337425E-3
934.232140E-3
934.083366E-3
934.071350E-3
933.900833E-3
933.841324E-3
933.694839E-3
933.714294E-3
933.612442E-3
933.300591E-3
933.375549E-3
933.253670E-3
933.139801E-3
933.104324E-3
932.988167E-3
933.010483E-3
932.962418E-3
932.881737E-3
932.898903E-3
932.954407E-3
932.936668E-3
932.793617E-3
932.657433E-3
932.670593E-3
932.625961E-3
932.628250E-3
932.569885E-3
932.445717E-3
932.387924E-3
932.144165E-3
932.146454E-3
932.098389E-3
931.887817E-3
931.830025E-3
931.534195E-3
931.523323E-3
931.353378E-3
931.230354E-3
931.292152E-3
931.268120E-3
931.918716E-3
933.054543E-3
934.287071E-3
935.883522E-3
937.469101E-3
939.091301E-3
940.356445E-3
941.248512E-3
941.893959E-3
942.058182E-3
942.111397E-3
941.844177E-3
941.379547E-3
940.983009E-3
940.438843E-3
939.867783E-3
939.614296E-3
939.190865E-3
939.118767E-3
938.796043E-3
938.845253E-3
938.858986E-3
938.801765E-3
938.821220E-3
938.828659E-3
938.643265E-3
938.345146E-3
937.897110E-3
937.618446E-3
937.100601E-3
937.044525E-3
936.726379E-3
936.701775E-3
936.734390E-3
936.665726E-3
936.701202E-3
936.813354E-3
936.898041E-3
936.892319E-3
936.848831E-3
936.749840E-3
936.674309E-3
936.427116E-3
936.294365E-3
936.094093E-3
935.853195E-3
935.596848E-3
935.369110E-3
935.189438E-3
935.065842E-3
934.826088E-3
934.691620E-3
934.387779E-3
934.391212E-3
934.095383E-3
934.126854E-3
933.990669E-3
933.919144E-3
933.785820E-3
933.483696E-3
933.531761E-3
933.362961E-3
933.290291E-3
933.135796E-3
932.925224E-3
932.942963E-3
932.763863E-3
932.807922E-3
932.752419E-3
932.658577E-3
932.672882E-3
932.529259E-3
932.450294E-3
932.546425E-3
932.346153E-3
932.312393E-3
932.548714E-3
932.414246E-3
932.259750E-3
932.189369E-3
932.192802E-3
932.098389E-3
931.865501E-3
931.930161E-3
931.649208E-3
931.619453E-3
931.348801E-3
931.189728E-3
931.112480E-3
930.763435E-3
930.788040E-3
930.608940E-3
930.588341E-3
930.458450E-3
930.485916E-3
930.688477E-3
931.223488E-3
932.356453E-3
933.843040E-3
935.177422E-3
936.908340E-3
938.433838E-3
939.470673E-3
940.271759E-3
940.689468E-3
940.837097E-3
940.787315E-3
940.340996E-3
940.040016E-3
939.317894E-3
938.923073E-3
938.307381E-3
937.818146E-3
937.441063E-3
937.182999E-3
937.010765E-3
936.913490E-3
936.808777E-3
936.837959E-3
936.568451E-3
936.597633E-3
936.478615E-3
936.151886E-3
935.777092E-3
935.427475E-3
935.237503E-3
935.116196E-3
935.062408E-3
935.108185E-3
935.224915E-3
935.299873E-3
935.503578E-3
935.587120E-3
935.643196E-3
935.503578E-3
935.635757E-3
935.379982E-3
935.360527E-3
935.092735E-3
934.872437E-3
934.617805E-3
934.310532E-3
934.065628E-3
933.881950E-3
933.532333E-3
933.397865E-3
933.092880E-3
932.885170E-3
932.811928E-3
932.644272E-3
932.728958E-3
932.590485E-3
932.346725E-3
932.331276E-3
932.102966E-3
932.054901E-3
932.044029E-3
931.807709E-3
931.813431E-3
931.723595E-3
931.621170E-3
931.618309E-3
931.459808E-3
931.484413E-3
931.308746E-3
931.299019E-3
931.318474E-3
931.247520E-3
931.348228E-3
931.139374E-3
931.109047E-3
931.218338E-3
931.120491E-3
931.229782E-3
930.928802E-3
931.071854E-3
930.948830E-3
930.746269E-3
930.707359E-3
930.463600E-3
930.313683E-3
930.178070E-3
929.954910E-3
929.869080E-3
929.631042E-3
929.683685E-3
929.620743E-3
929.653931E-3
930.315971E-3
931.167412E-3
932.456589E-3
934.037018E-3
935.717583E-3
937.343788E-3
938.729095E-3
939.719009E-3
940.461159E-3
940.712929E-3
940.904617E-3
940.579605E-3
940.172768E-3
939.540482E-3
938.998032E-3
938.548279E-3
938.113403E-3
937.833595E-3
937.503433E-3
937.262535E-3
937.236786E-3
937.087440E-3
937.064552E-3
937.094879E-3
936.872864E-3
936.962700E-3
936.485481E-3
936.228561E-3
935.928726E-3
935.560226E-3
935.579681E-3
935.270119E-3
935.341072E-3
935.285568E-3
935.353661E-3
935.611153E-3
935.774231E-3
935.837173E-3
935.848618E-3
935.852051E-3
935.966492E-3
935.889816E-3
935.750771E-3
935.553360E-3
935.351944E-3
935.148811E-3
934.840393E-3
934.744835E-3
934.636116E-3
934.298515E-3
934.325981E-3
934.020996E-3
933.805847E-3
933.810425E-3
933.543205E-3
933.582687E-3
933.348083E-3
933.363533E-3
933.297729E-3
933.179855E-3
933.175850E-3
932.941246E-3
932.901192E-3
932.873726E-3
932.667732E-3
932.714653E-3
932.490921E-3
932.633400E-3
932.489777E-3
932.292366E-3
932.312393E-3
932.174492E-3
932.201385E-3
932.228279E-3
931.991386E-3
931.990814E-3
931.781960E-3
931.906700E-3
931.775093E-3
931.703568E-3
931.784821E-3
931.487846E-3
931.606293E-3
931.594276E-3
931.435204E-3
931.359100E-3
931.020927E-3
930.929947E-3
930.822945E-3
930.571747E-3
930.579185E-3
930.297661E-3
930.215263E-3
930.263329E-3
930.002975E-3
930.229568E-3
930.834389E-3
931.785965E-3
933.049965E-3
934.736824E-3
936.550713E-3
938.089943E-3
939.475822E-3
940.608788E-3
941.378403E-3
941.529465E-3
941.630173E-3
941.441917E-3
941.028786E-3
940.682602E-3
940.080070E-3
939.573669E-3
939.093018E-3
938.824081E-3
938.321114E-3
938.198090E-3
938.001823E-3
937.946320E-3
937.972641E-3
937.928581E-3
937.911987E-3
937.874222E-3
937.709999E-3
937.412453E-3
936.891174E-3
936.593628E-3
936.373901E-3
936.179924E-3
936.252594E-3
936.142159E-3
936.258316E-3
936.464882E-3
936.544991E-3
936.780739E-3
936.849976E-3
936.929512E-3
936.769295E-3
936.702919E-3
936.516380E-3
936.288071E-3
936.207962E-3
935.833740E-3
935.587120E-3
935.374832E-3
935.007477E-3
934.856987E-3
934.529114E-3
934.225273E-3
933.861923E-3
933.650780E-3
933.398437E-3
933.090019E-3
932.934952E-3
932.901192E-3
932.639694E-3
932.548141E-3
932.302666E-3
932.067490E-3
931.954193E-3
931.832886E-3
931.776237E-3
931.546783E-3
931.467247E-3
931.395721E-3
931.205177E-3
931.237793E-3
931.118774E-3
930.919075E-3
930.812645E-3
930.802345E-3
930.673599E-3
930.653572E-3
930.468750E-3
930.419540E-3
930.264473E-3
930.196381E-3
930.202103E-3
930.091095E-3
930.086517E-3
929.894829E-3
929.843903E-3
929.684830E-3
929.822731E-3
929.609299E-3
929.380989E-3
929.338646E-3
929.052544E-3
928.914070E-3
928.856277E-3
928.701782E-3
928.738403E-3
928.547287E-3
928.610802E-3
929.085159E-3
929.845619E-3
931.141663E-3
932.510948E-3
934.283066E-3
935.932159E-3
937.135506E-3
938.421249E-3
939.038086E-3
939.420891E-3
939.651489E-3
939.325333E-3
939.014626E-3
938.330841E-3
937.673378E-3
937.112045E-3
936.314964E-3
935.894966E-3
935.580826E-3
935.398865E-3
935.171700E-3
934.812927E-3
934.921646E-3
934.808922E-3
934.740257E-3
934.427834E-3
934.121704E-3
933.879662E-3
933.446503E-3
933.188438E-3
933.037376E-3
932.747841E-3
932.758141E-3
932.703209E-3
932.695198E-3
932.774734E-3
932.676888E-3
932.766151E-3
932.886887E-3
932.845688E-3
932.684326E-3
932.403946E-3
932.364464E-3
932.080078E-3
931.816292E-3
931.657219E-3
931.356239E-3
931.119919E-3
930.980873E-3
930.622101E-3
930.208969E-3
930.051613E-3
929.934311E-3
929.695702E-3
929.545784E-3
929.342079E-3
929.022789E-3
928.976440E-3
928.767014E-3
928.684044E-3
928.450584E-3
928.143311E-3
928.148460E-3
927.996254E-3
927.826881E-3
927.851486E-3
927.611732E-3
927.551079E-3
927.574539E-3
927.473831E-3
927.492142E-3
927.304459E-3
927.357101E-3
927.275276E-3
927.340508E-3
927.357674E-3
927.060127E-3
927.072144E-3
927.026939E-3
926.878738E-3
926.828957E-3
926.568604E-3
926.599503E-3
926.291656E-3
926.189804E-3
925.959206E-3
925.712585E-3
925.618744E-3
925.546074E-3
925.247383E-3
925.169563E-3
924.905205E-3
924.810219E-3
925.110626E-3
925.640488E-3
926.498795E-3
927.696991E-3
929.370117E-3
931.047821E-3
932.509232E-3
933.858490E-3
934.741974E-3
935.374260E-3
935.620880E-3
935.548210E-3
935.247231E-3
934.652138E-3
934.089661E-3
933.515739E-3
932.826805E-3
932.302094E-3
931.786537E-3
931.517029E-3
931.122208E-3
930.976868E-3
930.810356E-3
930.590630E-3
930.513382E-3
930.508232E-3
930.263901E-3
929.642487E-3
929.374695E-3
929.090881E-3
928.634262E-3
928.594780E-3
928.450584E-3
928.364182E-3
928.594780E-3
928.641129E-3
928.779030E-3
929.009056E-3
928.923798E-3
929.013062E-3
928.933525E-3
928.855133E-3
928.868866E-3
928.586197E-3
928.484917E-3
928.022003E-3
927.878952E-3
927.585983E-3
927.187157E-3
926.985741E-3
926.694489E-3
926.594353E-3
926.304245E-3
926.000977E-3
925.928307E-3
925.615883E-3
925.534058E-3
925.298882E-3
925.125504E-3
925.076866E-3
925.011063E-3
924.875450E-3
924.688339E-3
924.418831E-3
924.410820E-3
924.217415E-3
924.189949E-3
924.098969E-3
923.851204E-3
924.026871E-3
923.854065E-3
923.765373E-3
923.801994E-3
923.633194E-3
923.573685E-3
923.564529E-3
923.556519E-3
923.422050E-3
923.264694E-3
923.307037E-3
923.203468E-3
923.042107E-3
923.055840E-3
922.781181E-3
922.901344E-3
922.642708E-3
922.467041E-3
922.340584E-3
922.064781E-3
921.909714E-3
921.639633E-3
921.417618E-3
921.348381E-3
920.939827E-3
920.914650E-3
920.540428E-3
920.630264E-3
920.845413E-3
921.391869E-3
922.705650E-3
924.080658E-3
925.932884E-3
927.569389E-3
929.084587E-3
930.239296E-3
931.174278E-3
931.475258E-3
931.451797E-3
930.844116E-3
929.993248E-3
928.930664E-3
927.655792E-3
926.395798E-3
925.349808E-3
924.438858E-3
923.654366E-3
923.001480E-3
922.747993E-3
922.496796E-3
922.548866E-3
922.404671E-3
922.407532E-3
922.606659E-3
922.472763E-3
922.277069E-3
921.867371E-3
921.454811E-3
921.264839E-3
920.871735E-3
920.728111E-3
920.704651E-3
920.508957E-3
920.568466E-3
920.612526E-3
920.984459E-3
920.924377E-3
920.960999E-3
920.882034E-3
920.814514E-3
920.698357E-3
920.610237E-3
920.294380E-3
919.996834E-3
919.543076E-3
919.254684E-3
918.815231E-3
918.479919E-3
918.106842E-3
917.476845E-3
917.230225E-3
916.762161E-3
916.592216E-3
916.270638E-3
915.929031E-3
915.590858E-3
915.304184E-3
914.800644E-3
913.899994E-3
913.074303E-3
912.573051E-3
911.767387E-3
910.917091E-3
910.070801E-3
909.196472E-3
908.604240E-3
907.855797E-3
906.725693E-3
906.039619E-3
905.074310E-3
904.359055E-3
903.763390E-3
903.159714E-3
902.895355E-3
902.471924E-3
902.157211E-3
902.372932E-3
902.462769E-3
902.656174E-3
902.587509E-3
902.708817E-3
902.802086E-3
902.704239E-3
902.720261E-3
902.872467E-3
902.862167E-3
902.674484E-3
902.469063E-3
902.473068E-3
902.137756E-3
901.916313E-3
901.812744E-3
901.661682E-3
901.571846E-3
901.532364E-3
901.617622E-3
901.900291E-3
902.699089E-3
904.132462E-3
905.651093E-3
907.670975E-3
909.460258E-3
911.247253E-3
912.785339E-3
913.775826E-3
914.548302E-3
914.797211E-3
914.670181E-3
914.402390E-3
913.960648E-3
913.177299E-3
912.424850E-3
911.725616E-3
911.096191E-3
910.471344E-3
910.078812E-3
909.685135E-3
909.404755E-3
909.097481E-3
908.970451E-3
909.029388E-3
908.845139E-3
908.587646E-3
907.955360E-3
907.034683E-3
906.231880E-3
905.343819E-3
904.730988E-3
904.366493E-3
904.000854E-3
903.703880E-3
903.401184E-3
903.224373E-3
903.332520E-3
903.243256E-3
903.393745E-3
903.021812E-3
902.967453E-3
903.064728E-3
902.788353E-3
902.704239E-3
902.533722E-3
902.130318E-3
902.065086E-3
901.674843E-3
901.338959E-3
901.154709E-3
900.768471E-3
900.627136E-3
900.025177E-3
899.621201E-3
899.283028E-3
898.877335E-3
898.649025E-3
898.318863E-3
898.047066E-3
897.742081E-3
897.622490E-3
897.498322E-3
897.178459E-3
897.245407E-3
897.314644E-3
897.159576E-3
897.365570E-3
897.078323E-3
897.061729E-3
896.994209E-3
896.903801E-3
896.914101E-3
896.773911E-3
896.934128E-3
896.709824E-3
896.605110E-3
896.570778E-3
896.308136E-3
896.298981E-3
896.242905E-3
896.150780E-3
896.112442E-3
895.896149E-3
896.055222E-3
895.816612E-3
895.710754E-3
895.597458E-3
895.420074E-3
895.256424E-3
895.143127E-3
895.036125E-3
894.858170E-3
894.623566E-3
894.657898E-3
894.497108E-3
894.470215E-3
894.441605E-3
894.635010E-3
895.069313E-3
895.980835E-3
897.356415E-3
899.179459E-3
901.023674E-3
902.775764E-3
904.304695E-3
905.502319E-3
906.435585E-3
906.622124E-3
906.820107E-3
906.464767E-3
905.965233E-3
905.453682E-3
904.781342E-3
904.249763E-3
903.566551E-3
902.997208E-3
902.762032E-3
902.351189E-3
902.273369E-3
902.285385E-3
902.085114E-3
902.153778E-3
901.978111E-3
901.812744E-3
901.544952E-3
901.322365E-3
901.054001E-3
900.886345E-3
900.939560E-3
900.885773E-3
901.016808E-3
901.278305E-3
901.324081E-3
901.672554E-3
901.913452E-3
901.938057E-3
902.133179E-3
901.978111E-3
901.869392E-3
901.934624E-3
901.801872E-3
901.543808E-3
901.227951E-3
901.177597E-3
900.806236E-3
900.548744E-3
900.453758E-3
900.350761E-3
900.185966E-3
900.082397E-3
899.872971E-3
899.870682E-3
899.817467E-3
899.697876E-3
899.845505E-3
899.621201E-3
899.685287E-3
899.471855E-3
