Notes :


2023-11-04 ¿ÀÈÄ 9:13:58
Volts
Ch : LED 2,
801.474953E-3
801.508713E-3
801.478386E-3
801.977348E-3
802.884865E-3
804.817200E-3
807.464218E-3
810.421371E-3
813.687515E-3
816.589165E-3
818.950653E-3
820.584869E-3
821.408844E-3
821.475220E-3
821.012306E-3
820.235252E-3
819.073105E-3
817.734146E-3
816.644096E-3
815.537453E-3
814.703751E-3
813.995934E-3
813.488388E-3
813.368225E-3
813.338470E-3
813.564491E-3
813.918686E-3
814.020538E-3
814.254570E-3
814.176178E-3
813.826561E-3
813.346481E-3
812.584877E-3
811.960030E-3
811.255074E-3
811.212158E-3
811.196136E-3
811.434174E-3
811.680794E-3
811.994934E-3
812.166595E-3
812.162590E-3
812.142563E-3
812.279892E-3
811.976051E-3
811.513138E-3
811.169243E-3
810.845375E-3
810.413933E-3
809.836006E-3
809.221458E-3
808.851242E-3
808.369446E-3
807.865334E-3
807.491684E-3
807.320595E-3
807.126617E-3
806.944656E-3
806.799889E-3
806.600761E-3
806.536674E-3
806.634521E-3
806.287766E-3
806.230545E-3
805.954170E-3
805.872917E-3
805.819702E-3
805.723000E-3
805.784798E-3
805.549049E-3
805.412292E-3
805.352783E-3
805.221748E-3
805.134201E-3
805.051231E-3
804.865265E-3
804.794312E-3
804.604340E-3
804.504776E-3
804.398346E-3
804.209518E-3
804.073334E-3
803.849030E-3
803.810692E-3
803.455925E-3
803.262520E-3
803.385544E-3
803.092003E-3
802.840805E-3
802.567863E-3
802.550125E-3
802.375603E-3
802.270889E-3
802.276039E-3
802.179337E-3
801.864624E-3
801.924706E-3
801.763344E-3
801.622581E-3
801.494980E-3
801.194572E-3
800.974274E-3
800.720787E-3
800.730515E-3
800.735664E-3
800.850677E-3
801.389122E-3
802.609062E-3
804.840088E-3
807.641602E-3
810.931206E-3
814.222527E-3
816.991425E-3
819.198418E-3
820.583725E-3
821.190834E-3
821.094704E-3
820.444107E-3
819.351196E-3
818.190765E-3
816.923332E-3
815.673637E-3
814.597321E-3
813.854599E-3
813.353348E-3
813.138771E-3
813.121605E-3
813.248634E-3
813.625717E-3
813.651466E-3
813.872337E-3
814.063454E-3
813.983345E-3
813.625145E-3
812.944794E-3
812.247849E-3
811.772346E-3
811.346626E-3
811.218452E-3
811.273956E-3
811.522293E-3
811.711121E-3
811.979485E-3
812.121391E-3
812.146568E-3
812.170029E-3
812.033844E-3
811.875343E-3
811.729431E-3
811.414719E-3
811.166382E-3
810.684586E-3
810.274315E-3
809.821701E-3
809.159088E-3
808.946228E-3
808.673859E-3
808.410645E-3
808.292198E-3
808.158875E-3
808.090210E-3
807.830429E-3
807.808685E-3
807.714272E-3
807.567787E-3
807.456779E-3
807.434464E-3
807.415581E-3
807.514572E-3
807.429314E-3
807.518005E-3
807.598686E-3
807.560921E-3
807.575798E-3
807.303429E-3
807.346916E-3
807.248497E-3
807.178688E-3
807.188416E-3
807.132912E-3
807.073975E-3
807.152367E-3
806.889725E-3
806.884003E-3
806.687737E-3
806.442261E-3
806.469154E-3
806.250000E-3
806.245995E-3
806.068039E-3
805.931854E-3
805.981064E-3
805.794525E-3
805.774498E-3
805.668068E-3
805.589104E-3
805.518723E-3
805.298424E-3
805.429459E-3
805.305290E-3
805.319023E-3
805.107880E-3
804.881287E-3
804.638672E-3
804.467583E-3
804.331398E-3
804.014397E-3
804.250717E-3
804.330826E-3
804.729080E-3
805.698967E-3
807.738304E-3
810.419083E-3
813.598251E-3
816.817474E-3
819.580078E-3
822.096634E-3
823.650169E-3
824.403763E-3
824.441528E-3
823.932838E-3
822.957802E-3
821.716118E-3
820.311928E-3
818.957520E-3
817.720985E-3
816.748238E-3
816.043854E-3
815.806389E-3
815.780640E-3
815.928268E-3
816.196632E-3
816.418648E-3
816.727638E-3
816.856956E-3
816.805458E-3
816.297340E-3
815.722275E-3
815.284538E-3
814.827347E-3
814.831924E-3
814.877129E-3
815.170670E-3
815.409279E-3
815.719414E-3
815.904808E-3
816.087341E-3
816.066742E-3
816.073608E-3
816.072464E-3
815.655899E-3
815.267372E-3
814.900589E-3
814.470863E-3
813.942719E-3
813.299561E-3
812.735939E-3
812.216949E-3
811.838722E-3
811.306000E-3
811.033630E-3
810.837936E-3
810.684013E-3
810.507202E-3
810.326385E-3
810.011673E-3
809.852028E-3
809.500122E-3
809.222031E-3
809.029198E-3
808.761978E-3
808.653259E-3
808.443260E-3
808.362007E-3
808.060455E-3
808.032417E-3
807.966614E-3
807.706833E-3
807.449913E-3
807.312584E-3
807.157516E-3
807.074547E-3
806.836510E-3
806.781006E-3
806.359291E-3
806.089783E-3
805.751610E-3
805.501556E-3
805.241203E-3
804.814911E-3
804.457283E-3
804.371452E-3
804.302216E-3
804.068184E-3
803.724861E-3
803.559494E-3
803.513145E-3
803.287697E-3
802.912331E-3
802.510071E-3
802.096939E-3
801.922989E-3
801.444626E-3
801.067543E-3
801.042366E-3
801.081276E-3
801.228333E-3
801.604271E-3
802.694321E-3
804.465866E-3
806.837654E-3
809.881783E-3
812.849236E-3
815.614700E-3
817.945862E-3
819.441605E-3
820.310211E-3
820.360565E-3
819.963455E-3
818.826485E-3
817.695808E-3
816.371155E-3
815.123749E-3
814.031410E-3
813.255501E-3
812.560272E-3
812.265587E-3
812.147141E-3
812.040710E-3
812.220955E-3
812.411499E-3
812.690163E-3
812.644386E-3
812.571144E-3
812.075615E-3
811.411858E-3
810.765266E-3
810.258293E-3
810.088348E-3
810.027122E-3
810.223961E-3
810.593033E-3
810.936928E-3
811.184692E-3
811.463356E-3
811.387825E-3
811.239624E-3
811.111450E-3
810.849953E-3
810.520363E-3
810.200500E-3
809.791946E-3
809.330750E-3
808.986282E-3
808.442688E-3
807.854462E-3
807.431602E-3
807.035637E-3
806.801605E-3
806.524086E-3
806.340981E-3
806.111526E-3
806.076622E-3
805.765915E-3
805.595398E-3
805.460930E-3
805.405426E-3
805.299568E-3
805.286980E-3
805.324745E-3
805.206299E-3
805.137634E-3
804.980850E-3
804.908180E-3
804.791451E-3
804.776001E-3
804.607773E-3
804.394341E-3
804.464722E-3
804.255295E-3
804.187202E-3
804.032135E-3
803.870201E-3
803.724289E-3
803.597832E-3
803.315735E-3
803.154373E-3
802.818489E-3
802.765846E-3
802.585602E-3
802.523232E-3
802.451706E-3
802.199936E-3
802.145576E-3
801.936150E-3
801.782227E-3
801.690102E-3
801.560783E-3
801.381111E-3
801.080132E-3
800.920486E-3
800.801468E-3
800.493050E-3
800.305939E-3
800.191498E-3
800.066185E-3
800.113106E-3
800.249863E-3
800.993156E-3
802.404785E-3
804.814911E-3
807.736015E-3
810.887146E-3
814.021111E-3
816.565132E-3
818.530083E-3
819.779778E-3
820.218086E-3
820.145416E-3
819.438171E-3
818.371010E-3
817.257500E-3
815.935707E-3
814.691734E-3
813.657188E-3
812.843513E-3
812.397194E-3
812.151146E-3
812.230682E-3
812.473869E-3
812.825203E-3
813.072395E-3
813.186264E-3
813.366508E-3
813.174820E-3
812.741089E-3
812.191772E-3
811.503410E-3
811.069679E-3
810.846519E-3
811.026764E-3
811.260223E-3
811.427307E-3
811.753464E-3
811.975479E-3
811.997795E-3
812.116814E-3
811.992073E-3
812.094498E-3
811.878204E-3
811.586952E-3
811.358070E-3
811.019897E-3
810.588455E-3
810.218811E-3
809.750748E-3
809.381104E-3
809.008598E-3
808.734512E-3
808.621788E-3
808.467293E-3
808.320236E-3
808.129120E-3
807.974625E-3
807.901382E-3
807.828140E-3
807.713127E-3
807.579231E-3
807.729149E-3
807.566643E-3
807.543755E-3
807.619858E-3
807.606697E-3
807.429314E-3
807.541466E-3
807.484245E-3
807.487106E-3
807.333183E-3
807.286835E-3
807.170677E-3
807.110023E-3
807.025909E-3
806.866264E-3
806.842804E-3
806.662560E-3
806.524086E-3
806.461716E-3
806.260872E-3
806.179619E-3
806.035423E-3
805.812836E-3
805.635452E-3
805.581093E-3
805.460930E-3
805.356216E-3
805.401421E-3
805.224609E-3
805.191994E-3
805.162811E-3
804.924202E-3
804.595184E-3
804.300499E-3
803.942299E-3
803.786659E-3
803.624725E-3
803.505707E-3
803.609276E-3
803.793526E-3
804.016685E-3
804.904747E-3
806.659698E-3
809.235764E-3
812.108803E-3
815.399551E-3
818.379021E-3
820.688438E-3
822.333527E-3
823.192406E-3
823.340607E-3
822.897720E-3
822.017097E-3
820.957947E-3
819.646454E-3
818.496323E-3
817.330742E-3
816.395187E-3
815.929985E-3
815.513420E-3
815.481377E-3
815.468216E-3
815.752029E-3
816.143990E-3
816.339111E-3
816.553116E-3
816.580009E-3
816.038132E-3
815.436172E-3
814.841652E-3
814.439392E-3
814.366722E-3
814.408493E-3
814.808464E-3
815.011024E-3
815.286827E-3
815.416718E-3
815.495682E-3
815.531158E-3
815.478516E-3
815.291405E-3
815.032196E-3
814.568138E-3
814.153290E-3
813.526154E-3
813.017464E-3
812.321091E-3
811.728859E-3
811.216164E-3
810.612488E-3
810.276031E-3
809.840012E-3
809.485245E-3
809.346199E-3
808.994865E-3
808.797455E-3
808.504486E-3
808.293915E-3
808.171463E-3
807.895660E-3
807.757187E-3
807.543755E-3
807.401848E-3
807.387543E-3
807.233047E-3
807.075691E-3
807.102013E-3
806.827354E-3
806.729507E-3
806.490326E-3
806.298637E-3
806.065178E-3
805.805397E-3
805.639458E-3
805.431175E-3
805.235481E-3
804.906464E-3
804.750824E-3
804.525948E-3
804.360008E-3
804.098511E-3
803.915405E-3
803.619003E-3
803.530884E-3
803.346634E-3
803.219032E-3
802.940369E-3
802.656555E-3
802.213669E-3
801.889801E-3
801.587677E-3
801.382828E-3
801.091003E-3
801.050377E-3
800.965118E-3
801.097870E-3
801.487541E-3
802.570152E-3
804.444695E-3
807.015038E-3
810.119247E-3
813.217735E-3
816.032410E-3
818.395042E-3
819.712257E-3
820.397758E-3
820.302773E-3
819.754601E-3
818.778419E-3
817.571068E-3
816.153717E-3
815.000153E-3
813.915253E-3
813.164520E-3
812.552261E-3
812.348557E-3
812.256432E-3
812.354851E-3
812.604904E-3
812.854958E-3
812.965393E-3
813.010597E-3
812.636948E-3
812.174606E-3
811.370659E-3
810.813904E-3
810.256577E-3
810.009956E-3
810.110092E-3
810.163879E-3
810.443115E-3
810.693169E-3
810.914040E-3
811.046791E-3
810.906601E-3
810.856247E-3
810.654259E-3
810.157585E-3
810.037994E-3
809.628868E-3
809.243774E-3
808.785439E-3
808.225822E-3
807.752037E-3
807.278824E-3
806.923485E-3
806.541824E-3
806.316376E-3
806.134987E-3
805.860329E-3
805.823708E-3
805.664062E-3
805.576515E-3
805.333328E-3
805.123901E-3
805.122757E-3
804.977417E-3
804.930496E-3
804.856110E-3
804.808617E-3
804.768562E-3
804.598045E-3
804.405212E-3
804.305077E-3
804.151154E-3
804.059029E-3
804.053307E-3
803.870773E-3
803.801537E-3
803.695107E-3
803.753471E-3
803.707695E-3
803.446198E-3
803.225899E-3
803.010750E-3
802.765846E-3
802.578163E-3
802.280617E-3
802.055740E-3
802.013397E-3
801.671791E-3
801.672363E-3
801.570511E-3
801.588249E-3
801.454353E-3
801.302147E-3
801.104736E-3
800.840950E-3
800.553131E-3
800.300789E-3
800.071907E-3
799.737167E-3
799.595261E-3
799.661064E-3
799.776077E-3
800.184059E-3
801.187134E-3
803.087997E-3
805.791092E-3
808.790016E-3
811.887360E-3
814.819336E-3
817.073822E-3
818.593025E-3
819.301414E-3
819.546890E-3
819.122314E-3
818.103218E-3
817.064667E-3
815.847588E-3
814.652824E-3
813.590240E-3
812.655258E-3
812.178040E-3
811.657333E-3
811.713409E-3
811.764908E-3
812.048149E-3
812.500763E-3
812.722778E-3
812.919044E-3
812.867546E-3
812.475014E-3
811.845016E-3
811.108017E-3
810.492325E-3
810.216522E-3
810.059738E-3
810.339546E-3
810.451126E-3
810.770416E-3
810.980415E-3
811.023331E-3
811.247063E-3
811.285973E-3
811.244202E-3
811.067390E-3
810.917473E-3
810.638237E-3
810.375023E-3
809.819984E-3
809.327316E-3
808.843803E-3
808.335114E-3
807.941437E-3
807.729149E-3
807.556343E-3
807.352638E-3
807.040215E-3
807.190132E-3
807.093430E-3
806.933784E-3
806.819344E-3
806.782150E-3
806.651115E-3
806.632805E-3
806.574440E-3
806.637383E-3
806.614494E-3
806.494331E-3
806.523514E-3
806.559563E-3
806.541252E-3
806.486320E-3
806.385612E-3
806.177330E-3
806.070900E-3
805.924416E-3
805.855179E-3
805.748177E-3
805.704689E-3
805.566788E-3
805.462646E-3
805.372238E-3
805.221176E-3
805.288124E-3
804.970551E-3
804.803467E-3
804.567146E-3
804.376602E-3
804.298210E-3
804.135704E-3
804.096222E-3
803.936005E-3
803.901672E-3
803.897095E-3
803.841591E-3
803.792381E-3
803.729439E-3
803.458214E-3
803.201866E-3
802.966118E-3
802.714348E-3
802.570152E-3
802.441978E-3
802.587891E-3
802.629089E-3
802.718925E-3
803.442192E-3
804.673004E-3
806.900024E-3
809.595680E-3
812.793159E-3
815.987206E-3
818.649101E-3
820.761681E-3
821.966743E-3
822.528076E-3
822.486877E-3
821.591949E-3
820.751953E-3
819.542885E-3
818.242264E-3
817.088699E-3
815.928268E-3
815.031052E-3
814.459991E-3
814.312363E-3
814.400482E-3
814.549255E-3
814.885139E-3
815.263367E-3
815.467644E-3
815.576363E-3
815.303993E-3
814.959526E-3
814.153862E-3
813.471222E-3
813.103867E-3
812.829781E-3
813.103867E-3
813.407707E-3
813.649750E-3
814.070892E-3
814.332962E-3
814.561272E-3
814.522362E-3
814.451408E-3
814.301491E-3
813.839149E-3
813.380241E-3
812.837219E-3
812.197495E-3
811.704254E-3
811.125183E-3
810.562134E-3
810.175896E-3
809.822845E-3
809.599113E-3
809.275818E-3
809.154510E-3
808.907890E-3
808.796310E-3
808.447266E-3
808.154869E-3
807.849312E-3
807.610130E-3
807.396126E-3
807.209587E-3
807.047081E-3
806.982422E-3
806.991005E-3
806.663704E-3
806.489754E-3
806.279182E-3
806.133270E-3
805.873489E-3
805.613708E-3
805.438614E-3
805.163383E-3
804.894447E-3
804.827499E-3
804.729080E-3
804.376602E-3
804.244423E-3
804.010391E-3
803.891373E-3
803.446198E-3
803.233337E-3
802.797890E-3
802.567291E-3
802.210236E-3
801.866913E-3
801.636887E-3
801.403999E-3
801.252937E-3
800.986862E-3
800.749397E-3
800.617790E-3
800.285912E-3
800.023270E-3
799.887085E-3
799.669647E-3
799.417877E-3
799.277115E-3
799.275970E-3
800.069046E-3
801.681519E-3
804.242706E-3
807.148361E-3
810.277176E-3
813.218880E-3
815.468788E-3
817.049217E-3
817.893219E-3
817.808533E-3
817.269516E-3
816.053581E-3
814.883995E-3
813.474083E-3
812.176323E-3
811.026192E-3
810.266304E-3
809.812546E-3
809.533310E-3
809.504700E-3
809.607697E-3
809.671783E-3
809.909821E-3
809.988213E-3
810.104370E-3
809.743309E-3
809.140205E-3
808.372879E-3
807.613564E-3
807.147789E-3
806.755829E-3
806.779289E-3
807.080269E-3
807.271957E-3
807.479668E-3
807.608986E-3
807.574081E-3
807.467079E-3
807.365799E-3
807.278824E-3
807.101440E-3
806.743813E-3
806.503487E-3
806.116676E-3
805.812836E-3
805.299568E-3
804.662704E-3
804.090500E-3
803.478241E-3
803.030777E-3
802.665710E-3
802.322388E-3
802.059746E-3
801.844025E-3
801.648331E-3
801.507568E-3
801.308441E-3
801.201439E-3
801.128197E-3
800.931931E-3
800.813484E-3
800.689316E-3
800.502205E-3
800.328255E-3
800.315666E-3
800.213242E-3
799.955177E-3
799.853897E-3
799.897957E-3
799.734879E-3
799.691391E-3
799.453354E-3
799.396706E-3
799.180412E-3
798.854256E-3
798.723221E-3
798.235703E-3
798.190498E-3
798.009682E-3
797.942734E-3
797.788811E-3
797.630882E-3
797.532463E-3
797.435188E-3
797.356224E-3
797.233772E-3
797.038078E-3
796.955109E-3
796.850395E-3
796.656418E-3
796.491051E-3
796.224403E-3
796.136856E-3
795.877647E-3
795.725441E-3
795.573807E-3
795.331764E-3
795.263100E-3
795.191002E-3
795.260811E-3
795.790672E-3
796.717072E-3
798.617935E-3
801.276398E-3
804.296494E-3
807.452202E-3
810.274315E-3
812.675285E-3
814.236259E-3
815.072823E-3
815.039635E-3
814.635658E-3
813.751030E-3
812.625504E-3
811.397552E-3
810.245705E-3
809.018898E-3
808.205223E-3
807.548904E-3
807.187843E-3
