Notes :


2023-10-27 ¿ÀÈÄ 9:16:28
Volts
Ch : LED 2,
760.535431E-3
763.002205E-3
762.644577E-3
764.170647E-3
767.512321E-3
770.881462E-3
779.276276E-3
785.560226E-3
792.095375E-3
797.555923E-3
798.821640E-3
802.644539E-3
801.901817E-3
800.325966E-3
798.453140E-3
794.266319E-3
793.278122E-3
789.966202E-3
787.749481E-3
786.654854E-3
784.071922E-3
785.373116E-3
784.792328E-3
784.931946E-3
785.882950E-3
784.178352E-3
786.290359E-3
785.169411E-3
783.732033E-3
782.951546E-3
780.134010E-3
781.414604E-3
780.643272E-3
780.901337E-3
782.146454E-3
781.440353E-3
784.232140E-3
784.292221E-3
784.237289E-3
785.187149E-3
783.246803E-3
784.447861E-3
783.062553E-3
781.634903E-3
781.297302E-3
778.508949E-3
779.142380E-3
777.835464E-3
776.146889E-3
776.060486E-3
773.721886E-3
774.858284E-3
773.910141E-3
772.900772E-3
772.947693E-3
771.144104E-3
772.624969E-3
772.056198E-3
771.356964E-3
771.817017E-3
770.159340E-3
771.774673E-3
771.280289E-3
770.483780E-3
770.908356E-3
769.414902E-3
771.136093E-3
770.671463E-3
769.691849E-3
770.292091E-3
768.732834E-3
770.645142E-3
769.984818E-3
769.158554E-3
769.615173E-3
767.697144E-3
769.563675E-3
769.002342E-3
767.944908E-3
768.179512E-3
766.122437E-3
767.463112E-3
766.423988E-3
765.163422E-3
765.447807E-3
763.376427E-3
764.567184E-3
763.835335E-3
762.772751E-3
763.607597E-3
763.257408E-3
767.115784E-3
771.024513E-3
776.229286E-3
783.741188E-3
789.163971E-3
796.674156E-3
800.208664E-3
801.857185E-3
803.204727E-3
801.650620E-3
801.702690E-3
798.786736E-3
795.461655E-3
793.670654E-3
790.728378E-3
790.678596E-3
788.893318E-3
787.665367E-3
788.160896E-3
787.552071E-3
789.698410E-3
789.320755E-3
788.780022E-3
789.429474E-3
787.857056E-3
788.085937E-3
785.830307E-3
783.622742E-3
783.055115E-3
782.029724E-3
783.901978E-3
783.836174E-3
783.829308E-3
785.121918E-3
784.978294E-3
786.486053E-3
785.985947E-3
784.840393E-3
785.186577E-3
783.731461E-3
784.126854E-3
782.687759E-3
780.750275E-3
780.453873E-3
778.798485E-3
778.932381E-3
777.469254E-3
775.996971E-3
775.836182E-3
774.589920E-3
775.562096E-3
774.441147E-3
773.395729E-3
773.662376E-3
772.665596E-3
773.813438E-3
773.118210E-3
772.207260E-3
772.710228E-3
771.800423E-3
773.069572E-3
772.340584E-3
770.962715E-3
771.227646E-3
770.919800E-3
772.126579E-3
771.538353E-3
770.448875E-3
771.030807E-3
770.186234E-3
771.165848E-3
770.667458E-3
769.420052E-3
770.266342E-3
769.277573E-3
770.192528E-3
769.232368E-3
768.046188E-3
768.322563E-3
767.307472E-3
768.066788E-3
766.972160E-3
765.027809E-3
765.443230E-3
764.338875E-3
765.570831E-3
765.122795E-3
765.208626E-3
768.783760E-3
772.528267E-3
779.878807E-3
786.290932E-3
792.213821E-3
798.549843E-3
801.818848E-3
805.346489E-3
805.555344E-3
803.746605E-3
802.815056E-3
799.776077E-3
798.400497E-3
795.754051E-3
792.985153E-3
792.533112E-3
790.653992E-3
791.223335E-3
790.823364E-3
790.135002E-3
791.556931E-3
791.164398E-3
792.540550E-3
792.049026E-3
789.602280E-3
789.535332E-3
787.229919E-3
786.859703E-3
785.626602E-3
784.043312E-3
784.966850E-3
784.672737E-3
786.328697E-3
786.570740E-3
785.912132E-3
787.032509E-3
786.344719E-3
787.207031E-3
786.488342E-3
784.689331E-3
784.531975E-3
782.950401E-3
782.945824E-3
781.749344E-3
779.529762E-3
779.628754E-3
777.985954E-3
778.484344E-3
777.512169E-3
775.869942E-3
776.213837E-3
775.128365E-3
776.042175E-3
775.527763E-3
774.095535E-3
774.842834E-3
773.899841E-3
774.994469E-3
774.488640E-3
772.410393E-3
773.484993E-3
772.912788E-3
773.880386E-3
773.796844E-3
772.237015E-3
773.014641E-3
772.255898E-3
773.001480E-3
772.844696E-3
771.655655E-3
772.488213E-3
771.510315E-3
772.221565E-3
771.940041E-3
770.482635E-3
771.318054E-3
769.852638E-3
770.368767E-3
769.549370E-3
767.904854E-3
769.295311E-3
767.384720E-3
767.534637E-3
766.888046E-3
764.765167E-3
767.256546E-3
765.910149E-3
767.706299E-3
769.885826E-3
773.146248E-3
780.961418E-3
786.059189E-3
793.298149E-3
798.332977E-3
801.068115E-3
804.999733E-3
803.910255E-3
803.643608E-3
801.763344E-3
798.379898E-3
797.926140E-3
793.984222E-3
792.739105E-3
791.027069E-3
789.019775E-3
790.679741E-3
789.235497E-3
790.320396E-3
790.809059E-3
789.418030E-3
791.813850E-3
789.813423E-3
789.336777E-3
788.031006E-3
784.317970E-3
785.723305E-3
783.950043E-3
784.542274E-3
785.316467E-3
785.091019E-3
787.640190E-3
786.999893E-3
787.817574E-3
788.158607E-3
786.916924E-3
788.261604E-3
785.771370E-3
785.163116E-3
784.256172E-3
782.198524E-3
783.054543E-3
780.607224E-3
780.086517E-3
779.639053E-3
778.166199E-3
779.275703E-3
777.227211E-3
777.095032E-3
776.887894E-3
775.527763E-3
777.301598E-3
775.476837E-3
775.712013E-3
775.431061E-3
774.502945E-3
776.291084E-3
774.771881E-3
774.827957E-3
774.997902E-3
774.169922E-3
775.806999E-3
774.320412E-3
774.310684E-3
774.453163E-3
773.577118E-3
774.861717E-3
773.389435E-3
773.711014E-3
773.816299E-3
772.689629E-3
773.867798E-3
772.223854E-3
772.165489E-3
771.921158E-3
770.615387E-3
771.755791E-3
769.700432E-3
769.448662E-3
769.076729E-3
767.760086E-3
768.935966E-3
766.998482E-3
767.216492E-3
767.899132E-3
767.752647E-3
771.899986E-3
774.665451E-3
780.554008E-3
787.415886E-3
792.553139E-3
799.983215E-3
802.586746E-3
805.488968E-3
806.280899E-3
804.837799E-3
804.818344E-3
801.117325E-3
799.148941E-3
797.088432E-3
794.624519E-3
794.685745E-3
792.458725E-3
792.355156E-3
792.778015E-3
792.630959E-3
794.534683E-3
793.648338E-3
794.388199E-3
794.276047E-3
792.771149E-3
792.593193E-3
789.500427E-3
788.645554E-3
788.050461E-3
787.080002E-3
788.795471E-3
787.934303E-3
788.969421E-3
789.883804E-3
789.566231E-3
791.305161E-3
789.632034E-3
789.758492E-3
788.955688E-3
787.394142E-3
787.475395E-3
785.331345E-3
784.288788E-3
783.163261E-3
781.729317E-3
782.100105E-3
779.831314E-3
779.008484E-3
778.635406E-3
777.628899E-3
778.618813E-3
776.856422E-3
776.600647E-3
776.720810E-3
775.789833E-3
777.088165E-3
775.510025E-3
775.517464E-3
775.412178E-3
774.327278E-3
775.331497E-3
773.808289E-3
773.649216E-3
773.557091E-3
772.477913E-3
773.436928E-3
771.759224E-3
771.568108E-3
771.378136E-3
770.368767E-3
771.462822E-3
769.742203E-3
769.510460E-3
769.564247E-3
768.798637E-3
769.837761E-3
768.542290E-3
768.462181E-3
768.131447E-3
767.080879E-3
767.891121E-3
765.959930E-3
765.969086E-3
765.528488E-3
763.557243E-3
765.216064E-3
764.278793E-3
764.871597E-3
766.229439E-3
767.938614E-3
773.684692E-3
778.312111E-3
784.616661E-3
791.292572E-3
796.109962E-3
801.585388E-3
803.342056E-3
804.139137E-3
804.204941E-3
801.797104E-3
800.828362E-3
797.141075E-3
794.735527E-3
793.110466E-3
790.943527E-3
791.202736E-3
789.460945E-3
788.927078E-3
789.119911E-3
787.322044E-3
789.855766E-3
789.380264E-3
789.020348E-3
788.121414E-3
785.452652E-3
784.167480E-3
781.070137E-3
779.658508E-3
778.906059E-3
776.704788E-3
778.634262E-3
778.262329E-3
778.577042E-3
779.614449E-3
779.333496E-3
780.858994E-3
779.903984E-3
779.149818E-3
778.788185E-3
775.155830E-3
776.771736E-3
775.189018E-3
774.133873E-3
773.772240E-3
771.697426E-3
772.721100E-3
771.024513E-3
770.044327E-3
769.632912E-3
767.630196E-3
768.760872E-3
767.832184E-3
767.449951E-3
767.907715E-3
765.022659E-3
767.371559E-3
766.610527E-3
766.510391E-3
766.853714E-3
764.935684E-3
766.363907E-3
765.288734E-3
765.032959E-3
765.468407E-3
763.946342E-3
765.833473E-3
764.875031E-3
764.523697E-3
764.681053E-3
762.732124E-3
764.260483E-3
763.403320E-3
763.188744E-3
763.776398E-3
761.919594E-3
763.660812E-3
763.076019E-3
762.677193E-3
762.614250E-3
760.807228E-3
762.191963E-3
761.127090E-3
760.622978E-3
760.364342E-3
758.190536E-3
759.080315E-3
758.345604E-3
757.955360E-3
758.514404E-3
758.030319E-3
761.669540E-3
764.891624E-3
769.991684E-3
776.706505E-3
781.746483E-3
789.095879E-3
793.095016E-3
795.317459E-3
796.794319E-3
794.900894E-3
795.089722E-3
792.222977E-3
789.590836E-3
787.682533E-3
784.233856E-3
784.276772E-3
782.850838E-3
781.866646E-3
782.092667E-3
781.074142E-3
783.222771E-3
783.356094E-3
782.984734E-3
783.292580E-3
780.790329E-3
781.093025E-3
778.804207E-3
776.465607E-3
775.920868E-3
773.860359E-3
775.745773E-3
775.707436E-3
775.855637E-3
777.382278E-3
776.488495E-3
778.514671E-3
778.055763E-3
776.829529E-3
776.710510E-3
774.084663E-3
774.419975E-3
772.830963E-3
770.927811E-3
770.399094E-3
768.311119E-3
769.238091E-3
768.077087E-3
766.873169E-3
766.977882E-3
765.111923E-3
766.412544E-3
765.838623E-3
764.834404E-3
765.189743E-3
764.210129E-3
765.880394E-3
765.300179E-3
764.145470E-3
764.696503E-3
763.627052E-3
765.280151E-3
764.552307E-3
763.102341E-3
763.571548E-3
762.592506E-3
763.731766E-3
762.959290E-3
761.758232E-3
762.358475E-3
761.581993E-3
762.680054E-3
761.813164E-3
760.520554E-3
760.847282E-3
759.531212E-3
760.433578E-3
759.393311E-3
757.806587E-3
757.652092E-3
756.411552E-3
757.036972E-3
755.911446E-3
754.632568E-3
754.805946E-3
753.957939E-3
755.173302E-3
755.115509E-3
756.538582E-3
761.286736E-3
766.132164E-3
773.876381E-3
779.910851E-3
784.933090E-3
790.092087E-3
792.151451E-3
794.445419E-3
793.275833E-3
791.042519E-3
789.531898E-3
786.387062E-3
785.366249E-3
782.886887E-3
780.687904E-3
780.182076E-3
779.155540E-3
780.391502E-3
780.337715E-3
779.987526E-3
780.743980E-3
780.569458E-3
781.788254E-3
780.680466E-3
778.381920E-3
777.008629E-3
774.474335E-3
774.429703E-3
773.271561E-3
772.370338E-3
773.372841E-3
773.081017E-3
774.850273E-3
774.597931E-3
773.713875E-3
774.737549E-3
773.818016E-3
774.538422E-3
773.272705E-3
771.756363E-3
771.604156E-3
769.903564E-3
769.890404E-3
768.490219E-3
766.731262E-3
766.452026E-3
764.699936E-3
764.992905E-3
763.766670E-3
762.448311E-3
762.915230E-3
761.807442E-3
762.730408E-3
761.947060E-3
761.231232E-3
761.840057E-3
760.878754E-3
761.960793E-3
761.177444E-3
760.195541E-3
760.576630E-3
759.691429E-3
760.738564E-3
760.338593E-3
759.187317E-3
759.974098E-3
758.827972E-3
759.765244E-3
758.834839E-3
757.506752E-3
757.951355E-3
756.981468E-3
757.952499E-3
757.185173E-3
756.092262E-3
756.818962E-3
755.948067E-3
756.824684E-3
756.078529E-3
754.919815E-3
755.345535E-3
754.234314E-3
754.705811E-3
753.803444E-3
752.358627E-3
752.807808E-3
751.336670E-3
751.860809E-3
751.420212E-3
750.678062E-3
751.983833E-3
752.898788E-3
757.813454E-3
762.983322E-3
768.534279E-3
776.237297E-3
781.874657E-3
788.092232E-3
791.116905E-3
791.332626E-3
792.416954E-3
790.435982E-3
789.545059E-3
786.748695E-3
782.763290E-3
781.573677E-3
779.217911E-3
779.255104E-3
778.428841E-3
777.400589E-3
778.652000E-3
778.502083E-3
780.396080E-3
780.544853E-3
780.073929E-3
780.851555E-3
779.393005E-3
778.742981E-3
776.490784E-3
773.159409E-3
772.559166E-3
770.693207E-3
771.154976E-3
771.108627E-3
770.476341E-3
771.818733E-3
771.510887E-3
772.821236E-3
772.804642E-3
770.960999E-3
771.290588E-3
770.149612E-3
770.473480E-3
769.507599E-3
766.430283E-3
767.000771E-3
765.439796E-3
765.767670E-3
764.944267E-3
763.211632E-3
763.625908E-3
762.004852E-3
762.320137E-3
761.640358E-3
759.894562E-3
760.867310E-3
759.710312E-3
760.480499E-3
760.395241E-3
759.028244E-3
760.695076E-3
759.233093E-3
759.511757E-3
758.906364E-3
757.582855E-3
759.366417E-3
757.917023E-3
758.327866E-3
757.921600E-3
756.489944E-3
758.289528E-3
756.778336E-3
757.022095E-3
756.622696E-3
755.062866E-3
756.707382E-3
754.895210E-3
755.191040E-3
754.771614E-3
753.531647E-3
755.211639E-3
753.187752E-3
753.468132E-3
753.016090E-3
751.991272E-3
753.537369E-3
751.617622E-3
751.795578E-3
751.051140E-3
749.551392E-3
750.980186E-3
749.089050E-3
748.915100E-3
748.964882E-3
747.984695E-3
749.985123E-3
750.210571E-3
754.167938E-3
759.499168E-3
764.015007E-3
773.353958E-3
778.526688E-3
784.027290E-3
787.665939E-3
788.473320E-3
790.051460E-3
787.458801E-3
785.774803E-3
783.496284E-3
779.622459E-3
778.888321E-3
775.226784E-3
773.839760E-3
773.019218E-3
771.459389E-3
773.389435E-3
772.179794E-3
772.884178E-3
773.836327E-3
773.051262E-3
774.831963E-3
772.842407E-3
771.512604E-3
769.813156E-3
766.886330E-3
767.654228E-3
765.490723E-3
765.751648E-3
766.363907E-3
766.165352E-3
768.655586E-3
768.162346E-3
769.463539E-3
769.346809E-3
767.865372E-3
768.918800E-3
766.454887E-3
766.165352E-3
766.037178E-3
764.291382E-3
764.612961E-3
762.263489E-3
761.787415E-3
761.072731E-3
759.722900E-3
760.897636E-3
759.047699E-3
759.004211E-3
758.675194E-3
756.744003E-3
758.577347E-3
756.797791E-3
756.899071E-3
757.006645E-3
755.350113E-3
757.426643E-3
756.243896E-3
756.631279E-3
756.966019E-3
756.061935E-3
757.301903E-3
755.662537E-3
755.840492E-3
755.943489E-3
755.360985E-3
757.043266E-3
755.172157E-3
755.296898E-3
755.608177E-3
754.207993E-3
755.450821E-3
753.453255E-3
753.317642E-3
753.020668E-3
751.452827E-3
753.499031E-3
751.813889E-3
751.808167E-3
751.625633E-3
750.557327E-3
751.209068E-3
749.150276E-3
749.066162E-3
749.008369E-3
748.179817E-3
749.653244E-3
748.622131E-3
750.358200E-3
753.105354E-3
757.616043E-3
765.723038E-3
771.444511E-3
778.204536E-3
783.708000E-3
787.763786E-3
791.570663E-3
790.867424E-3
790.093231E-3
788.093948E-3
784.848976E-3
783.326340E-3
779.221916E-3
776.549721E-3
774.774170E-3
772.405243E-3
773.072433E-3
771.624756E-3
772.554016E-3
772.698212E-3
772.346306E-3
773.820877E-3
772.607803E-3
772.609520E-3
771.756935E-3
769.109917E-3
769.581413E-3
767.401314E-3
767.194176E-3
767.405891E-3
766.445732E-3
768.592072E-3
767.934036E-3
768.913651E-3
769.604874E-3
769.437790E-3
771.106339E-3
769.692421E-3
769.338799E-3
768.943405E-3
766.754150E-3
767.445946E-3
765.258408E-3
764.213562E-3
763.514328E-3
761.960793E-3
762.387085E-3
760.205269E-3
759.750938E-3
759.512901E-3
758.191109E-3
759.189606E-3
757.514191E-3
757.482719E-3
757.360268E-3
756.394386E-3
757.562256E-3
756.311417E-3
756.139755E-3
756.443024E-3
754.667473E-3
756.623840E-3
755.377007E-3
755.245399E-3
755.426216E-3
754.599380E-3
755.968666E-3
754.880333E-3
754.678917E-3
754.779053E-3
753.696442E-3
754.730988E-3
753.103638E-3
752.492523E-3
752.517700E-3
751.372147E-3
752.626991E-3
751.197624E-3
751.214218E-3
751.219368E-3
749.214935E-3
750.696945E-3
749.525642E-3
749.097633E-3
749.014091E-3
747.566414E-3
748.574066E-3
747.080612E-3
746.540451E-3
746.562195E-3
745.504761E-3
746.524429E-3
746.035767E-3
747.544670E-3
751.591873E-3
756.691360E-3
765.411186E-3
771.817589E-3
778.971291E-3
785.733032E-3
788.790321E-3
792.680168E-3
792.257881E-3
791.240501E-3
789.418602E-3
785.081863E-3
783.833313E-3
780.152321E-3
777.398300E-3
776.185799E-3
773.533058E-3
774.600792E-3
773.762512E-3
774.089813E-3
774.978447E-3
774.002266E-3
776.354599E-3
775.823593E-3
775.520325E-3
774.794769E-3
771.734047E-3
772.057915E-3
770.069504E-3
