Notes :


2023-11-04 ¿ÀÈÄ 7:17:30
Volts
Ch : LED 2,
594.963455E-3
594.487953E-3
593.880272E-3
593.178177E-3
592.704964E-3
592.277527E-3
591.725349E-3
591.422653E-3
591.165733E-3
590.815544E-3
590.484810E-3
590.151787E-3
589.917183E-3
589.632797E-3
589.352989E-3
589.207077E-3
589.010239E-3
589.029121E-3
588.614273E-3
588.384819E-3
588.233757E-3
588.082695E-3
587.932205E-3
587.724495E-3
587.538528E-3
587.324524E-3
587.065887E-3
586.905670E-3
586.643600E-3
586.410141E-3
586.073112E-3
585.837936E-3
585.434532E-3
585.037994E-3
584.769630E-3
584.508705E-3
584.142494E-3
583.898735E-3
583.750534E-3
583.669853E-3
583.446693E-3
583.296776E-3
583.076477E-3
582.861900E-3
582.520866E-3
582.364655E-3
582.094002E-3
581.777573E-3
581.340981E-3
581.000519E-3
580.615997E-3
580.272675E-3
579.941940E-3
579.702759E-3
579.653549E-3
579.567146E-3
579.543686E-3
579.559708E-3
579.765129E-3
580.858040E-3
582.748032E-3
585.994720E-3
590.115738E-3
594.802094E-3
599.513054E-3
604.005432E-3
607.818031E-3
610.244751E-3
611.413765E-3
611.472702E-3
610.415840E-3
608.769608E-3
606.722260E-3
604.535866E-3
602.487946E-3
600.747871E-3
599.474716E-3
598.415565E-3
597.707176E-3
597.446823E-3
597.478867E-3
597.774124E-3
597.985840E-3
597.923470E-3
597.617912E-3
596.615410E-3
595.442963E-3
594.017601E-3
593.056870E-3
592.405128E-3
592.037773E-3
592.045212E-3
592.531013E-3
593.171883E-3
593.999290E-3
594.657898E-3
595.206070E-3
595.711899E-3
595.929909E-3
595.956802E-3
595.809174E-3
595.398903E-3
594.878769E-3
594.296265E-3
593.634224E-3
593.105507E-3
592.311287E-3
591.614342E-3
591.007805E-3
590.574646E-3
590.045929E-3
589.593887E-3
589.248276E-3
588.858032E-3
588.562202E-3
588.262367E-3
587.994003E-3
587.753677E-3
587.457275E-3
587.265587E-3
586.973763E-3
586.596680E-3
586.343765E-3
586.098289E-3
585.828781E-3
585.801315E-3
585.598755E-3
585.381317E-3
585.154724E-3
585.040855E-3
584.810829E-3
584.542465E-3
584.339905E-3
584.084129E-3
583.882141E-3
583.628654E-3
583.370590E-3
583.131409E-3
582.830429E-3
582.717133E-3
582.385826E-3
582.207298E-3
582.152939E-3
582.001877E-3
581.972694E-3
581.983566E-3
581.929779E-3
581.863403E-3
581.878853E-3
581.641960E-3
581.405640E-3
581.216240E-3
581.053734E-3
580.752754E-3
580.514145E-3
580.141068E-3
579.944229E-3
579.590607E-3
579.458427E-3
579.615784E-3
579.624367E-3
579.896164E-3
580.616570E-3
582.361221E-3
585.402489E-3
589.507484E-3
594.444466E-3
599.610329E-3
604.696083E-3
609.271431E-3
612.792206E-3
614.988899E-3
615.913582E-3
615.529633E-3
614.150620E-3
612.287521E-3
610.121155E-3
607.977104E-3
605.920601E-3
604.385376E-3
603.234673E-3
602.437592E-3
602.210426E-3
602.160645E-3
602.458191E-3
602.936554E-3
603.294182E-3
603.611183E-3
603.342247E-3
602.799797E-3
601.690865E-3
600.177383E-3
598.630142E-3
597.367859E-3
596.495247E-3
595.891571E-3
595.693016E-3
595.875549E-3
596.271515E-3
596.808243E-3
597.133255E-3
597.599030E-3
597.786140E-3
597.817612E-3
597.762680E-3
597.471428E-3
597.044563E-3
596.407127E-3
595.774269E-3
595.180321E-3
594.307709E-3
593.395615E-3
592.749596E-3
592.099571E-3
591.631508E-3
591.183472E-3
590.604401E-3
590.271950E-3
589.633942E-3
589.377594E-3
589.257431E-3
588.922691E-3
588.590813E-3
588.324738E-3
588.006592E-3
587.833214E-3
587.576866E-3
587.441254E-3
587.206650E-3
587.083626E-3
587.032127E-3
586.786079E-3
586.578941E-3
586.343193E-3
586.164093E-3
585.945511E-3
585.530663E-3
585.407066E-3
585.108376E-3
584.889221E-3
584.648323E-3
584.253502E-3
583.988571E-3
583.669281E-3
583.363152E-3
583.096504E-3
582.802963E-3
582.638168E-3
582.252502E-3
582.081413E-3
581.849670E-3
581.671143E-3
581.602478E-3
581.630516E-3
581.557274E-3
581.564713E-3
581.376457E-3
581.336975E-3
581.026840E-3
580.888367E-3
580.674934E-3
580.483818E-3
580.139351E-3
579.800034E-3
579.492187E-3
579.172897E-3
578.858185E-3
578.711128E-3
578.762627E-3
578.830719E-3
579.206657E-3
580.287552E-3
582.621002E-3
586.049652E-3
590.449905E-3
595.452118E-3
600.644302E-3
605.639076E-3
609.589577E-3
612.698936E-3
614.231873E-3
614.285088E-3
613.393593E-3
611.741638E-3
609.598732E-3
607.156563E-3
604.942703E-3
603.126526E-3
601.475716E-3
600.304413E-3
599.727058E-3
599.527359E-3
599.740219E-3
599.858665E-3
600.256348E-3
600.827980E-3
601.066017E-3
601.000214E-3
599.989700E-3
598.867035E-3
597.513199E-3
596.300697E-3
595.333672E-3
594.708824E-3
594.397545E-3
594.368935E-3
594.862175E-3
595.326233E-3
595.766830E-3
596.125031E-3
596.396828E-3
596.495819E-3
596.480942E-3
596.163368E-3
595.809174E-3
595.308495E-3
594.669342E-3
594.045067E-3
593.388748E-3
592.698097E-3
592.100143E-3
591.439819E-3
591.070747E-3
590.457916E-3
589.900017E-3
589.510345E-3
589.156723E-3
588.807678E-3
588.485527E-3
588.089561E-3
587.840652E-3
587.716484E-3
587.250710E-3
587.018967E-3
586.881065E-3
586.713982E-3
586.477661E-3
586.424446E-3
586.182976E-3
586.038780E-3
585.978699E-3
585.788155E-3
585.611343E-3
585.492325E-3
585.257721E-3
585.031700E-3
584.814835E-3
584.603691E-3
584.342766E-3
584.127617E-3
583.993149E-3
583.624077E-3
583.387756E-3
583.151436E-3
582.911682E-3
582.719421E-3
582.402420E-3
582.426453E-3
582.365227E-3
582.293129E-3
582.104301E-3
582.012177E-3
581.829071E-3
581.480026E-3
581.375885E-3
581.275749E-3
581.084633E-3
581.022835E-3
580.541611E-3
580.159378E-3
579.772568E-3
579.327965E-3
579.247284E-3
579.157448E-3
579.103088E-3
579.079628E-3
578.899384E-3
579.235268E-3
580.259514E-3
582.390404E-3
585.692024E-3
589.980125E-3
594.813538E-3
599.548531E-3
604.134750E-3
607.932472E-3
610.602379E-3
611.833191E-3
611.648941E-3
610.616112E-3
608.925247E-3
606.497383E-3
604.071236E-3
601.525497E-3
599.581146E-3
597.872543E-3
596.604538E-3
596.032333E-3
595.742798E-3
595.692444E-3
595.838928E-3
596.066666E-3
596.434593E-3
596.099281E-3
595.422363E-3
594.711113E-3
593.832207E-3
592.985344E-3
592.424011E-3
592.360497E-3
592.527008E-3
592.821693E-3
593.469429E-3
594.293404E-3
594.929123E-3
595.408058E-3
595.761108E-3
596.034622E-3
595.890999E-3
595.389748E-3
595.044708E-3
594.602966E-3
593.847656E-3
593.078613E-3
592.417145E-3
591.771698E-3
591.098213E-3
590.384674E-3
589.912033E-3
589.422798E-3
588.954735E-3
588.594818E-3
588.259506E-3
587.945366E-3
587.624931E-3
587.260437E-3
586.944580E-3
586.542892E-3
586.304855E-3
586.021042E-3
585.902596E-3
585.624504E-3
585.427666E-3
585.250854E-3
585.183907E-3
585.030556E-3
584.687805E-3
584.615135E-3
584.503555E-3
584.370804E-3
584.208298E-3
584.090424E-3
584.070396E-3
583.865547E-3
583.716774E-3
583.539391E-3
583.279037E-3
583.165741E-3
582.961464E-3
582.847595E-3
582.717133E-3
582.616425E-3
582.510567E-3
582.460213E-3
582.380104E-3
582.301140E-3
582.141495E-3
582.193565E-3
582.098007E-3
582.048225E-3
581.970978E-3
581.996727E-3
581.838799E-3
581.561279E-3
581.330109E-3
581.144714E-3
580.824852E-3
580.660629E-3
580.424309E-3
580.211449E-3
580.109024E-3
580.212021E-3
580.480385E-3
581.174469E-3
582.958031E-3
586.052513E-3
590.120888E-3
595.006943E-3
600.306702E-3
605.715752E-3
610.265350E-3
613.626480E-3
615.826607E-3
616.675186E-3
616.196823E-3
614.626122E-3
612.425995E-3
609.975243E-3
607.273865E-3
604.952431E-3
603.126526E-3
601.615334E-3
600.708389E-3
600.119019E-3
599.979973E-3
600.192833E-3
600.449181E-3
600.761604E-3
601.205063E-3
601.518631E-3
601.314354E-3
600.541878E-3
599.486732E-3
598.260498E-3
597.213936E-3
596.362495E-3
595.769119E-3
595.708466E-3
595.836067E-3
596.043205E-3
596.599960E-3
596.935844E-3
597.376442E-3
597.493744E-3
597.873116E-3
597.979546E-3
597.709465E-3
597.348404E-3
596.838570E-3
596.326447E-3
595.636368E-3
594.917679E-3
594.275093E-3
593.621063E-3
593.101501E-3
592.681503E-3
592.242050E-3
591.837502E-3
591.453552E-3
591.251564E-3
591.069603E-3
590.902519E-3
590.520287E-3
590.276527E-3
590.071678E-3
589.758682E-3
589.378166E-3
589.274025E-3
589.065742E-3
588.890076E-3
588.899231E-3
588.579941E-3
588.293839E-3
588.252640E-3
588.020897E-3
587.861824E-3
587.747383E-3
587.564850E-3
587.342262E-3
587.141418E-3
586.986351E-3
586.807251E-3
586.525154E-3
586.236191E-3
586.041641E-3
585.815048E-3
585.601616E-3
585.400200E-3
585.052872E-3
584.845161E-3
584.810257E-3
584.718704E-3
584.722137E-3
584.619141E-3
584.595108E-3
584.567642E-3
584.488678E-3
584.594536E-3
584.364510E-3
584.139633E-3
583.864975E-3
583.565140E-3
583.463287E-3
583.123970E-3
582.758904E-3
582.502556E-3
582.155228E-3
582.088852E-3
581.968117E-3
581.913185E-3
582.273102E-3
583.464432E-3
586.033058E-3
589.787292E-3
594.197845E-3
599.395752E-3
604.652596E-3
609.560394E-3
613.475990E-3
616.038895E-3
617.278862E-3
617.284012E-3
616.243172E-3
614.078522E-3
611.410904E-3
608.937263E-3
606.495094E-3
604.451752E-3
602.708244E-3
601.622200E-3
601.033401E-3
600.636292E-3
600.534439E-3
600.745010E-3
601.161575E-3
601.536369E-3
601.633644E-3
601.589584E-3
600.948143E-3
599.849510E-3
598.657608E-3
597.517776E-3
596.743584E-3
596.042633E-3
595.623207E-3
595.627213E-3
595.886421E-3
596.195412E-3
596.610260E-3
597.211075E-3
597.401619E-3
597.463417E-3
597.426796E-3
597.186470E-3
596.695518E-3
596.221161E-3
595.580864E-3
595.026970E-3
594.364929E-3
593.550682E-3
592.970467E-3
592.271805E-3
591.614914E-3
590.994072E-3
590.594101E-3
590.279961E-3
589.824486E-3
589.447403E-3
589.068604E-3
588.660622E-3
588.348198E-3
587.964249E-3
587.625504E-3
587.384605E-3
587.119675E-3
586.909676E-3
586.697960E-3
586.421013E-3
586.240196E-3
585.845375E-3
585.551262E-3
585.280609E-3
585.107803E-3
585.033989E-3
584.634590E-3
584.450912E-3
584.146500E-3
583.975983E-3
583.661270E-3
583.427238E-3
583.232117E-3
582.855606E-3
582.671356E-3
582.349777E-3
581.902885E-3
581.709480E-3
581.578445E-3
581.442261E-3
581.304932E-3
581.227684E-3
581.110382E-3
581.045151E-3
580.991936E-3
580.786514E-3
580.600548E-3
580.484390E-3
580.165672E-3
580.014610E-3
579.746246E-3
579.338264E-3
579.160881E-3
578.862762E-3
578.943443E-3
578.796959E-3
578.989220E-3
579.363441E-3
580.581093E-3
583.041573E-3
586.559486E-3
590.869904E-3
596.170807E-3
601.235390E-3
605.901146E-3
609.594154E-3
611.795998E-3
612.730980E-3
612.157059E-3
610.657310E-3
608.636284E-3
605.979538E-3
603.449821E-3
601.056290E-3
598.994064E-3
597.313499E-3
596.067810E-3
595.402908E-3
594.969749E-3
594.992065E-3
595.277023E-3
595.575142E-3
595.862961E-3
595.877838E-3
595.424080E-3
594.553757E-3
593.742371E-3
592.924690E-3
592.224312E-3
591.952515E-3
591.926193E-3
592.377090E-3
593.027115E-3
593.609047E-3
594.193268E-3
594.700813E-3
594.927406E-3
594.926834E-3
594.875336E-3
594.589806E-3
594.168663E-3
593.643951E-3
593.170166E-3
592.459488E-3
591.994286E-3
591.257858E-3
590.641022E-3
590.290260E-3
589.844513E-3
589.421654E-3
589.168167E-3
588.855743E-3
588.619423E-3
588.407135E-3
588.098145E-3
587.901878E-3
587.637520E-3
587.388039E-3
587.068748E-3
586.930847E-3
586.794662E-3
586.577797E-3
586.566353E-3
586.229897E-3
585.987282E-3
585.923767E-3
585.708046E-3
585.642242E-3
585.564423E-3
585.504341E-3
585.431099E-3
585.185623E-3
585.027695E-3
584.810829E-3
584.756470E-3
584.691811E-3
584.601974E-3
584.461212E-3
584.275246E-3
584.200859E-3
583.940506E-3
583.650970E-3
583.423233E-3
583.186340E-3
582.809830E-3
582.357788E-3
581.960106E-3
581.867409E-3
581.371880E-3
580.905533E-3
580.680084E-3
580.526733E-3
580.562210E-3
580.530739E-3
580.986214E-3
582.061386E-3
584.121895E-3
587.519073E-3
591.779709E-3
596.819687E-3
602.023315E-3
606.856728E-3
610.854721E-3
613.485146E-3
614.825249E-3
614.804649E-3
613.734627E-3
611.992836E-3
609.647369E-3
607.129097E-3
604.815674E-3
602.731133E-3
601.100922E-3
599.960518E-3
599.348831E-3
599.083328E-3
599.160004E-3
599.342537E-3
599.658966E-3
599.952507E-3
599.839211E-3
599.515343E-3
598.630714E-3
597.679710E-3
596.617126E-3
595.752525E-3
595.027542E-3
594.712257E-3
594.694519E-3
594.976616E-3
595.408058E-3
595.925331E-3
596.478653E-3
596.836281E-3
596.995354E-3
597.034836E-3
596.794510E-3
596.420288E-3
595.957947E-3
595.463562E-3
594.917679E-3
594.140053E-3
593.416786E-3
592.731285E-3
592.223740E-3
591.627502E-3
591.058159E-3
590.655327E-3
590.414429E-3
590.104294E-3
589.734077E-3
589.530945E-3
589.315796E-3
589.096642E-3
588.749886E-3
588.500404E-3
588.349342E-3
588.089561E-3
587.977982E-3
587.795448E-3
587.637520E-3
587.377167E-3
587.260437E-3
587.212372E-3
587.120819E-3
587.149429E-3
586.944008E-3
586.922836E-3
586.805534E-3
586.754036E-3
586.665916E-3
586.568069E-3
586.470795E-3
586.142349E-3
585.789871E-3
585.425949E-3
585.186195E-3
585.107803E-3
585.092354E-3
585.140419E-3
585.031700E-3
584.890366E-3
584.668922E-3
584.442329E-3
584.175110E-3
583.615494E-3
583.034134E-3
582.801819E-3
582.527161E-3
582.398415E-3
582.264519E-3
582.181549E-3
582.163811E-3
582.247925E-3
582.380676E-3
583.265877E-3
585.048294E-3
588.032341E-3
592.185974E-3
597.036552E-3
602.445602E-3
607.707596E-3
612.653732E-3
616.222000E-3
618.364334E-3
619.192886E-3
618.727112E-3
617.278290E-3
615.008354E-3
612.602234E-3
610.358620E-3
608.227158E-3
606.623268E-3
605.413628E-3
604.767609E-3
604.532433E-3
604.472923E-3
604.731560E-3
605.341530E-3
605.676270E-3
605.950356E-3
605.835915E-3
605.492592E-3
604.507256E-3
603.235817E-3
601.869965E-3
600.609398E-3
599.943924E-3
599.458694E-3
599.313927E-3
599.511909E-3
599.885559E-3
600.365639E-3
600.810242E-3
601.239395E-3
601.354980E-3
601.425934E-3
601.129532E-3
600.732422E-3
600.243759E-3
599.747086E-3
599.037552E-3
598.400116E-3
597.756958E-3
597.092628E-3
596.233749E-3
595.779991E-3
595.380592E-3
594.935989E-3
594.546318E-3
594.232750E-3
593.962669E-3
593.653679E-3
593.358421E-3
593.021965E-3
592.844582E-3
592.543602E-3
592.310143E-3
592.131615E-3
592.034912E-3
591.867828E-3
591.674423E-3
591.506195E-3
591.561127E-3
591.168594E-3
590.991783E-3
590.763474E-3
590.707970E-3
590.658188E-3
590.582657E-3
590.562630E-3
590.295982E-3
590.112305E-3
589.809036E-3
589.519501E-3
589.273453E-3
589.035988E-3
588.739586E-3
588.422012E-3
587.848091E-3
587.840080E-3
587.491035E-3
587.184906E-3
586.771774E-3
586.174965E-3
585.669708E-3
585.131264E-3
584.560776E-3
583.927917E-3
583.303642E-3
582.656479E-3
582.166100E-3
581.828499E-3
581.754112E-3
581.707764E-3
581.718636E-3
581.851959E-3
582.382965E-3
584.286118E-3
587.359428E-3
591.410637E-3
596.256065E-3
601.599312E-3
606.787491E-3
611.248398E-3
614.287949E-3
615.955353E-3
615.954208E-3
614.640999E-3
612.797928E-3
610.656738E-3
608.369637E-3
606.204414E-3
604.387665E-3
602.626991E-3
601.510620E-3
600.765038E-3
600.581932E-3
600.700951E-3
600.951576E-3
601.353836E-3
601.789856E-3
601.939201E-3
601.416206E-3
600.366211E-3
599.131393E-3
