Notes :


2023-11-06 ¿ÀÈÄ 11:11:01
Volts
Ch : LED 2,
371.833992E-3
371.837425E-3
371.741295E-3
371.601677E-3
371.540451E-3
371.391678E-3
370.939636E-3
371.162796E-3
371.243477E-3
371.359634E-3
371.273804E-3
371.368217E-3
371.471786E-3
371.428299E-3
371.649170E-3
371.198273E-3
371.505547E-3
371.475220E-3
371.356201E-3
371.272659E-3
371.069527E-3
370.923042E-3
370.881844E-3
370.623779E-3
370.319366E-3
370.321655E-3
370.329094E-3
370.326805E-3
370.204353E-3
370.240402E-3
370.237541E-3
370.156288E-3
370.176888E-3
370.203781E-3
370.147133E-3
370.093346E-3
370.070457E-3
370.031548E-3
369.960022E-3
370.032692E-3
369.926834E-3
369.965172E-3
369.727135E-3
369.837570E-3
369.887352E-3
369.877052E-3
369.914246E-3
369.906235E-3
369.733429E-3
369.803810E-3
369.687653E-3
369.669342E-3
369.730568E-3
369.604683E-3
369.618988E-3
369.526863E-3
369.552612E-3
369.584084E-3
369.402695E-3
369.366074E-3
369.427872E-3
369.323730E-3
369.287109E-3
369.150925E-3
369.214439E-3
369.115448E-3
369.106293E-3
369.140625E-3
368.976974E-3
368.804741E-3
368.872833E-3
368.817329E-3
368.851089E-3
368.711472E-3
368.721199E-3
368.663979E-3
368.709755E-3
368.884850E-3
369.320297E-3
369.759750E-3
370.354843E-3
371.117020E-3
371.947861E-3
372.527504E-3
373.175812E-3
373.588943E-3
373.867035E-3
373.923111E-3
373.792076E-3
373.593521E-3
373.232460E-3
372.900009E-3
372.634506E-3
372.288895E-3
372.239685E-3
372.022820E-3
371.791649E-3
371.760178E-3
371.679497E-3
371.870041E-3
372.033119E-3
372.024536E-3
372.116661E-3
371.823120E-3
371.879196E-3
371.720123E-3
371.572495E-3
371.526718E-3
371.256638E-3
371.232605E-3
371.336746E-3
371.304131E-3
371.449471E-3
371.298981E-3
371.529007E-3
371.557045E-3
371.607971E-3
371.721840E-3
371.584511E-3
371.627998E-3
371.541595E-3
371.224594E-3
371.301270E-3
371.084404E-3
370.977974E-3
370.844650E-3
370.676994E-3
370.616913E-3
370.461845E-3
370.475578E-3
370.386314E-3
370.326805E-3
370.404625E-3
370.193481E-3
370.202637E-3
370.109367E-3
370.057869E-3
370.092201E-3
369.993210E-3
369.952011E-3
369.912529E-3
369.904518E-3
370.013237E-3
369.846725E-3
369.914818E-3
369.879913E-3
369.919395E-3
369.860458E-3
369.652176E-3
369.743156E-3
369.717407E-3
369.642448E-3
369.723701E-3
369.558907E-3
369.684792E-3
369.572067E-3
369.558334E-3
369.638443E-3
369.453049E-3
369.402122E-3
369.253922E-3
369.183540E-3
369.216728E-3
369.102859E-3
369.110298E-3
369.165802E-3
369.139481E-3
369.104004E-3
368.992996E-3
369.007874E-3
368.894005E-3
368.799019E-3
368.891716E-3
368.738365E-3
368.788147E-3
368.742943E-3
368.624496E-3
368.662262E-3
368.525505E-3
368.573570E-3
368.536377E-3
368.460846E-3
368.654251E-3
368.913460E-3
369.533730E-3
370.255852E-3
370.955658E-3
371.889496E-3
372.441673E-3
373.040771E-3
373.288536E-3
373.404694E-3
373.527145E-3
373.307991E-3
373.176384E-3
372.852516E-3
372.489166E-3
372.274590E-3
371.887207E-3
371.777344E-3
371.448898E-3
371.385384E-3
371.337891E-3
371.218872E-3
371.319580E-3
371.383667E-3
371.393967E-3
371.474648E-3
371.403122E-3
371.282387E-3
371.212006E-3
371.019745E-3
370.983696E-3
370.929337E-3
370.928764E-3
371.008873E-3
370.977402E-3
371.126175E-3
370.972252E-3
371.198845E-3
371.254921E-3
371.392250E-3
371.445465E-3
371.281815E-3
371.198845E-3
371.123314E-3
370.932770E-3
370.746231E-3
370.504761E-3
370.502472E-3
370.393753E-3
370.191193E-3
370.235825E-3
370.140266E-3
370.121956E-3
370.131683E-3
370.034981E-3
369.948578E-3
369.753456E-3
369.734001E-3
369.681931E-3
369.660759E-3
369.823265E-3
369.604683E-3
369.618988E-3
369.568634E-3
369.502258E-3
369.538307E-3
369.480515E-3
369.552040E-3
369.604111E-3
369.537163E-3
369.635010E-3
369.567490E-3
369.573784E-3
369.538307E-3
369.467354E-3
369.541740E-3
369.404984E-3
369.399834E-3
369.389534E-3
369.304276E-3
369.296265E-3
369.164658E-3
369.180107E-3
369.246483E-3
369.187546E-3
369.175529E-3
369.035912E-3
369.049072E-3
369.074821E-3
368.955231E-3
369.071960E-3
368.881416E-3
368.841934E-3
368.808174E-3
368.730927E-3
368.690300E-3
368.625641E-3
368.564987E-3
368.587303E-3
368.559837E-3
368.755531E-3
368.897438E-3
369.570351E-3
370.187187E-3
370.900154E-3
371.788788E-3
372.423363E-3
372.985840E-3
373.450470E-3
373.512268E-3
373.606682E-3
373.337746E-3
373.184967E-3
372.928619E-3
372.639656E-3
372.443962E-3
372.136116E-3
371.986771E-3
371.828270E-3
371.602249E-3
371.659470E-3
371.598816E-3
371.650314E-3
371.751595E-3
371.847153E-3
371.961594E-3
371.850586E-3
371.737862E-3
371.483231E-3
371.345329E-3
371.335030E-3
371.208572E-3
371.232033E-3
371.213150E-3
371.132469E-3
371.373940E-3
371.312141E-3
371.370506E-3
371.452332E-3
371.596527E-3
371.708679E-3
371.657753E-3
371.617699E-3
371.514130E-3
371.281242E-3
371.173096E-3
370.917892E-3
370.865250E-3
370.733070E-3
370.623207E-3
370.609474E-3
370.421219E-3
370.362282E-3
370.270729E-3
370.170593E-3
370.230103E-3
370.133972E-3
370.192909E-3
370.215797E-3
370.123100E-3
370.187187E-3
370.054436E-3
370.042992E-3
370.022392E-3
369.966888E-3
370.179749E-3
370.029831E-3
370.075607E-3
370.052719E-3
369.960594E-3
370.049286E-3
369.935989E-3
370.004082E-3
369.958878E-3
369.914246E-3
369.944000E-3
369.895935E-3
369.853020E-3
369.901657E-3
369.747734E-3
369.839287E-3
369.770622E-3
369.701958E-3
369.568634E-3
369.467354E-3
369.545746E-3
369.525719E-3
369.570351E-3
369.475937E-3
369.372940E-3
369.417000E-3
369.298553E-3
369.290543E-3
369.287109E-3
369.204140E-3
369.311714E-3
369.228745E-3
369.221878E-3
369.133186E-3
369.041061E-3
369.100571E-3
368.943214E-3
368.926620E-3
369.037056E-3
369.268799E-3
369.926262E-3
370.544815E-3
371.346474E-3
372.185898E-3
372.788429E-3
373.389244E-3
373.726845E-3
374.024391E-3
374.102211E-3
373.950005E-3
373.810959E-3
373.500824E-3
373.184395E-3
372.947502E-3
372.585297E-3
372.482872E-3
372.207069E-3
372.121811E-3
372.236824E-3
372.231102E-3
372.328949E-3
372.367287E-3
372.521210E-3
372.536659E-3
372.437096E-3
372.379875E-3
372.231102E-3
372.146988E-3
372.008514E-3
371.737289E-3
371.763039E-3
371.747589E-3
371.732712E-3
371.815109E-3
371.834564E-3
371.904373E-3
371.881485E-3
371.946716E-3
372.077179E-3
372.073746E-3
372.054291E-3
371.872902E-3
371.803665E-3
371.836853E-3
371.602249E-3
371.455765E-3
371.244049E-3
371.189117E-3
371.189690E-3
370.977402E-3
370.928764E-3
370.848656E-3
370.809174E-3
370.725060E-3
370.611191E-3
370.707893E-3
370.658684E-3
370.636940E-3
370.659256E-3
370.476151E-3
370.521355E-3
370.460129E-3
370.462990E-3
370.590591E-3
370.457840E-3
370.518494E-3
370.473862E-3
370.476723E-3
370.514488E-3
370.427513E-3
370.474434E-3
370.392609E-3
370.374870E-3
370.362854E-3
370.284462E-3
370.418358E-3
370.315361E-3
370.322800E-3
370.326805E-3
370.097351E-3
370.194626E-3
370.091629E-3
370.127678E-3
370.097923E-3
369.913101E-3
370.022392E-3
370.010376E-3
369.913101E-3
369.786644E-3
369.795227E-3
369.823265E-3
369.778633E-3
369.747734E-3
369.839859E-3
369.617844E-3
369.662476E-3
369.651031E-3
369.789505E-3
369.685364E-3
369.475937E-3
369.524574E-3
369.433022E-3
369.394684E-3
369.475365E-3
369.584084E-3
370.108795E-3
370.676422E-3
371.430588E-3
372.249985E-3
372.865105E-3
373.524284E-3
374.001503E-3
374.297333E-3
374.594307E-3
374.391747E-3
374.155426E-3
373.869896E-3
373.643875E-3
373.433876E-3
372.966957E-3
372.825050E-3
372.628212E-3
372.512627E-3
372.462273E-3
372.331810E-3
372.492599E-3
372.439957E-3
372.565269E-3
372.633934E-3
372.579002E-3
372.501755E-3
372.430229E-3
372.217941E-3
372.146416E-3
372.006798E-3
372.074890E-3
372.022820E-3
372.146988E-3
372.221947E-3
372.177887E-3
372.340965E-3
372.399330E-3
372.521210E-3
372.665405E-3
372.493744E-3
372.561264E-3
372.430229E-3
372.220802E-3
372.162437E-3
372.018814E-3
371.916962E-3
371.697235E-3
371.680641E-3
371.604538E-3
371.437454E-3
371.345329E-3
371.415710E-3
371.269226E-3
371.174812E-3
371.046066E-3
371.111870E-3
371.027756E-3
370.947647E-3
370.967674E-3
370.834351E-3
370.788574E-3
370.733070E-3
370.697021E-3
370.781136E-3
370.718193E-3
370.719910E-3
370.676994E-3
370.527077E-3
370.536232E-3
370.423508E-3
370.467567E-3
370.464706E-3
370.361137E-3
370.386887E-3
370.244980E-3
370.248413E-3
370.286751E-3
370.151711E-3
370.262146E-3
370.159149E-3
370.210075E-3
370.125389E-3
369.983482E-3
370.076752E-3
370.077324E-3
370.110512E-3
370.070457E-3
369.881058E-3
369.996071E-3
369.907951E-3
369.941139E-3
369.849014E-3
369.701958E-3
369.765472E-3
369.684792E-3
369.782639E-3
369.733429E-3
369.667625E-3
369.858170E-3
369.992065E-3
370.409203E-3
371.026039E-3
371.641159E-3
372.459412E-3
373.043633E-3
373.640442E-3
374.071884E-3
374.317932E-3
374.534798E-3
374.341965E-3
374.218941E-3
374.074173E-3
373.734856E-3
373.530006E-3
373.199844E-3
372.920609E-3
372.670555E-3
372.471428E-3
372.501183E-3
372.395897E-3
372.540665E-3
372.655106E-3
372.703171E-3
372.803307E-3
372.715759E-3
372.754097E-3
372.514343E-3
372.264290E-3
372.279739E-3
372.188187E-3
372.226524E-3
372.291756E-3
372.195625E-3
372.277451E-3
372.197914E-3
372.317505E-3
372.412491E-3
372.435379E-3
372.609901E-3
372.548103E-3
372.575569E-3
372.506905E-3
372.384453E-3
372.286606E-3
372.087479E-3
371.916389E-3
371.796799E-3
371.617699E-3
371.629715E-3
371.471786E-3
371.359062E-3
371.415138E-3
371.229744E-3
371.343613E-3
371.212578E-3
371.199417E-3
371.165657E-3
371.016884E-3
371.099281E-3
370.920753E-3
371.011162E-3
370.968246E-3
370.896149E-3
370.995140E-3
370.907021E-3
370.955658E-3
370.991135E-3
370.927048E-3
370.918465E-3
370.834923E-3
370.806313E-3
370.786858E-3
370.763969E-3
370.751953E-3
370.658684E-3
370.666122E-3
370.695877E-3
370.519638E-3
370.631790E-3
370.433235E-3
370.516777E-3
370.544243E-3
370.404625E-3
370.549965E-3
370.470428E-3
370.345116E-3
370.302200E-3
370.242119E-3
370.301628E-3
370.153427E-3
370.218086E-3
370.211792E-3
370.108223E-3
370.218658E-3
370.097923E-3
370.011520E-3
370.023537E-3
369.935989E-3
370.009232E-3
369.952583E-3
370.075607E-3
370.345688E-3
370.718193E-3
371.434021E-3
371.997070E-3
372.755241E-3
373.465347E-3
374.144554E-3
374.600601E-3
374.811745E-3
374.938774E-3
374.753380E-3
374.565125E-3
374.443245E-3
374.072456E-3
373.832703E-3
373.583794E-3
373.302269E-3
373.211861E-3
373.075104E-3
372.961807E-3
373.052216E-3
373.065376E-3
373.271942E-3
373.246765E-3
373.364067E-3
373.419571E-3
373.270226E-3
373.254204E-3
373.095703E-3
373.001289E-3
372.880554E-3
372.806740E-3
372.783852E-3
372.607613E-3
372.752380E-3
372.768974E-3
372.775269E-3
372.926331E-3
372.928047E-3
373.030472E-3
373.079681E-3
373.003006E-3
372.949219E-3
372.844505E-3
372.671127E-3
372.651100E-3
372.375298E-3
372.344398E-3
372.121239E-3
372.033691E-3
371.969604E-3
371.901512E-3
371.876907E-3
371.851158E-3
371.784782E-3
371.799660E-3
371.645737E-3
371.673203E-3
371.562195E-3
371.589088E-3
371.632576E-3
371.556473E-3
371.486664E-3
371.403122E-3
371.300697E-3
371.359062E-3
371.329308E-3
371.377373E-3
371.325874E-3
371.391678E-3
371.396255E-3
371.297264E-3
371.310425E-3
371.224022E-3
371.186829E-3
371.260071E-3
371.087837E-3
371.146202E-3
371.018028E-3
371.020317E-3
370.995712E-3
370.890427E-3
371.004295E-3
370.854950E-3
370.822906E-3
370.804596E-3
370.716476E-3
370.745087E-3
370.638657E-3
370.622635E-3
370.624924E-3
370.587158E-3
370.554543E-3
370.401764E-3
370.343971E-3
370.321083E-3
370.187759E-3
370.222092E-3
370.143700E-3
370.125389E-3
370.137978E-3
370.131111E-3
370.349693E-3
370.658684E-3
371.256638E-3
372.043419E-3
372.748947E-3
373.552895E-3
374.123955E-3
374.423218E-3
374.696159E-3
374.566269E-3
374.582863E-3
374.305916E-3
374.065590E-3
373.879623E-3
373.515701E-3
373.357201E-3
373.080826E-3
372.908592E-3
372.801018E-3
372.648239E-3
372.757530E-3
372.708321E-3
372.763252E-3
372.805595E-3
372.825623E-3
372.940063E-3
372.839355E-3
372.612762E-3
372.410202E-3
372.207642E-3
372.160721E-3
372.045708E-3
372.127533E-3
372.270584E-3
372.197342E-3
372.273445E-3
372.224236E-3
372.323799E-3
372.390747E-3
372.295189E-3
372.306061E-3
372.089767E-3
372.011375E-3
371.962166E-3
371.696663E-3
371.720123E-3
371.589088E-3
371.530724E-3
371.459198E-3
371.223450E-3
371.190834E-3
371.007729E-3
370.941925E-3
370.925331E-3
370.757675E-3
370.761681E-3
370.786285E-3
370.709038E-3
370.724487E-3
370.682716E-3
370.737076E-3
370.688438E-3
370.555115E-3
370.558548E-3
370.345688E-3
370.452118E-3
370.425797E-3
370.436668E-3
370.532799E-3
370.430374E-3
370.402336E-3
370.321083E-3
370.265007E-3
370.298195E-3
370.132828E-3
370.120239E-3
370.069313E-3
370.097351E-3
370.138550E-3
369.988060E-3
370.012093E-3
369.934273E-3
369.831276E-3
369.813538E-3
369.718552E-3
369.825554E-3
369.781494E-3
369.716263E-3
369.822121E-3
369.588089E-3
369.578934E-3
369.512558E-3
369.413567E-3
369.399834E-3
369.273376E-3
369.231606E-3
369.269943E-3
369.281960E-3
369.340324E-3
369.523430E-3
370.022964E-3
370.557976E-3
371.225739E-3
372.082901E-3
372.548103E-3
373.206139E-3
373.529434E-3
373.820686E-3
373.982048E-3
373.837280E-3
373.771477E-3
373.504829E-3
373.262215E-3
373.095703E-3
372.838211E-3
372.637367E-3
372.377586E-3
372.271156E-3
372.250557E-3
372.279167E-3
372.403908E-3
372.462273E-3
372.426796E-3
372.518349E-3
372.332382E-3
372.367859E-3
372.207642E-3
372.015381E-3
371.899796E-3
371.717262E-3
371.923256E-3
371.963310E-3
371.878624E-3
371.962738E-3
372.073746E-3
372.157288E-3
372.260284E-3
372.270012E-3
372.406197E-3
372.373009E-3
372.437096E-3
372.282028E-3
372.161293E-3
372.096634E-3
371.829414E-3
371.753311E-3
371.582794E-3
371.434593E-3
371.474648E-3
371.205139E-3
371.222305E-3
371.163940E-3
371.054077E-3
371.167946E-3
371.052933E-3
370.965385E-3
370.983696E-3
370.818329E-3
370.867538E-3
370.703316E-3
370.793724E-3
370.774269E-3
370.668411E-3
370.766258E-3
370.665550E-3
370.661545E-3
370.682716E-3
370.615196E-3
370.606613E-3
370.500755E-3
370.578003E-3
370.596886E-3
370.547104E-3
370.565987E-3
370.406342E-3
370.453835E-3
370.391464E-3
370.280457E-3
370.364571E-3
370.209503E-3
370.322800E-3
370.302773E-3
370.203209E-3
370.268440E-3
370.156860E-3
370.202065E-3
370.375443E-3
370.152283E-3
370.305061E-3
370.096779E-3
370.183754E-3
370.128250E-3
369.983482E-3
370.114517E-3
369.946289E-3
369.986343E-3
369.955444E-3
369.849014E-3
369.923973E-3
369.855881E-3
370.125389E-3
370.546532E-3
371.012878E-3
371.820259E-3
372.462845E-3
373.285103E-3
373.888206E-3
374.260712E-3
374.501610E-3
374.606895E-3
374.701309E-3
374.431229E-3
374.209785E-3
374.099350E-3
373.741722E-3
373.457909E-3
373.266792E-3
373.095703E-3
373.047638E-3
372.856522E-3
372.920609E-3
373.122025E-3
373.180389E-3
373.265076E-3
373.293114E-3
373.389244E-3
373.341751E-3
373.213005E-3
373.124886E-3
