Notes :


2023-11-04 ¿ÀÈÄ 9:33:38
Volts
Ch : LED 2,
542.574120E-3
542.031097E-3
541.442299E-3
540.942764E-3
540.383720E-3
540.058136E-3
539.705086E-3
539.441299E-3
539.171791E-3
538.795853E-3
538.641930E-3
538.470268E-3
538.191605E-3
538.058853E-3
537.883759E-3
537.756729E-3
537.450027E-3
537.470055E-3
537.460899E-3
537.450027E-3
537.447166E-3
537.333870E-3
537.233162E-3
537.268066E-3
537.060356E-3
536.923027E-3
536.935043E-3
536.810303E-3
536.771965E-3
536.545372E-3
536.509895E-3
536.457253E-3
536.311913E-3
536.306763E-3
536.126518E-3
535.989761E-3
535.787773E-3
535.639000E-3
535.569763E-3
535.355186E-3
535.216141E-3
535.051346E-3
534.873962E-3
534.661674E-3
534.300041E-3
534.095764E-3
533.780479E-3
533.514404E-3
533.230019E-3
533.160782E-3
532.936478E-3
533.225441E-3
534.000778E-3
535.954857E-3
538.605309E-3
541.983032E-3
545.546150E-3
548.893547E-3
551.869583E-3
553.895187E-3
555.380630E-3
555.769730E-3
555.306816E-3
554.498863E-3
553.052902E-3
551.545143E-3
550.045967E-3
548.518181E-3
547.192383E-3
546.247101E-3
545.602798E-3
545.167351E-3
544.924164E-3
544.912148E-3
544.919586E-3
544.935608E-3
544.863510E-3
544.706726E-3
544.235229E-3
543.653297E-3
543.309975E-3
543.041039E-3
542.924881E-3
543.156052E-3
543.435860E-3
543.932533E-3
544.519615E-3
544.747353E-3
545.039749E-3
545.056343E-3
545.083237E-3
544.853210E-3
544.511032E-3
544.277573E-3
543.752289E-3
543.523407E-3
542.895126E-3
542.302895E-3
541.870880E-3
541.205406E-3
540.771103E-3
540.340805E-3
539.876747E-3
539.712524E-3
539.360619E-3
539.144325E-3
538.930893E-3
538.759232E-3
538.675690E-3
538.463402E-3
538.297462E-3
538.256836E-3
538.016510E-3
538.041115E-3
537.927818E-3
537.929535E-3
537.896919E-3
537.664604E-3
537.580490E-3
537.459183E-3
537.401962E-3
537.292099E-3
537.093544E-3
536.984253E-3
536.885834E-3
536.791420E-3
536.783981E-3
536.603737E-3
536.553383E-3
536.505890E-3
536.226654E-3
535.969734E-3
535.866737E-3
535.687637E-3
535.457039E-3
535.189819E-3
534.951210E-3
534.651375E-3
534.314919E-3
533.960152E-3
533.623123E-3
533.427429E-3
533.260918E-3
533.350754E-3
533.800507E-3
534.958649E-3
537.138748E-3
539.929962E-3
543.419838E-3
546.878815E-3
550.148392E-3
552.854347E-3
554.699707E-3
555.649567E-3
555.627251E-3
555.012131E-3
553.977585E-3
552.478409E-3
550.966072E-3
549.441147E-3
548.234940E-3
547.228432E-3
546.374130E-3
546.045113E-3
545.589066E-3
545.466614E-3
545.380783E-3
545.370483E-3
545.562744E-3
545.384216E-3
545.024872E-3
544.465256E-3
543.699074E-3
543.350601E-3
543.010712E-3
542.892838E-3
543.127441E-3
543.297958E-3
543.700218E-3
543.949699E-3
544.388580E-3
544.683266E-3
544.735336E-3
544.724464E-3
544.461250E-3
544.225502E-3
543.865013E-3
543.449593E-3
543.044472E-3
542.420197E-3
541.810799E-3
541.498947E-3
540.842056E-3
540.399170E-3
540.009499E-3
539.634705E-3
539.400673E-3
539.161491E-3
539.013863E-3
538.693428E-3
538.605881E-3
538.508606E-3
538.312340E-3
538.209343E-3
538.078880E-3
537.979889E-3
537.898064E-3
537.812233E-3
538.019943E-3
537.750435E-3
537.676048E-3
537.542152E-3
537.347603E-3
537.352753E-3
537.190247E-3
537.083817E-3
537.000847E-3
537.035179E-3
536.876106E-3
536.665535E-3
536.555672E-3
536.449242E-3
536.289024E-3
536.202049E-3
536.100197E-3
535.907936E-3
535.749435E-3
535.595512E-3
535.486221E-3
535.352898E-3
535.259628E-3
535.118294E-3
534.778404E-3
534.698868E-3
534.196472E-3
533.870316E-3
533.640289E-3
533.315277E-3
533.256340E-3
533.464050E-3
534.065437E-3
535.655594E-3
538.044548E-3
541.287231E-3
544.925308E-3
548.636627E-3
551.930809E-3
554.621315E-3
556.490707E-3
557.279778E-3
557.330132E-3
556.719589E-3
555.317116E-3
553.882027E-3
552.330208E-3
551.012421E-3
549.856567E-3
548.827171E-3
548.325920E-3
547.916222E-3
547.574043E-3
547.551727E-3
547.642136E-3
547.903061E-3
548.081589E-3
548.151398E-3
547.985458E-3
547.445869E-3
546.827316E-3
546.386147E-3
545.740700E-3
545.452309E-3
545.230293E-3
545.370483E-3
545.453453E-3
545.726967E-3
545.966148E-3
546.101761E-3
546.164131E-3
546.263123E-3
546.129799E-3
545.844841E-3
545.555878E-3
545.099258E-3
544.652939E-3
544.306183E-3
543.774605E-3
543.185234E-3
542.704582E-3
542.110062E-3
541.640282E-3
541.371346E-3
540.953064E-3
540.795135E-3
540.440369E-3
540.367126E-3
540.324783E-3
540.094757E-3
540.005493E-3
539.820671E-3
539.660454E-3
539.696503E-3
539.443016E-3
539.639282E-3
539.512825E-3
539.325142E-3
539.312553E-3
539.182663E-3
539.155197E-3
538.934326E-3
538.767242E-3
538.665962E-3
538.584137E-3
538.495445E-3
538.236237E-3
538.205338E-3
538.108635E-3
537.845421E-3
537.769318E-3
537.686348E-3
537.447739E-3
537.450600E-3
537.147331E-3
537.068939E-3
536.987686E-3
536.789703E-3
536.735916E-3
536.434937E-3
536.349678E-3
536.128807E-3
535.839272E-3
535.668182E-3
535.451317E-3
535.188103E-3
534.843636E-3
534.613037E-3
534.549522E-3
534.566689E-3
534.729767E-3
535.479927E-3
537.080383E-3
539.734840E-3
542.899704E-3
546.518898E-3
549.992752E-3
553.108978E-3
555.300522E-3
556.908417E-3
557.436562E-3
557.146454E-3
556.209183E-3
555.038452E-3
553.472328E-3
552.008057E-3
550.672531E-3
549.478912E-3
548.665237E-3
547.897339E-3
547.529411E-3
547.344017E-3
547.303963E-3
547.494507E-3
547.565460E-3
547.714806E-3
547.382927E-3
547.162628E-3
546.448517E-3
545.786476E-3
545.380211E-3
545.153618E-3
545.103836E-3
545.270920E-3
545.377350E-3
545.835114E-3
546.103477E-3
546.310616E-3
546.521187E-3
546.417046E-3
546.340942E-3
546.063423E-3
545.706367E-3
545.357895E-3
544.949913E-3
544.445801E-3
543.761444E-3
543.238449E-3
542.842484E-3
542.229652E-3
541.873169E-3
541.534424E-3
541.132164E-3
541.127586E-3
540.710449E-3
540.525627E-3
540.364265E-3
540.142250E-3
540.019798E-3
539.923096E-3
539.830971E-3
539.686775E-3
539.540863E-3
539.481926E-3
539.371490E-3
539.329147E-3
539.259338E-3
539.136887E-3
539.032745E-3
538.685417E-3
538.682556E-3
538.613892E-3
538.572693E-3
538.492012E-3
538.341522E-3
538.291168E-3
538.189316E-3
537.977600E-3
537.749863E-3
537.673759E-3
537.535858E-3
537.314415E-3
537.043762E-3
536.887550E-3
536.621475E-3
536.587715E-3
536.262703E-3
536.144257E-3
535.770035E-3
535.295105E-3
534.995842E-3
534.604454E-3
534.350395E-3
534.240532E-3
534.198761E-3
534.371567E-3
534.939194E-3
536.347389E-3
538.756371E-3
541.884613E-3
545.340157E-3
548.664665E-3
551.708221E-3
554.065704E-3
555.459595E-3
555.832672E-3
555.699348E-3
554.699135E-3
553.491211E-3
551.904488E-3
550.419044E-3
549.151611E-3
547.987747E-3
547.047615E-3
546.310616E-3
545.984459E-3
545.724678E-3
545.543289E-3
545.672607E-3
545.681763E-3
545.736694E-3
545.486641E-3
544.941902E-3
544.394302E-3
543.740273E-3
543.384361E-3
543.218422E-3
543.180084E-3
543.482208E-3
543.625259E-3
544.168854E-3
544.457817E-3
544.580841E-3
544.763374E-3
544.656944E-3
544.509888E-3
544.295883E-3
543.879318E-3
543.442154E-3
543.027878E-3
542.494583E-3
541.838837E-3
541.252327E-3
540.789413E-3
540.236092E-3
539.752007E-3
539.412117E-3
538.927460E-3
538.843918E-3
538.442802E-3
538.264847E-3
538.243675E-3
538.025093E-3
537.910652E-3
537.650299E-3
537.571907E-3
537.409973E-3
537.130737E-3
537.278366E-3
537.187958E-3
537.107277E-3
536.948776E-3
536.859512E-3
536.755371E-3
536.607170E-3
536.549377E-3
536.560249E-3
536.295319E-3
536.166000E-3
535.898209E-3
535.792923E-3
535.691071E-3
535.482216E-3
535.289955E-3
535.067940E-3
535.067368E-3
534.798431E-3
534.471130E-3
534.415627E-3
534.206772E-3
534.118652E-3
533.945847E-3
533.803940E-3
533.532143E-3
533.265495E-3
532.922173E-3
532.662392E-3
532.254410E-3
531.967735E-3
531.742859E-3
531.651878E-3
531.842422E-3
532.143974E-3
533.456612E-3
535.625839E-3
538.631058E-3
542.150688E-3
545.681763E-3
549.222565E-3
552.099609E-3
554.132080E-3
555.182076E-3
555.319977E-3
554.823303E-3
553.688622E-3
552.426338E-3
550.873375E-3
549.440002E-3
548.389435E-3
547.543716E-3
546.780968E-3
546.367836E-3
546.082306E-3
546.103477E-3
546.124649E-3
546.367264E-3
546.515465E-3
546.518326E-3
546.521759E-3
545.991325E-3
545.347595E-3
544.679832E-3
544.049835E-3
543.676758E-3
543.435860E-3
543.507385E-3
543.574333E-3
543.756866E-3
543.898773E-3
544.083023E-3
544.191170E-3
544.193459E-3
543.980598E-3
543.818092E-3
543.437576E-3
543.076515E-3
542.603302E-3
542.170143E-3
541.647720E-3
541.104698E-3
540.644073E-3
540.195465E-3
539.658737E-3
539.512253E-3
539.055634E-3
538.779831E-3
538.566971E-3
538.364410E-3
538.237953E-3
538.032532E-3
537.841415E-3
537.662315E-3
537.510681E-3
537.492371E-3
537.372208E-3
537.253189E-3
537.219429E-3
537.038612E-3
536.972237E-3
536.779404E-3
536.739922E-3
536.583138E-3
536.347389E-3
536.273575E-3
536.112213E-3
536.016083E-3
535.917664E-3
535.648155E-3
535.520554E-3
535.288811E-3
535.184097E-3
535.018158E-3
534.831047E-3
534.742928E-3
534.599304E-3
534.443665E-3
534.385872E-3
534.245110E-3
534.133530E-3
533.993340E-3
533.865166E-3
533.734131E-3
533.472061E-3
533.303833E-3
532.959938E-3
532.688713E-3
532.497025E-3
532.142830E-3
532.063293E-3
531.941414E-3
532.036400E-3
532.464981E-3
533.581924E-3
535.713387E-3
538.628769E-3
542.129517E-3
545.777893E-3
549.125290E-3
551.916504E-3
553.844833E-3
554.901695E-3
555.063057E-3
554.555511E-3
553.503227E-3
552.354813E-3
550.762367E-3
549.407959E-3
548.060417E-3
547.151756E-3
546.334076E-3
545.934105E-3
545.738411E-3
545.553589E-3
545.902061E-3
546.001625E-3
546.065712E-3
546.084595E-3
545.913506E-3
545.420837E-3
544.699287E-3
544.074440E-3
543.527412E-3
543.018150E-3
543.131447E-3
543.283653E-3
543.510246E-3
543.925095E-3
544.014359E-3
544.314194E-3
544.331932E-3
544.271278E-3
544.014931E-3
543.807793E-3
543.533134E-3
543.081665E-3
542.753792E-3
542.348671E-3
541.756439E-3
541.329002E-3
540.835190E-3
540.404892E-3
540.039253E-3
539.749146E-3
539.446449E-3
539.179802E-3
538.960648E-3
538.867950E-3
538.548088E-3
538.437080E-3
538.386726E-3
538.180733E-3
538.160706E-3
538.005066E-3
537.944984E-3
537.863731E-3
537.751007E-3
537.727547E-3
537.583923E-3
537.492371E-3
537.321854E-3
537.234306E-3
537.133026E-3
536.944199E-3
536.903572E-3
536.819458E-3
536.777115E-3
536.658669E-3
536.398315E-3
536.240387E-3
536.043549E-3
535.903931E-3
535.797501E-3
535.550880E-3
535.502243E-3
535.125160E-3
535.104561E-3
535.027885E-3
534.788704E-3
534.645081E-3
534.483719E-3
534.199333E-3
533.884621E-3
533.587074E-3
533.282089E-3
532.982826E-3
532.867813E-3
532.835197E-3
532.650948E-3
532.830620E-3
533.437729E-3
534.739494E-3
536.999130E-3
540.054703E-3
543.384933E-3
546.583557E-3
549.623680E-3
551.869011E-3
553.256035E-3
553.861427E-3
553.552437E-3
552.765083E-3
551.410103E-3
549.922371E-3
548.508453E-3
547.075653E-3
545.932388E-3
545.059776E-3
544.281006E-3
543.896484E-3
543.614388E-3
543.781471E-3
543.718529E-3
543.669319E-3
543.548584E-3
543.271637E-3
542.924881E-3
542.332649E-3
541.665459E-3
541.396523E-3
541.502953E-3
541.477203E-3
541.735840E-3
541.964722E-3
542.457962E-3
542.756653E-3
542.982101E-3
543.078804E-3
542.916298E-3
542.820168E-3
542.430496E-3
542.090034E-3
541.695786E-3
541.074944E-3
540.571976E-3
539.936829E-3
539.283371E-3
538.898849E-3
538.342667E-3
538.006210E-3
537.621117E-3
537.325287E-3
537.059784E-3
536.769676E-3
536.727333E-3
536.618614E-3
536.405182E-3
536.295319E-3
536.076736E-3
536.016083E-3
535.979462E-3
535.851860E-3
535.843277E-3
535.733986E-3
535.496521E-3
535.501099E-3
535.308266E-3
535.352325E-3
535.229301E-3
535.200119E-3
535.161781E-3
534.968376E-3
534.967232E-3
534.637642E-3
534.564400E-3
534.354973E-3
534.231377E-3
534.235954E-3
534.025383E-3
533.894348E-3
533.753586E-3
533.602524E-3
533.616829E-3
533.345032E-3
533.232307E-3
533.105850E-3
532.951927E-3
532.772827E-3
532.447815E-3
532.194901E-3
531.841278E-3
531.748581E-3
531.346893E-3
531.018448E-3
530.926895E-3
530.961227E-3
531.211281E-3
532.207489E-3
534.036827E-3
536.878967E-3
540.226936E-3
543.794060E-3
547.293091E-3
550.220490E-3
552.558517E-3
553.958702E-3
554.312897E-3
553.982162E-3
553.041458E-3
551.897621E-3
550.407600E-3
549.035454E-3
547.868156E-3
546.775246E-3
546.099472E-3
545.494652E-3
545.431709E-3
545.384216E-3
545.336723E-3
545.527267E-3
545.599365E-3
545.692062E-3
545.685196E-3
545.282936E-3
544.808578E-3
544.389725E-3
543.545723E-3
542.967796E-3
542.699432E-3
542.769241E-3
542.812157E-3
542.986679E-3
543.278503E-3
543.451881E-3
543.512535E-3
543.633842E-3
543.568039E-3
543.444443E-3
543.125153E-3
542.760086E-3
542.354393E-3
541.914368E-3
541.460609E-3
540.875244E-3
540.412903E-3
539.878464E-3
539.335442E-3
539.056206E-3
538.714027E-3
538.533783E-3
538.350105E-3
538.110924E-3
537.847137E-3
537.641716E-3
537.521553E-3
537.411118E-3
537.254906E-3
537.190819E-3
537.001991E-3
537.027168E-3
536.859512E-3
536.767387E-3
536.720467E-3
536.557961E-3
536.474419E-3
536.281013E-3
536.119652E-3
536.018944E-3
535.669899E-3
535.726547E-3
535.661316E-3
535.511398E-3
535.422134E-3
535.140610E-3
535.058212E-3
534.832764E-3
534.607887E-3
534.560966E-3
534.348106E-3
534.251404E-3
534.169579E-3
534.051132E-3
533.934975E-3
533.740425E-3
533.652878E-3
533.481789E-3
533.123016E-3
533.110428E-3
532.867813E-3
532.629204E-3
532.351112E-3
531.960869E-3
531.776047E-3
531.405830E-3
531.409264E-3
531.493378E-3
531.944847E-3
533.064651E-3
535.107994E-3
538.109207E-3
541.484642E-3
545.020866E-3
548.433495E-3
551.168633E-3
553.158188E-3
554.345512E-3
554.626465E-3
554.269409E-3
553.215408E-3
551.902771E-3
550.447083E-3
549.008560E-3
547.893906E-3
546.707726E-3
546.126938E-3
545.750999E-3
545.561028E-3
545.543861E-3
545.579910E-3
545.744133E-3
545.887756E-3
545.908928E-3
545.804214E-3
545.274353E-3
544.721031E-3
544.062996E-3
543.422127E-3
543.176651E-3
542.994118E-3
542.885971E-3
543.229866E-3
543.415260E-3
543.710518E-3
544.003487E-3
544.042969E-3
544.033813E-3
543.869591E-3
543.703079E-3
543.193817E-3
542.935181E-3
542.544365E-3
542.027664E-3
541.737556E-3
541.161919E-3
540.626335E-3
540.210342E-3
539.736557E-3
539.442444E-3
539.101982E-3
538.951492E-3
538.802719E-3
538.634491E-3
538.494873E-3
538.245964E-3
538.251686E-3
538.054848E-3
537.989044E-3
537.855721E-3
537.801361E-3
537.790489E-3
537.673187E-3
537.584496E-3
537.605095E-3
537.481499E-3
537.327003E-3
537.345314E-3
537.152481E-3
537.095261E-3
536.906433E-3
536.800575E-3
536.686707E-3
536.506462E-3
536.419487E-3
536.238098E-3
536.298752E-3
535.997200E-3
535.883331E-3
535.721970E-3
535.511398E-3
535.418129E-3
535.270500E-3
535.022163E-3
534.983826E-3
534.812737E-3
534.705162E-3
534.581566E-3
534.373856E-3
534.218216E-3
533.878326E-3
533.662605E-3
533.330154E-3
533.138466E-3
532.854080E-3
532.757378E-3
532.791138E-3
532.771683E-3
532.951927E-3
