Notes :


2023-10-26 ¿ÀÈÄ 10:37:32
Volts
Ch : LED 2,
377.152634E-3
376.852798E-3
377.990913E-3
377.890205E-3
379.558754E-3
379.733849E-3
379.500961E-3
380.469131E-3
380.106354E-3
381.676483E-3
381.349754E-3
380.913162E-3
380.965805E-3
380.902863E-3
382.440376E-3
382.295609E-3
381.938553E-3
382.731056E-3
382.155418E-3
383.299828E-3
383.088112E-3
382.609749E-3
383.392525E-3
382.896423E-3
384.230804E-3
383.830833E-3
383.333588E-3
384.234810E-3
383.428001E-3
384.690857E-3
384.526062E-3
384.062004E-3
384.810448E-3
384.201050E-3
385.444450E-3
385.248756E-3
384.727478E-3
385.815239E-3
385.294533E-3
386.375427E-3
386.059570E-3
385.497093E-3
386.489296E-3
385.969734E-3
387.009430E-3
386.629486E-3
385.957146E-3
386.936760E-3
386.495018E-3
387.744141E-3
387.491798E-3
385.979462E-3
387.643433E-3
387.333298E-3
388.750076E-3
388.866806E-3
388.233376E-3
389.342308E-3
388.746071E-3
389.859009E-3
389.580345E-3
388.321495E-3
388.228226E-3
385.304260E-3
383.533859E-3
379.854012E-3
375.378799E-3
372.622490E-3
368.685150E-3
367.428017E-3
366.144562E-3
364.297485E-3
365.750313E-3
366.175461E-3
368.530655E-3
369.609833E-3
369.941711E-3
372.026825E-3
371.945572E-3
373.091125E-3
373.211861E-3
371.864891E-3
373.095703E-3
371.755600E-3
372.167587E-3
371.730423E-3
370.735931E-3
372.209358E-3
371.667480E-3
373.242187E-3
374.075317E-3
373.368073E-3
376.118660E-3
375.596237E-3
376.512909E-3
376.496887E-3
375.335884E-3
376.431656E-3
375.155067E-3
375.575638E-3
375.389099E-3
374.502754E-3
376.229095E-3
375.217438E-3
376.246834E-3
376.506042E-3
376.139259E-3
378.391457E-3
377.760887E-3
378.794289E-3
379.198265E-3
378.676987E-3
380.672264E-3
379.793358E-3
380.390167E-3
380.685997E-3
380.278015E-3
381.936264E-3
380.924034E-3
381.451607E-3
381.706238E-3
380.559540E-3
382.676697E-3
381.665039E-3
382.209206E-3
382.074165E-3
381.567192E-3
383.298111E-3
382.324219E-3
382.795143E-3
382.891846E-3
382.511902E-3
384.096336E-3
382.664108E-3
383.215714E-3
383.709526E-3
383.024025E-3
384.574699E-3
383.415413E-3
383.929825E-3
384.381866E-3
383.077240E-3
385.144615E-3
384.173584E-3
384.958076E-3
385.172081E-3
384.640503E-3
386.140251E-3
385.010719E-3
385.482788E-3
385.696793E-3
385.282516E-3
386.783409E-3
385.568047E-3
386.239815E-3
386.622620E-3
386.245537E-3
387.933540E-3
386.941338E-3
387.538147E-3
387.894630E-3
387.573051E-3
389.072227E-3
387.659454E-3
387.801361E-3
387.351608E-3
385.537148E-3
384.637642E-3
380.350113E-3
377.574348E-3
374.006081E-3
370.273018E-3
369.089127E-3
366.266441E-3
366.078186E-3
366.598320E-3
366.693878E-3
369.017029E-3
368.869400E-3
370.703888E-3
371.997643E-3
372.364998E-3
374.307060E-3
373.640442E-3
374.038124E-3
373.843002E-3
373.221588E-3
374.107933E-3
372.671127E-3
372.951508E-3
373.425865E-3
372.312355E-3
375.175667E-3
375.036049E-3
376.017952E-3
376.603889E-3
376.174736E-3
377.154922E-3
375.703239E-3
375.580215E-3
375.330162E-3
374.286461E-3
375.238037E-3
374.073029E-3
374.925041E-3
375.266647E-3
375.074387E-3
377.047348E-3
376.419640E-3
377.089119E-3
377.999496E-3
377.775192E-3
379.568481E-3
378.772545E-3
379.166222E-3
379.804802E-3
379.256058E-3
381.077385E-3
380.196190E-3
380.723190E-3
381.046486E-3
380.675697E-3
381.963158E-3
380.996704E-3
381.422997E-3
381.737709E-3
381.167221E-3
382.400894E-3
381.583786E-3
381.690788E-3
382.095909E-3
380.454254E-3
382.677269E-3
381.897354E-3
382.228661E-3
382.682991E-3
382.046127E-3
383.417130E-3
382.614899E-3
382.977676E-3
383.465767E-3
382.752228E-3
384.301758E-3
383.426285E-3
383.604240E-3
384.081459E-3
383.560181E-3
384.847641E-3
384.044266E-3
384.328651E-3
384.926033E-3
384.300613E-3
385.817528E-3
385.054207E-3
385.487366E-3
385.981750E-3
385.330009E-3
386.937332E-3
386.386299E-3
386.653519E-3
386.834908E-3
385.899925E-3
387.480354E-3
386.176300E-3
384.996414E-3
383.072090E-3
378.638077E-3
376.984406E-3
372.721481E-3
369.523430E-3
367.056656E-3
363.829994E-3
364.415359E-3
363.646889E-3
364.021111E-3
365.550041E-3
365.441895E-3
368.244553E-3
368.544960E-3
369.461632E-3
370.391464E-3
369.486237E-3
371.022606E-3
370.262146E-3
370.078468E-3
370.214081E-3
368.514061E-3
369.780922E-3
369.308281E-3
369.687653E-3
370.851517E-3
370.426941E-3
372.917747E-3
373.136902E-3
373.576355E-3
374.073029E-3
372.926903E-3
374.045563E-3
373.205566E-3
372.972107E-3
373.016167E-3
371.759605E-3
373.092270E-3
372.743225E-3
372.929192E-3
373.572922E-3
372.937775E-3
374.984550E-3
374.938202E-3
375.258064E-3
376.408195E-3
375.577354E-3
377.509689E-3
377.312851E-3
377.549744E-3
377.999496E-3
377.256203E-3
378.925323E-3
378.382874E-3
378.403473E-3
379.050636E-3
378.149414E-3
379.896927E-3
379.411125E-3
378.991699E-3
379.804802E-3
378.721046E-3
380.318069E-3
380.114937E-3
379.503250E-3
380.298042E-3
379.188538E-3
381.241035E-3
380.583572E-3
380.270004E-3
380.990982E-3
380.061150E-3
381.752014E-3
381.332588E-3
380.855370E-3
381.449318E-3
381.066513E-3
382.828331E-3
382.296181E-3
381.731415E-3
382.451248E-3
381.873894E-3
383.283234E-3
382.942200E-3
382.515335E-3
383.111572E-3
382.682419E-3
384.140968E-3
383.914948E-3
383.387947E-3
384.291458E-3
383.833694E-3
385.470200E-3
385.079384E-3
384.792137E-3
385.644722E-3
385.205269E-3
386.590576E-3
385.915375E-3
384.561539E-3
383.960152E-3
380.942917E-3
379.046631E-3
374.905586E-3
369.855881E-3
367.323303E-3
363.948441E-3
363.268661E-3
361.945724E-3
361.441040E-3
362.520218E-3
362.973976E-3
365.270805E-3
365.903091E-3
366.425514E-3
367.908096E-3
367.651749E-3
369.105721E-3
368.651390E-3
367.708397E-3
368.124962E-3
367.040634E-3
367.950439E-3
367.291832E-3
366.701889E-3
367.539597E-3
367.529869E-3
369.504547E-3
370.167160E-3
369.695663E-3
371.617699E-3
371.443176E-3
372.465706E-3
371.968460E-3
371.169662E-3
371.733856E-3
370.730782E-3
371.432304E-3
371.270370E-3
370.966530E-3
371.836853E-3
371.385384E-3
372.968102E-3
373.322868E-3
372.258568E-3
374.015236E-3
373.867607E-3
375.515556E-3
375.831985E-3
375.431442E-3
376.391029E-3
375.960159E-3
377.219009E-3
377.209854E-3
376.637650E-3
377.507973E-3
377.122879E-3
378.248978E-3
378.302193E-3
377.501106E-3
378.540802E-3
377.937126E-3
378.913879E-3
378.811455E-3
378.093338E-3
378.937340E-3
378.365707E-3
379.441452E-3
379.386520E-3
378.681564E-3
379.565620E-3
378.989983E-3
380.212212E-3
380.082893E-3
378.618622E-3
380.216217E-3
379.708672E-3
380.802727E-3
381.025314E-3
380.316925E-3
381.621552E-3
380.788994E-3
381.496811E-3
381.631851E-3
379.898643E-3
381.834984E-3
381.297684E-3
382.353973E-3
382.410049E-3
381.790352E-3
383.833122E-3
382.890129E-3
383.667183E-3
383.862305E-3
383.110428E-3
384.975243E-3
384.034538E-3
384.783554E-3
384.718895E-3
384.033966E-3
385.580063E-3
384.298325E-3
383.993912E-3
382.012939E-3
378.648949E-3
376.848793E-3
372.195625E-3
369.243050E-3
366.043854E-3
361.858177E-3
362.886429E-3
361.763191E-3
362.731361E-3
363.867187E-3
364.374161E-3
367.189980E-3
367.010307E-3
368.431664E-3
369.437599E-3
369.140053E-3
370.755959E-3
369.379234E-3
369.633293E-3
369.172668E-3
368.243408E-3
369.721985E-3
368.390465E-3
369.281960E-3
370.148849E-3
370.412064E-3
372.846794E-3
372.283745E-3
373.051071E-3
372.982979E-3
372.146416E-3
373.068237E-3
371.234894E-3
371.178818E-3
371.083260E-3
369.854736E-3
371.820259E-3
370.702171E-3
371.708107E-3
372.396469E-3
372.315788E-3
374.280167E-3
373.469353E-3
374.250984E-3
374.817467E-3
374.768257E-3
376.373863E-3
375.338173E-3
376.138687E-3
376.382446E-3
376.100349E-3
377.582359E-3
376.218224E-3
376.855087E-3
377.184677E-3
376.800728E-3
378.141975E-3
377.050781E-3
377.307701E-3
377.479935E-3
376.992416E-3
378.416634E-3
377.376366E-3
377.762604E-3
378.218079E-3
376.793861E-3
378.848648E-3
378.164864E-3
378.515625E-3
378.870964E-3
378.540802E-3
380.109215E-3
378.897285E-3
379.440308E-3
379.807091E-3
379.148483E-3
380.684853E-3
379.653168E-3
380.103493E-3
380.239105E-3
380.011368E-3
381.461906E-3
380.402184E-3
380.997276E-3
381.519699E-3
381.131744E-3
382.472992E-3
381.482506E-3
382.060432E-3
382.739067E-3
382.486725E-3
383.902359E-3
382.985115E-3
383.563042E-3
383.996201E-3
383.203125E-3
384.425354E-3
382.674980E-3
381.305695E-3
379.218292E-3
375.402260E-3
373.141479E-3
368.238831E-3
364.884567E-3
362.246704E-3
360.059738E-3
360.664558E-3
359.494972E-3
360.609627E-3
361.544609E-3
360.999298E-3
364.447975E-3
364.711189E-3
365.646744E-3
366.238976E-3
365.766907E-3
367.193413E-3
365.940285E-3
365.394974E-3
365.347481E-3
364.454842E-3
365.435028E-3
364.509201E-3
365.124321E-3
366.268730E-3
366.564560E-3
369.152069E-3
369.192696E-3
370.097923E-3
370.682144E-3
369.987488E-3
371.110153E-3
369.871330E-3
369.553757E-3
369.610405E-3
368.822479E-3
370.203209E-3
369.307137E-3
369.593239E-3
370.525360E-3
370.308495E-3
372.091484E-3
371.801949E-3
372.593307E-3
373.425865E-3
373.063660E-3
374.763680E-3
374.235535E-3
374.852943E-3
375.284958E-3
374.723053E-3
376.222229E-3
375.769615E-3
376.064301E-3
376.520348E-3
375.354767E-3
377.029610E-3
376.691437E-3
376.852226E-3
377.177811E-3
376.171875E-3
377.989769E-3
377.367210E-3
377.565765E-3
378.013802E-3
376.908302E-3
378.560257E-3
377.985191E-3
378.059006E-3
378.729057E-3
377.545166E-3
379.304695E-3
378.934479E-3
379.035187E-3
379.850578E-3
378.953362E-3
380.557823E-3
380.146408E-3
380.298042E-3
381.057358E-3
379.939270E-3
381.516838E-3
381.032753E-3
381.002998E-3
381.484795E-3
380.563545E-3
381.962013E-3
381.570053E-3
381.923103E-3
382.440948E-3
381.531143E-3
383.311844E-3
383.125877E-3
383.018303E-3
383.613396E-3
382.514191E-3
384.439087E-3
383.908653E-3
383.942986E-3
384.533501E-3
383.386803E-3
384.099197E-3
382.062721E-3
379.442024E-3
376.417351E-3
371.448898E-3
369.152641E-3
365.158081E-3
362.194633E-3
360.833931E-3
358.897591E-3
360.587883E-3
360.740662E-3
361.489677E-3
363.258362E-3
363.189697E-3
365.705109E-3
365.917397E-3
365.965462E-3
366.751099E-3
365.441322E-3
366.881561E-3
365.976334E-3
365.005875E-3
365.042496E-3
363.736153E-3
365.472221E-3
365.467644E-3
365.706825E-3
367.236328E-3
367.361069E-3
370.129967E-3
370.269012E-3
369.963455E-3
370.509911E-3
369.511986E-3
370.723343E-3
369.946861E-3
369.343758E-3
369.558907E-3
368.835640E-3
370.567131E-3
370.224953E-3
370.133972E-3
371.258926E-3
370.988846E-3
372.983551E-3
372.752953E-3
372.874832E-3
373.786354E-3
373.444748E-3
374.935341E-3
374.822044E-3
374.572563E-3
375.337601E-3
374.886703E-3
376.302338E-3
376.121521E-3
375.695229E-3
376.656532E-3
376.039696E-3
377.322006E-3
377.163506E-3
376.571274E-3
377.402687E-3
376.791000E-3
378.041267E-3
377.847290E-3
377.404976E-3
378.025818E-3
377.414703E-3
378.700447E-3
378.503609E-3
378.101921E-3
378.387451E-3
378.191757E-3
379.660034E-3
379.189682E-3
379.004860E-3
379.746437E-3
379.244041E-3
380.837631E-3
380.492592E-3
379.382515E-3
380.177307E-3
380.027390E-3
381.501961E-3
381.345749E-3
380.671120E-3
381.414413E-3
380.857086E-3
382.165146E-3
381.932831E-3
381.615829E-3
382.717323E-3
382.194901E-3
383.482361E-3
383.329582E-3
383.014297E-3
383.882332E-3
383.338737E-3
384.614754E-3
384.294319E-3
383.689499E-3
384.127235E-3
382.700157E-3
382.266426E-3
379.537582E-3
375.711250E-3
372.748375E-3
368.115807E-3
366.030121E-3
363.304138E-3
360.982132E-3
361.388969E-3
360.856247E-3
362.711334E-3
363.527298E-3
364.117813E-3
366.168022E-3
366.512489E-3
368.004227E-3
368.231392E-3
367.466927E-3
367.901802E-3
366.709900E-3
367.286110E-3
366.783714E-3
365.661049E-3
366.624641E-3
366.258430E-3
368.032837E-3
369.116592E-3
369.174957E-3
370.610619E-3
370.522499E-3
371.493530E-3
371.269226E-3
370.121956E-3
370.594597E-3
369.267082E-3
369.935417E-3
369.602394E-3
368.898010E-3
370.454407E-3
369.997215E-3
371.187401E-3
371.579361E-3
371.506691E-3
373.203278E-3
373.061943E-3
374.095917E-3
374.489021E-3
373.534012E-3
375.803947E-3
375.170517E-3
376.277161E-3
376.321793E-3
375.719833E-3
377.472496E-3
376.530075E-3
377.338028E-3
377.420998E-3
376.671410E-3
378.227806E-3
377.424431E-3
377.956009E-3
377.849007E-3
376.643944E-3
378.686714E-3
377.909660E-3
378.592873E-3
378.579712E-3
378.022957E-3
379.450607E-3
378.592300E-3
379.286385E-3
379.356766E-3
378.556824E-3
380.347824E-3
379.409409E-3
380.171013E-3
380.311775E-3
379.815102E-3
381.504822E-3
380.533791E-3
381.287384E-3
381.477928E-3
380.858803E-3
382.502747E-3
381.429863E-3
381.893921E-3
382.044983E-3
381.572342E-3
383.154488E-3
382.011795E-3
382.646370E-3
382.943344E-3
382.504463E-3
384.285164E-3
383.161926E-3
383.856583E-3
384.263992E-3
384.006500E-3
385.669327E-3
384.625053E-3
384.938622E-3
385.086823E-3
383.532143E-3
383.524132E-3
379.683495E-3
376.827621E-3
373.020172E-3
367.005730E-3
365.527725E-3
361.522865E-3
360.063744E-3
359.268379E-3
358.716202E-3
360.835075E-3
360.703468E-3
362.376595E-3
363.957596E-3
364.649391E-3
366.963387E-3
366.100502E-3
366.668701E-3
366.920471E-3
366.065598E-3
366.974831E-3
365.210152E-3
365.185547E-3
365.152931E-3
364.652252E-3
366.249275E-3
365.719986E-3
367.206573E-3
368.452835E-3
368.978119E-3
371.242332E-3
370.473289E-3
370.850372E-3
371.132469E-3
370.145988E-3
371.059227E-3
369.590378E-3
369.897079E-3
370.141983E-3
369.526291E-3
371.113586E-3
370.264435E-3
370.978546E-3
371.941566E-3
371.800232E-3
373.713112E-3
372.961235E-3
373.827553E-3
374.501610E-3
374.443817E-3
376.084328E-3
375.101852E-3
375.765038E-3
376.228523E-3
374.518204E-3
376.881409E-3
376.273155E-3
376.883125E-3
377.273941E-3
376.812172E-3
378.280449E-3
377.083397E-3
377.689362E-3
378.075027E-3
377.721977E-3
379.143906E-3
378.178596E-3
378.701591E-3
378.846931E-3
378.275299E-3
379.723549E-3
378.652954E-3
378.993416E-3
379.703522E-3
379.268646E-3
380.772400E-3
379.909515E-3
380.387878E-3
380.700874E-3
380.278015E-3
381.935692E-3
381.338310E-3
381.600952E-3
381.773186E-3
381.414986E-3
382.876396E-3
381.925392E-3
382.440376E-3
382.521629E-3
382.087326E-3
383.423996E-3
382.584572E-3
382.940483E-3
383.303261E-3
381.659889E-3
384.083176E-3
383.670616E-3
384.229088E-3
384.746933E-3
384.448814E-3
385.683632E-3
384.733772E-3
385.040474E-3
385.215569E-3
384.057426E-3
384.340096E-3
381.133461E-3
377.969170E-3
374.613190E-3
369.731712E-3
367.090988E-3
362.836647E-3
360.807037E-3
360.125542E-3
359.066963E-3
360.615921E-3
360.924911E-3
362.439537E-3
364.152718E-3
364.707756E-3
366.875839E-3
366.659546E-3
366.982269E-3
367.529297E-3
366.562271E-3
367.584801E-3
366.217804E-3
365.963173E-3
366.006088E-3
365.065384E-3
366.707039E-3
366.226387E-3
367.313576E-3
368.666840E-3
367.635727E-3
370.776558E-3
370.674133E-3
371.448898E-3
371.515846E-3
370.196342E-3
371.298981E-3
370.488167E-3
370.261002E-3
370.603180E-3
369.204140E-3
371.338463E-3
