Notes :


2023-10-25 ¿ÀÈÄ 9:42:02
Volts
Ch : LED 2,
324.084091E-3
323.949051E-3
324.488068E-3
324.135590E-3
324.134445E-3
324.042892E-3
323.466682E-3
323.805428E-3
323.253822E-3
322.902489E-3
322.821236E-3
322.211266E-3
322.630119E-3
322.122002E-3
321.955490E-3
321.974373E-3
321.394730E-3
321.759224E-3
321.619034E-3
321.635628E-3
321.586418E-3
320.908928E-3
321.556091E-3
321.290588E-3
321.318626E-3
321.565247E-3
321.249390E-3
321.677971E-3
321.431351E-3
321.403313E-3
321.530342E-3
321.279716E-3
321.578979E-3
321.325493E-3
321.200752E-3
321.380424E-3
321.005630E-3
321.465111E-3
321.042252E-3
321.064568E-3
321.152687E-3
320.637703E-3
321.098900E-3
320.766449E-3
320.660591E-3
320.674324E-3
320.377350E-3
320.831680E-3
320.612526E-3
320.455742E-3
320.567322E-3
320.283508E-3
320.629692E-3
320.257187E-3
320.115280E-3
320.137596E-3
319.780540E-3
320.201683E-3
319.714165E-3
319.655800E-3
319.809151E-3
319.592285E-3
320.234871E-3
320.562744E-3
321.423912E-3
323.108482E-3
324.333000E-3
326.277351E-3
327.472687E-3
328.598785E-3
329.627037E-3
329.375839E-3
330.160904E-3
329.581261E-3
328.807640E-3
328.358459E-3
327.415466E-3
327.212906E-3
326.287079E-3
325.665092E-3
325.598717E-3
325.168991E-3
325.550652E-3
325.305748E-3
325.236511E-3
325.539207E-3
325.364685E-3
325.733185E-3
325.320625E-3
324.917221E-3
324.877167E-3
324.349022E-3
324.684334E-3
324.199104E-3
324.203110E-3
324.534416E-3
324.539566E-3
325.009918E-3
324.739265E-3
324.885750E-3
325.042534E-3
324.790764E-3
325.073433E-3
324.592209E-3
324.197960E-3
324.202538E-3
323.659515E-3
323.779106E-3
323.287010E-3
323.024368E-3
323.148537E-3
322.281075E-3
322.773170E-3
322.467613E-3
322.383499E-3
322.553444E-3
322.170067E-3
322.577477E-3
322.304535E-3
322.234154E-3
322.339439E-3
322.287941E-3
322.654152E-3
322.286797E-3
322.289085E-3
322.499084E-3
322.374916E-3
322.662735E-3
322.293091E-3
322.202110E-3
322.449303E-3
322.373199E-3
322.475624E-3
322.275925E-3
322.045326E-3
322.157478E-3
321.920013E-3
322.101402E-3
321.809578E-3
321.487999E-3
321.584129E-3
321.475410E-3
321.604729E-3
321.326065E-3
321.216202E-3
321.487999E-3
320.789337E-3
321.328926E-3
321.241379E-3
320.948410E-3
320.990181E-3
320.765877E-3
320.910072E-3
320.542145E-3
320.579338E-3
320.729828E-3
320.353317E-3
320.574188E-3
320.362473E-3
320.268631E-3
320.603943E-3
320.914650E-3
322.002983E-3
322.964859E-3
324.210548E-3
325.802994E-3
326.914787E-3
328.591347E-3
329.382133E-3
329.748344E-3
329.993820E-3
329.601288E-3
329.287148E-3
328.353882E-3
327.334785E-3
326.620102E-3
325.828743E-3
325.687408E-3
325.085449E-3
324.785042E-3
324.904633E-3
324.735832E-3
325.018501E-3
324.904060E-3
324.806786E-3
324.951553E-3
324.516678E-3
324.537277E-3
324.199677E-3
324.000549E-3
324.109840E-3
324.038887E-3
324.395370E-3
324.296379E-3
324.355316E-3
324.691772E-3
324.715805E-3
325.035095E-3
324.826241E-3
324.604225E-3
324.426270E-3
323.788834E-3
324.070930E-3
323.704720E-3
323.170280E-3
323.180008E-3
322.933388E-3
322.949982E-3
322.543144E-3
322.104263E-3
322.174644E-3
321.895409E-3
322.080803E-3
321.817017E-3
321.752357E-3
321.815872E-3
321.663094E-3
321.938324E-3
321.838760E-3
321.779251E-3
321.849632E-3
321.837044E-3
321.974945E-3
321.743202E-3
321.643066E-3
322.061348E-3
321.792984E-3
321.866798E-3
321.569252E-3
321.360970E-3
321.671104E-3
321.419334E-3
321.659660E-3
321.575546E-3
321.263123E-3
321.528625E-3
321.308899E-3
321.354103E-3
321.273422E-3
321.016502E-3
321.080589E-3
321.113777E-3
321.235657E-3
321.047401E-3
320.649719E-3
320.801353E-3
320.484924E-3
320.660591E-3
320.406532E-3
320.239449E-3
320.411110E-3
320.069504E-3
320.217705E-3
320.140457E-3
320.128441E-3
320.393944E-3
320.874596E-3
322.099686E-3
323.349953E-3
324.639130E-3
326.307678E-3
327.171135E-3
328.724670E-3
329.395866E-3
329.514313E-3
329.518890E-3
328.979874E-3
328.700638E-3
327.727318E-3
326.891327E-3
326.543427E-3
325.655937E-3
325.568390E-3
325.102615E-3
324.727821E-3
325.124359E-3
324.871445E-3
325.189590E-3
325.206184E-3
324.979019E-3
325.122070E-3
324.700928E-3
324.696922E-3
324.382210E-3
323.988533E-3
324.179649E-3
323.740768E-3
324.129295E-3
324.173355E-3
324.219704E-3
324.549294E-3
324.390793E-3
324.695778E-3
324.670601E-3
324.381638E-3
324.498940E-3
323.882675E-3
323.946762E-3
323.707581E-3
323.224640E-3
323.220634E-3
322.679901E-3
322.753143E-3
322.521400E-3
322.243881E-3
322.249603E-3
321.870804E-3
322.075081E-3
321.909714E-3
321.636200E-3
321.842766E-3
321.692848E-3
321.870232E-3
321.836472E-3
321.660233E-3
321.822739E-3
321.338081E-3
321.732903E-3
321.681404E-3
321.710014E-3
321.782684E-3
321.593857E-3
321.776962E-3
321.768951E-3
321.605873E-3
321.772385E-3
321.421051E-3
321.603584E-3
321.557236E-3
321.388435E-3
321.554375E-3
321.169281E-3
321.402168E-3
321.322060E-3
321.084023E-3
321.194458E-3
320.772743E-3
321.062851E-3
321.047401E-3
320.714378E-3
320.991325E-3
320.412827E-3
320.512390E-3
320.490646E-3
320.331573E-3
320.379066E-3
319.870377E-3
320.105553E-3
320.255470E-3
320.100975E-3
320.508385E-3
321.046829E-3
322.277069E-3
323.688126E-3
324.905205E-3
326.683617E-3
327.621460E-3
328.847122E-3
329.554939E-3
329.474258E-3
329.512596E-3
328.860283E-3
328.477478E-3
327.695274E-3
326.714516E-3
326.214981E-3
325.322342E-3
325.198746E-3
324.915504E-3
324.673462E-3
324.933815E-3
324.712944E-3
325.091743E-3
325.147820E-3
325.094604E-3
325.058556E-3
324.821663E-3
324.798775E-3
324.507523E-3
324.093819E-3
324.246597E-3
323.969650E-3
324.316978E-3
324.410820E-3
324.331856E-3
324.612236E-3
324.598503E-3
325.042534E-3
325.167847E-3
324.605942E-3
324.603653E-3
324.026299E-3
324.293518E-3
324.003410E-3
323.400879E-3
323.415184E-3
322.917938E-3
323.032951E-3
322.829247E-3
322.418404E-3
322.507095E-3
322.070503E-3
322.301102E-3
322.259903E-3
321.946335E-3
322.085381E-3
321.758080E-3
321.984673E-3
322.074509E-3
321.748924E-3
321.997833E-3
321.616173E-3
321.985245E-3
322.056770E-3
321.728897E-3
321.879387E-3
321.574974E-3
321.885109E-3
321.877670E-3
321.588707E-3
321.812439E-3
321.429634E-3
321.716881E-3
321.622467E-3
321.313477E-3
321.443367E-3
321.212196E-3
321.508598E-3
321.429062E-3
321.066856E-3
321.242523E-3
320.856857E-3
321.126366E-3
320.944405E-3
320.616531E-3
320.758438E-3
320.412254E-3
320.563889E-3
320.465469E-3
320.159912E-3
320.205688E-3
319.780540E-3
320.113564E-3
320.149040E-3
319.963646E-3
320.542145E-3
321.299171E-3
322.618675E-3
324.001122E-3
325.197601E-3
326.811790E-3
327.697563E-3
328.812790E-3
329.097176E-3
328.586769E-3
328.387070E-3
327.612305E-3
327.138519E-3
326.459312E-3
325.312614E-3
324.729538E-3
324.133301E-3
324.040031E-3
323.815155E-3
323.548508E-3
323.705864E-3
323.533058E-3
323.852921E-3
323.944473E-3
323.481560E-3
323.368263E-3
323.036385E-3
323.018074E-3
323.027802E-3
322.848701E-3
323.063278E-3
322.977448E-3
323.448944E-3
323.700714E-3
323.536491E-3
323.853493E-3
323.771095E-3
323.969650E-3
323.840332E-3
323.337364E-3
323.302460E-3
322.854996E-3
322.731400E-3
322.624397E-3
322.142601E-3
322.123146E-3
321.700287E-3
321.773529E-3
321.792412E-3
321.275711E-3
321.287155E-3
320.982742E-3
321.118927E-3
321.249962E-3
321.020508E-3
321.041107E-3
320.837402E-3
321.015358E-3
321.110344E-3
320.918083E-3
321.156693E-3
321.052551E-3
321.062279E-3
321.212196E-3
320.690346E-3
321.066284E-3
320.883179E-3
321.126938E-3
321.100044E-3
320.761299E-3
321.007919E-3
320.828247E-3
320.969009E-3
320.960999E-3
320.590782E-3
320.591927E-3
320.585632E-3
320.595360E-3
320.570183E-3
320.232582E-3
320.249748E-3
320.056343E-3
320.320702E-3
320.357323E-3
319.886971E-3
319.758797E-3
319.730759E-3
319.623184E-3
319.664383E-3
319.445801E-3
319.600296E-3
319.577408E-3
320.269775E-3
321.241379E-3
322.336006E-3
323.979378E-3
325.361252E-3
326.840973E-3
328.040314E-3
328.531265E-3
328.919792E-3
328.569031E-3
328.412819E-3
327.830887E-3
326.824379E-3
326.423836E-3
325.528336E-3
325.164986E-3
324.960709E-3
324.232864E-3
324.349022E-3
324.164200E-3
324.342728E-3
324.458313E-3
324.259758E-3
324.535561E-3
324.524689E-3
324.482918E-3
324.250031E-3
323.563957E-3
323.652649E-3
323.527336E-3
323.530197E-3
323.822021E-3
323.538780E-3
323.983383E-3
323.794556E-3
324.076653E-3
324.358177E-3
324.041748E-3
324.220276E-3
323.850632E-3
323.751640E-3
323.614311E-3
323.069000E-3
323.196030E-3
322.661018E-3
322.617531E-3
322.481346E-3
321.988678E-3
322.067642E-3
321.732903E-3
321.815872E-3
321.751785E-3
321.303177E-3
321.556664E-3
321.447945E-3
321.501732E-3
321.529198E-3
321.246529E-3
321.457672E-3
321.290588E-3
321.292877E-3
321.311188E-3
321.261978E-3
321.308899E-3
321.059418E-3
321.194458E-3
321.350098E-3
321.007919E-3
321.169281E-3
321.029663E-3
321.037674E-3
321.240234E-3
320.807076E-3
321.113205E-3
320.821381E-3
320.890617E-3
320.962715E-3
320.734406E-3
320.983887E-3
320.605659E-3
320.612526E-3
320.697212E-3
320.333290E-3
320.696640E-3
320.299530E-3
320.190811E-3
320.266914E-3
319.838905E-3
320.225716E-3
319.948196E-3
319.904137E-3
320.167923E-3
320.163918E-3
321.221924E-3
321.940041E-3
323.155975E-3
324.601936E-3
325.716019E-3
327.552795E-3
328.256607E-3
328.857994E-3
328.877449E-3
328.353310E-3
328.446579E-3
327.596283E-3
326.807785E-3
326.178932E-3
325.257683E-3
325.289154E-3
324.674606E-3
324.476624E-3
324.460030E-3
324.143028E-3
324.820518E-3
324.593353E-3
324.487495E-3
324.656868E-3
324.205971E-3
324.608803E-3
324.027443E-3
323.815727E-3
323.715019E-3
323.212624E-3
323.773384E-3
323.764229E-3
323.950195E-3
324.244308E-3
323.966789E-3
324.561310E-3
324.394798E-3
324.174500E-3
324.206543E-3
323.703575E-3
323.894119E-3
323.609734E-3
323.226357E-3
323.010635E-3
322.204971E-3
322.484779E-3
322.190094E-3
322.004128E-3
322.151756E-3
321.622467E-3
321.995544E-3
321.692848E-3
321.519470E-3
321.810150E-3
321.154976E-3
321.708298E-3
321.612167E-3
321.573830E-3
321.738625E-3
321.332932E-3
321.822166E-3
321.520615E-3
321.466827E-3
321.656799E-3
321.206474E-3
321.665382E-3
321.552658E-3
321.447372E-3
321.554947E-3
321.240807E-3
321.510315E-3
321.188164E-3
321.023941E-3
321.359253E-3
320.987320E-3
321.340370E-3
320.870590E-3
320.821381E-3
320.932961E-3
320.587349E-3
320.979309E-3
320.519257E-3
320.365906E-3
320.422554E-3
320.387650E-3
320.514107E-3
319.968224E-3
319.810867E-3
319.920158E-3
319.449806E-3
320.088959E-3
320.132446E-3
320.494652E-3
321.808434E-3
322.768021E-3
324.670601E-3
325.693130E-3
326.824951E-3
327.869797E-3
328.154182E-3
328.612518E-3
328.150749E-3
327.464104E-3
326.975441E-3
325.563812E-3
325.597572E-3
324.746704E-3
324.189377E-3
323.981094E-3
323.549080E-3
323.716736E-3
323.472404E-3
323.399162E-3
323.649216E-3
323.159409E-3
323.569679E-3
323.177147E-3
323.055840E-3
323.062706E-3
322.747421E-3
323.016357E-3
322.747993E-3
322.723389E-3
323.028946E-3
322.836685E-3
323.470688E-3
323.522186E-3
323.570251E-3
323.828888E-3
323.079300E-3
323.571968E-3
323.038673E-3
322.706223E-3
322.718239E-3
322.199249E-3
322.258186E-3
321.653938E-3
321.611023E-3
321.613312E-3
321.256256E-3
321.478271E-3
321.065712E-3
321.011925E-3
320.950699E-3
320.834541E-3
321.054268E-3
320.930672E-3
320.636559E-3
320.927238E-3
321.046829E-3
321.106339E-3
320.827103E-3
320.661736E-3
320.834541E-3
320.830536E-3
320.982742E-3
320.816231E-3
320.641136E-3
320.746994E-3
320.759583E-3
320.920372E-3
320.590782E-3
320.470619E-3
320.465469E-3
320.474052E-3
320.705795E-3
320.511818E-3
320.316124E-3
320.290947E-3
320.080376E-3
320.268059E-3
319.828033E-3
319.594574E-3
319.614029E-3
319.449234E-3
319.600296E-3
319.453239E-3
319.239807E-3
319.410324E-3
319.135666E-3
319.449234E-3
319.695854E-3
320.318413E-3
321.350670E-3
322.873878E-3
324.418831E-3
325.579834E-3
326.625824E-3
327.452660E-3
327.648354E-3
328.105545E-3
327.740479E-3
327.086449E-3
326.574326E-3
325.713158E-3
325.296593E-3
324.502945E-3
323.938179E-3
323.866653E-3
323.484993E-3
323.644066E-3
323.583984E-3
323.545074E-3
323.752785E-3
323.644638E-3
323.801994E-3
323.573112E-3
323.233795E-3
323.149109E-3
322.575188E-3
322.745705E-3
322.507668E-3
322.353745E-3
322.620392E-3
322.737694E-3
323.151398E-3
323.060989E-3
323.098183E-3
323.217201E-3
322.698212E-3
322.953415E-3
322.627258E-3
322.452736E-3
322.370338E-3
321.958923E-3
321.934319E-3
321.727753E-3
321.420479E-3
321.292877E-3
321.069145E-3
321.222496E-3
320.822525E-3
320.678902E-3
320.737267E-3
320.587921E-3
320.712662E-3
320.521545E-3
320.433426E-3
320.649719E-3
320.251465E-3
320.647430E-3
320.617676E-3
320.439148E-3
320.641708E-3
320.059204E-3
320.587349E-3
320.592499E-3
320.411682E-3
320.513535E-3
320.261192E-3
320.577621E-3
320.436287E-3
320.286369E-3
320.308685E-3
320.023727E-3
320.320702E-3
320.260048E-3
320.042610E-3
320.063210E-3
319.945335E-3
320.146751E-3
319.953918E-3
319.737625E-3
319.683838E-3
319.185448E-3
319.556808E-3
319.541359E-3
319.100189E-3
319.295311E-3
319.026947E-3
319.347382E-3
319.444656E-3
319.705009E-3
320.718384E-3
321.431923E-3
322.984886E-3
324.371910E-3
325.511169E-3
326.659012E-3
327.062988E-3
327.734756E-3
327.718163E-3
327.220345E-3
326.867867E-3
325.922012E-3
325.516891E-3
324.853706E-3
324.247742E-3
324.137306E-3
323.292160E-3
323.530197E-3
323.608589E-3
323.355103E-3
323.662376E-3
323.282433E-3
323.708153E-3
323.567390E-3
323.356247E-3
323.260689E-3
322.764587E-3
322.658157E-3
322.572327E-3
322.455025E-3
322.686768E-3
322.497940E-3
322.953415E-3
323.102760E-3
323.121071E-3
323.312187E-3
323.081589E-3
323.228645E-3
323.047829E-3
322.693062E-3
322.693062E-3
322.184372E-3
322.198677E-3
322.062492E-3
321.566391E-3
321.585846E-3
321.020508E-3
321.171570E-3
321.132660E-3
320.740700E-3
320.963287E-3
320.541000E-3
320.681763E-3
320.773315E-3
320.619965E-3
320.873451E-3
320.431137E-3
320.694351E-3
320.824242E-3
320.626259E-3
320.823669E-3
320.576477E-3
320.836258E-3
320.938683E-3
320.638275E-3
320.723534E-3
320.425987E-3
320.706367E-3
320.608521E-3
320.474052E-3
320.512962E-3
320.289230E-3
320.370483E-3
320.439148E-3
320.204544E-3
320.234299E-3
319.885254E-3
320.098114E-3
319.948769E-3
319.718170E-3
319.734764E-3
319.451523E-3
319.493866E-3
319.344521E-3
319.007492E-3
319.041824E-3
318.497086E-3
318.766022E-3
318.792915E-3
318.553734E-3
318.924522E-3
318.974876E-3
320.054054E-3
321.099472E-3
322.002411E-3
323.649788E-3
324.699783E-3
325.996971E-3
326.831818E-3
326.811218E-3
326.984596E-3
326.448441E-3
325.969505E-3
325.278282E-3
324.357605E-3
323.847771E-3
322.951698E-3
322.944832E-3
322.631264E-3
322.222137E-3
322.229576E-3
322.131157E-3
322.545433E-3
322.674751E-3
322.302246E-3
322.318268E-3
321.865082E-3
321.901703E-3
321.680832E-3
321.203613E-3
321.308327E-3
