Notes :


2023-11-04 ¿ÀÈÄ 9:42:33
Volts
Ch : LED 2,
493.544197E-3
493.031502E-3
492.897606E-3
492.438698E-3
492.335129E-3
492.149162E-3
491.893959E-3
491.867065E-3
491.619873E-3
491.618156E-3
491.645622E-3
491.518593E-3
491.633606E-3
491.518593E-3
491.544342E-3
491.558075E-3
491.524315E-3
491.638184E-3
491.450500E-3
491.468239E-3
491.526031E-3
491.397858E-3
491.488838E-3
491.345787E-3
491.328049E-3
491.261101E-3
491.096306E-3
491.096878E-3
490.871429E-3
490.813065E-3
490.744972E-3
490.595055E-3
490.651703E-3
490.439987E-3
490.532112E-3
490.584183E-3
490.511513E-3
490.533257E-3
490.371895E-3
490.402222E-3
490.235710E-3
490.174484E-3
490.203667E-3
489.921570E-3
489.828300E-3
489.648628E-3
489.303017E-3
489.198303E-3
488.919067E-3
488.889313E-3
488.785172E-3
488.868713E-3
489.668083E-3
490.930367E-3
493.146515E-3
495.878220E-3
498.900032E-3
502.204514E-3
504.999161E-3
507.511139E-3
509.119606E-3
509.850311E-3
510.021973E-3
509.349632E-3
508.321381E-3
507.119751E-3
505.817986E-3
504.699326E-3
503.597260E-3
502.836800E-3
502.361870E-3
501.882935E-3
501.884079E-3
501.818275E-3
501.943016E-3
502.127838E-3
502.046013E-3
502.208519E-3
501.924706E-3
501.429749E-3
500.932503E-3
500.399780E-3
500.317383E-3
500.134277E-3
500.196648E-3
500.373459E-3
500.587463E-3
500.969124E-3
501.161957E-3
501.445770E-3
501.498413E-3
501.319313E-3
501.291275E-3
500.838089E-3
500.481033E-3
500.170898E-3
499.668503E-3
499.304008E-3
498.703766E-3
498.310661E-3
497.961044E-3
497.393417E-3
497.228050E-3
496.821785E-3
496.631813E-3
496.412659E-3
496.116829E-3
496.115112E-3
495.759201E-3
495.748901E-3
495.705414E-3
495.482254E-3
495.574951E-3
495.418167E-3
495.422173E-3
495.537186E-3
495.316315E-3
495.388985E-3
495.264244E-3
495.177841E-3
495.293427E-3
495.012474E-3
495.140076E-3
494.948387E-3
494.786453E-3
494.733810E-3
494.511795E-3
494.522095E-3
494.359589E-3
494.229698E-3
494.186783E-3
493.887520E-3
493.916130E-3
493.764496E-3
493.650627E-3
493.561363E-3
493.290710E-3
493.338776E-3
493.098450E-3
492.955971E-3
492.790604E-3
492.493629E-3
492.412376E-3
492.120552E-3
491.909409E-3
491.708565E-3
491.374397E-3
491.367531E-3
491.250801E-3
491.322327E-3
491.567802E-3
492.055321E-3
493.583107E-3
495.689392E-3
498.405075E-3
501.462936E-3
504.351997E-3
507.260513E-3
509.330750E-3
510.490036E-3
510.992432E-3
510.597610E-3
509.746170E-3
508.352852E-3
506.995583E-3
505.749893E-3
504.197502E-3
503.296280E-3
502.300072E-3
501.656342E-3
501.322746E-3
500.839233E-3
500.975418E-3
500.875282E-3
500.915909E-3
500.974274E-3
500.562286E-3
500.205231E-3
499.656487E-3
499.163246E-3
499.015045E-3
498.926926E-3
499.225616E-3
499.449921E-3
499.911118E-3
500.404930E-3
500.568008E-3
500.842667E-3
500.788879E-3
500.767708E-3
500.522232E-3
499.971771E-3
499.602699E-3
499.098015E-3
498.553276E-3
498.041153E-3
497.282982E-3
496.852684E-3
496.217537E-3
495.635033E-3
495.396423E-3
494.867134E-3
494.637680E-3
494.367027E-3
494.187927E-3
494.119835E-3
493.846893E-3
493.968201E-3
493.688965E-3
493.567085E-3
493.671227E-3
493.481255E-3
493.445778E-3
493.417740E-3
493.354225E-3
493.354797E-3
493.089294E-3
493.243217E-3
493.049812E-3
492.824364E-3
492.838669E-3
492.491341E-3
492.517662E-3
492.313385E-3
492.189789E-3
492.120552E-3
491.901970E-3
491.804695E-3
491.621017E-3
491.489983E-3
491.460228E-3
491.131783E-3
491.170120E-3
490.973854E-3
490.838242E-3
490.662003E-3
490.370178E-3
490.309525E-3
489.958763E-3
489.692688E-3
489.458084E-3
489.102173E-3
488.969421E-3
488.762856E-3
488.662148E-3
488.928223E-3
489.325333E-3
490.593910E-3
492.475891E-3
495.058250E-3
498.277473E-3
501.203156E-3
504.292488E-3
506.714630E-3
508.383751E-3
509.422302E-3
509.325600E-3
508.802032E-3
507.634163E-3
506.276894E-3
504.985428E-3
503.643608E-3
502.516365E-3
501.531601E-3
500.776291E-3
500.457573E-3
500.024986E-3
500.016403E-3
500.148010E-3
500.086784E-3
500.235558E-3
500.053596E-3
499.988937E-3
499.439049E-3
498.829651E-3
498.464012E-3
498.029709E-3
498.007965E-3
498.053169E-3
498.248291E-3
498.673439E-3
498.751259E-3
499.051666E-3
499.168396E-3
499.192429E-3
499.172974E-3
498.879433E-3
498.652267E-3
498.336411E-3
497.808838E-3
497.502708E-3
496.868706E-3
496.453857E-3
495.731163E-3
495.269966E-3
494.992447E-3
494.481468E-3
494.256020E-3
493.888092E-3
493.626022E-3
493.627167E-3
493.235207E-3
493.153954E-3
493.070412E-3
492.863846E-3
492.990875E-3
492.807770E-3
492.923927E-3
492.825508E-3
492.708778E-3
492.792320E-3
492.403793E-3
492.527390E-3
492.374039E-3
492.196655E-3
492.341423E-3
492.118835E-3
492.021561E-3
492.003250E-3
491.737747E-3
491.742325E-3
491.437912E-3
491.400719E-3
491.177559E-3
491.007042E-3
490.913773E-3
490.738106E-3
490.654564E-3
490.544128E-3
490.433121E-3
490.493202E-3
490.275192E-3
490.137863E-3
490.072060E-3
489.856911E-3
489.837456E-3
489.590263E-3
489.517021E-3
489.193726E-3
488.927650E-3
488.854980E-3
488.497353E-3
488.435555E-3
488.345718E-3
488.354874E-3
488.949966E-3
489.824295E-3
491.682816E-3
494.101524E-3
497.109032E-3
500.413513E-3
503.451920E-3
506.015968E-3
508.025551E-3
508.977699E-3
509.406853E-3
508.740234E-3
507.839584E-3
506.596184E-3
505.111313E-3
503.847885E-3
502.531242E-3
501.642036E-3
500.811195E-3
500.291061E-3
500.263023E-3
500.026703E-3
500.051308E-3
500.211525E-3
500.184631E-3
500.332260E-3
500.079918E-3
499.754333E-3
499.166679E-3
498.583031E-3
498.326111E-3
498.108101E-3
498.176193E-3
498.262024E-3
498.410797E-3
498.879433E-3
499.067116E-3
499.134064E-3
499.234200E-3
499.196434E-3
499.194145E-3
498.864555E-3
498.563576E-3
498.203659E-3
497.724724E-3
497.301292E-3
496.676445E-3
496.198082E-3
495.799255E-3
495.215034E-3
494.955826E-3
494.607925E-3
494.371605E-3
494.257736E-3
493.962479E-3
493.933868E-3
493.663216E-3
493.601990E-3
493.539619E-3
493.367386E-3
493.469810E-3
493.276405E-3
493.339348E-3
493.243790E-3
493.214607E-3
493.350220E-3
493.210030E-3
493.099022E-3
493.109322E-3
492.982864E-3
492.996025E-3
492.842102E-3
492.810631E-3
492.726517E-3
492.549706E-3
492.501640E-3
492.233849E-3
492.166901E-3
492.035294E-3
491.923714E-3
491.819572E-3
491.629601E-3
491.589546E-3
491.527176E-3
491.325760E-3
491.292000E-3
491.080856E-3
491.003609E-3
490.841675E-3
490.691757E-3
490.625381E-3
490.429687E-3
490.283203E-3
490.161324E-3
489.836884E-3
489.777946E-3
489.447784E-3
489.289284E-3
489.339066E-3
489.265251E-3
489.629173E-3
490.529823E-3
492.139435E-3
494.610786E-3
497.427750E-3
500.625801E-3
503.682518E-3
506.295204E-3
508.412361E-3
509.543610E-3
509.982491E-3
509.514999E-3
508.481598E-3
507.255363E-3
505.698967E-3
504.358864E-3
503.055382E-3
502.059174E-3
501.187134E-3
500.487900E-3
500.331116E-3
500.078773E-3
500.182915E-3
500.315666E-3
500.269890E-3
500.383186E-3
500.095367E-3
499.697113E-3
499.393272E-3
498.764992E-3
498.611641E-3
498.522949E-3
498.632812E-3
498.946953E-3
499.160385E-3
499.659348E-3
499.867630E-3
500.195503E-3
500.396919E-3
500.156021E-3
500.131416E-3
499.796677E-3
499.413300E-3
499.079132E-3
498.402214E-3
498.054314E-3
497.482109E-3
496.942520E-3
496.594620E-3
496.124268E-3
495.866776E-3
495.465660E-3
495.173264E-3
495.096588E-3
494.777870E-3
494.786453E-3
494.578743E-3
494.432831E-3
494.531822E-3
494.242859E-3
494.273758E-3
494.181061E-3
494.268608E-3
494.244576E-3
494.038010E-3
494.078064E-3
493.999100E-3
493.870354E-3
493.930435E-3
493.775940E-3
493.767357E-3
493.646049E-3
493.570518E-3
493.539619E-3
493.267822E-3
493.244362E-3
492.971992E-3
492.773437E-3
492.746544E-3
492.381477E-3
492.394066E-3
492.107964E-3
492.019844E-3
491.978073E-3
491.603279E-3
491.580963E-3
491.449928E-3
491.185570E-3
491.115189E-3
490.727806E-3
490.714073E-3
490.422821E-3
490.159035E-3
490.005684E-3
489.632607E-3
489.468384E-3
489.236641E-3
489.071846E-3
489.135933E-3
488.999176E-3
489.335632E-3
490.225410E-3
491.879654E-3
494.506073E-3
497.311592E-3
500.454140E-3
503.347206E-3
505.838585E-3
507.710838E-3
508.550835E-3
508.739090E-3
508.048439E-3
506.811333E-3
505.466080E-3
503.875923E-3
502.540970E-3
501.252365E-3
500.088501E-3
499.293137E-3
498.504639E-3
498.241425E-3
497.858620E-3
497.731590E-3
497.868347E-3
497.759056E-3
497.773361E-3
497.414589E-3
496.870422E-3
496.524811E-3
496.158600E-3
496.160889E-3
496.176338E-3
496.366882E-3
496.876717E-3
497.175407E-3
497.670937E-3
497.942734E-3
498.078918E-3
498.259735E-3
498.018265E-3
497.904396E-3
497.530174E-3
497.089005E-3
496.755409E-3
496.082497E-3
495.620728E-3
495.122910E-3
494.451141E-3
494.021416E-3
493.477249E-3
493.140793E-3
492.879868E-3
492.477608E-3
492.375183E-3
492.045593E-3
491.979218E-3
491.865921E-3
491.669655E-3
491.744614E-3
491.621590E-3
491.638756E-3
491.618156E-3
491.579819E-3
491.699409E-3
491.601562E-3
491.645622E-3
491.508293E-3
491.330910E-3
491.438484E-3
491.238785E-3
491.287994E-3
491.164398E-3
491.003036E-3
491.013336E-3
490.774727E-3
490.674019E-3
490.452576E-3
490.260887E-3
490.296936E-3
490.003967E-3
489.923286E-3
489.761353E-3
489.542770E-3
489.510155E-3
489.345360E-3
489.261818E-3
489.154816E-3
488.933945E-3
488.936806E-3
488.762856E-3
488.711357E-3
488.606071E-3
488.412094E-3
488.274193E-3
487.988663E-3
487.817574E-3
487.578392E-3
487.363815E-3
487.394714E-3
487.180138E-3
487.334061E-3
488.008118E-3
489.353371E-3
491.718292E-3
494.496346E-3
497.837448E-3
501.073265E-3
504.010963E-3
506.569290E-3
508.097076E-3
508.971977E-3
508.839226E-3
508.007812E-3
507.020187E-3
505.475807E-3
504.044724E-3
502.657700E-3
501.328468E-3
500.569153E-3
499.706268E-3
499.319458E-3
499.126053E-3
498.916626E-3
499.227905E-3
499.190140E-3
499.474525E-3
499.451065E-3
499.254799E-3
499.022484E-3
498.476601E-3
498.060036E-3
497.751617E-3
497.424889E-3
497.622871E-3
497.672653E-3
497.878075E-3
498.117256E-3
498.205948E-3
498.658562E-3
498.551559E-3
498.612213E-3
498.480606E-3
498.160744E-3
497.942162E-3
497.438049E-3
497.058105E-3
496.598053E-3
495.889664E-3
495.421600E-3
494.892311E-3
494.473457E-3
494.210815E-3
493.739891E-3
493.670082E-3
493.292999E-3
493.231773E-3
493.135643E-3
492.815208E-3
492.797470E-3
492.677307E-3
492.585754E-3
492.566872E-3
492.453003E-3
492.558861E-3
492.449570E-3
492.403221E-3
492.350578E-3
492.229843E-3
492.201233E-3
492.049026E-3
491.983795E-3
491.937447E-3
491.817856E-3
491.834450E-3
491.613579E-3
491.437340E-3
491.412735E-3
491.147232E-3
491.107750E-3
490.889740E-3
490.746689E-3
490.612221E-3
490.366745E-3
490.338707E-3
490.163040E-3
490.147591E-3
490.082932E-3
489.925003E-3
489.850616E-3
489.686394E-3
489.562225E-3
489.511299E-3
489.252663E-3
489.105606E-3
488.927650E-3
488.770294E-3
488.788605E-3
488.501358E-3
488.398361E-3
488.226128E-3
488.154030E-3
488.362312E-3
488.719368E-3
490.110397E-3
492.131424E-3
494.966698E-3
498.283195E-3
501.367950E-3
504.543114E-3
506.960106E-3
508.636665E-3
509.554482E-3
509.475517E-3
508.984566E-3
507.722855E-3
506.312943E-3
504.950523E-3
503.392410E-3
502.305222E-3
501.250076E-3
500.605774E-3
500.186348E-3
499.798393E-3
499.877930E-3
499.941444E-3
500.074196E-3
500.292206E-3
500.152016E-3
500.051308E-3
499.670219E-3
499.181557E-3
498.798180E-3
498.414803E-3
498.512077E-3
498.557281E-3
498.750114E-3
499.139214E-3
499.313736E-3
499.736595E-3
499.966049E-3
500.097084E-3
500.119972E-3
499.726868E-3
499.599838E-3
499.186134E-3
498.742104E-3
498.460579E-3
497.736740E-3
497.301865E-3
496.767998E-3
496.320534E-3
496.092224E-3
495.667076E-3
495.455360E-3
495.088577E-3
494.968414E-3
494.939232E-3
494.654846E-3
494.660568E-3
494.567871E-3
494.475746E-3
494.500351E-3
494.327545E-3
494.492912E-3
494.460869E-3
494.304085E-3
494.380760E-3
494.178200E-3
494.258308E-3
494.193077E-3
494.162750E-3
494.126129E-3
493.884087E-3
493.984222E-3
493.923569E-3
493.753624E-3
493.682671E-3
493.339348E-3
493.364525E-3
493.185997E-3
493.001747E-3
493.034935E-3
492.675591E-3
492.784309E-3
492.592621E-3
492.536545E-3
492.392349E-3
492.227554E-3
492.211533E-3
492.026138E-3
491.905975E-3
491.797829E-3
491.535187E-3
491.483116E-3
491.246796E-3
490.958405E-3
490.815926E-3
490.506363E-3
490.502930E-3
490.516663E-3
490.406227E-3
490.555000E-3
491.113472E-3
492.478752E-3
494.541550E-3
497.295570E-3
500.387192E-3
503.479385E-3
506.583595E-3
508.751106E-3
510.237694E-3
510.879135E-3
510.505486E-3
509.723282E-3
508.304787E-3
506.686020E-3
505.287552E-3
503.709412E-3
502.563286E-3
501.512146E-3
500.681877E-3
500.362015E-3
499.923706E-3
499.839592E-3
499.780655E-3
499.812126E-3
499.941444E-3
499.675941E-3
499.364090E-3
498.794746E-3
498.343849E-3
498.160172E-3
498.097229E-3
498.434830E-3
498.665428E-3
499.076843E-3
499.543762E-3
499.774933E-3
500.001526E-3
500.074196E-3
499.886513E-3
499.811554E-3
499.316025E-3
499.030495E-3
498.592186E-3
498.014259E-3
497.491264E-3
496.785164E-3
496.291351E-3
495.724297E-3
495.213890E-3
495.085716E-3
494.550705E-3
494.289207E-3
493.997383E-3
493.646622E-3
493.639755E-3
493.426323E-3
493.321037E-3
493.266678E-3
493.106461E-3
493.275833E-3
493.026352E-3
493.058395E-3
492.999458E-3
492.978287E-3
492.973709E-3
492.733955E-3
492.792320E-3
492.719078E-3
492.511368E-3
492.609787E-3
492.351723E-3
492.303658E-3
492.188072E-3
492.022133E-3
491.974068E-3
491.742897E-3
491.677094E-3
491.470528E-3
491.262245E-3
491.328049E-3
491.032791E-3
490.992165E-3
490.767288E-3
490.535545E-3
490.557289E-3
490.353584E-3
490.300941E-3
490.130997E-3
489.950180E-3
489.901543E-3
489.525032E-3
489.304733E-3
489.046097E-3
488.723373E-3
488.777161E-3
488.599777E-3
488.606071E-3
488.834381E-3
489.467239E-3
491.081429E-3
493.176270E-3
496.164894E-3
499.453354E-3
502.625656E-3
505.769920E-3
508.093071E-3
509.604836E-3
510.322380E-3
510.072327E-3
509.285545E-3
508.016396E-3
506.466866E-3
504.896736E-3
503.516006E-3
502.563858E-3
501.569939E-3
500.992584E-3
500.627518E-3
500.259018E-3
500.507355E-3
500.386620E-3
500.660706E-3
500.830650E-3
500.657272E-3
500.525093E-3
499.974060E-3
499.519730E-3
499.063110E-3
498.665428E-3
498.614502E-3
498.691177E-3
498.862267E-3
499.130058E-3
499.254227E-3
499.686241E-3
499.685097E-3
499.850464E-3
499.834442E-3
499.579239E-3
499.461365E-3
498.897743E-3
498.458290E-3
498.025703E-3
497.466660E-3
496.919632E-3
496.314812E-3
495.945168E-3
495.639038E-3
495.178413E-3
494.953537E-3
494.654846E-3
494.496346E-3
494.340134E-3
494.110680E-3
494.069481E-3
493.849182E-3
493.869781E-3
493.791962E-3
493.629456E-3
493.743324E-3
493.693542E-3
493.662643E-3
493.662643E-3
493.477821E-3
493.547630E-3
493.395996E-3
493.350792E-3
493.325615E-3
493.087006E-3
493.078423E-3
492.910194E-3
492.733955E-3
492.705917E-3
492.555428E-3
492.439842E-3
492.130852E-3
492.010689E-3
