Notes :


2023-11-13 ¿ÀÀü 12:27:12
Volts
Ch : LED 2,
936.221695E-3
935.992813E-3
934.582901E-3
934.632683E-3
934.122849E-3
933.730316E-3
933.301163E-3
933.041382E-3
932.940102E-3
932.890320E-3
932.949829E-3
933.255959E-3
933.245087E-3
933.411026E-3
933.388710E-3
933.358383E-3
933.278275E-3
933.028793E-3
933.054543E-3
932.635689E-3
932.295799E-3
931.909561E-3
931.471252E-3
931.277847E-3
930.834961E-3
930.682755E-3
930.287361E-3
930.065346E-3
929.827309E-3
929.555511E-3
929.424477E-3
929.129791E-3
928.974152E-3
928.926659E-3
928.610802E-3
928.471184E-3
928.265762E-3
928.146744E-3
928.194237E-3
927.947044E-3
927.856064E-3
927.579689E-3
927.577972E-3
927.649498E-3
927.480125E-3
927.631187E-3
927.404022E-3
927.263260E-3
927.310753E-3
927.097893E-3
927.132797E-3
927.134514E-3
927.113342E-3
927.197456E-3
927.164268E-3
926.863861E-3
926.522255E-3
926.283073E-3
926.112556E-3
925.777245E-3
925.615311E-3
925.416183E-3
925.152397E-3
925.038528E-3
924.980736E-3
924.957848E-3
925.397301E-3
926.367760E-3
928.177071E-3
930.403519E-3
932.988739E-3
935.652351E-3
937.483978E-3
939.539909E-3
940.726089E-3
941.426468E-3
941.659355E-3
941.393852E-3
941.043663E-3
940.255737E-3
939.562798E-3
938.873291E-3
938.237572E-3
937.858200E-3
937.247658E-3
937.058830E-3
936.882019E-3
936.841965E-3
937.014771E-3
936.914062E-3
936.955833E-3
936.780167E-3
936.493492E-3
935.959053E-3
935.342789E-3
934.801483E-3
934.275627E-3
933.925438E-3
933.888245E-3
933.676529E-3
933.835030E-3
933.986664E-3
934.092522E-3
934.280777E-3
934.224701E-3
934.344864E-3
934.134293E-3
933.994675E-3
933.915138E-3
933.601570E-3
933.424759E-3
933.176994E-3
932.663155E-3
932.432556E-3
932.102966E-3
931.885529E-3
931.504440E-3
931.223488E-3
931.078148E-3
930.798340E-3
930.554581E-3
930.365181E-3
930.043602E-3
930.049896E-3
929.697418E-3
929.650497E-3
929.585838E-3
929.433632E-3
929.286575E-3
929.169846E-3
929.075432E-3
928.880310E-3
928.772736E-3
928.966141E-3
928.752708E-3
928.485489E-3
928.400230E-3
928.268051E-3
928.289795E-3
928.096962E-3
928.074646E-3
928.086662E-3
927.971077E-3
927.969360E-3
927.684975E-3
927.581978E-3
927.475548E-3
927.247810E-3
927.044106E-3
926.659584E-3
926.429558E-3
926.368332E-3
926.019859E-3
925.823021E-3
925.486565E-3
925.452805E-3
925.477982E-3
925.352097E-3
926.020432E-3
926.995468E-3
928.633690E-3
930.903053E-3
933.269119E-3
935.749626E-3
937.790108E-3
939.420891E-3
940.358162E-3
940.903473E-3
940.972710E-3
940.541840E-3
939.994812E-3
939.356804E-3
938.525391E-3
937.855339E-3
937.045097E-3
936.436272E-3
936.314964E-3
935.821724E-3
935.737038E-3
935.412598E-3
935.315323E-3
935.307312E-3
935.172272E-3
934.905052E-3
934.473038E-3
933.766365E-3
933.466530E-3
932.867432E-3
932.708931E-3
932.668877E-3
932.876015E-3
933.134651E-3
933.174133E-3
933.489990E-3
933.635330E-3
933.743477E-3
933.825874E-3
933.694267E-3
933.580399E-3
933.312607E-3
932.977867E-3
932.635689E-3
932.415390E-3
931.985092E-3
931.667519E-3
931.357384E-3
930.874443E-3
930.495071E-3
930.248451E-3
929.915428E-3
929.945755E-3
929.624748E-3
929.311752E-3
929.222488E-3
929.079437E-3
928.884315E-3
928.771019E-3
928.562164E-3
928.371048E-3
928.072357E-3
927.996826E-3
927.876091E-3
927.718163E-3
927.676392E-3
927.573967E-3
927.501297E-3
927.403450E-3
927.149391E-3
926.779175E-3
927.053833E-3
926.978302E-3
927.004623E-3
926.802063E-3
926.785469E-3
926.651001E-3
926.535416E-3
926.399803E-3
926.177788E-3
926.105690E-3
925.971222E-3
925.552368E-3
925.448227E-3
925.130081E-3
924.837112E-3
924.624252E-3
924.423981E-3
923.954773E-3
924.171638E-3
924.712944E-3
925.825310E-3
927.685547E-3
929.972649E-3
932.494926E-3
935.246658E-3
937.577820E-3
939.212608E-3
940.449715E-3
941.008186E-3
941.360092E-3
941.060829E-3
940.540123E-3
940.015984E-3
939.116478E-3
938.849258E-3
938.138008E-3
937.643623E-3
937.106323E-3
936.874008E-3
936.696625E-3
936.592484E-3
936.542702E-3
936.779594E-3
936.531830E-3
936.476326E-3
936.182785E-3
935.809135E-3
935.156250E-3
934.412956E-3
933.967209E-3
933.557510E-3
933.261108E-3
933.297729E-3
933.419609E-3
933.789825E-3
933.784103E-3
933.827019E-3
934.021568E-3
933.952332E-3
933.936310E-3
933.600426E-3
933.457375E-3
933.241653E-3
932.827377E-3
932.695198E-3
932.210541E-3
931.863785E-3
931.521034E-3
931.299591E-3
931.049538E-3
930.635262E-3
930.363464E-3
930.140877E-3
929.943466E-3
929.754639E-3
929.581261E-3
929.485703E-3
929.353523E-3
928.831100E-3
928.744698E-3
928.709793E-3
928.432274E-3
928.444862E-3
928.175354E-3
928.107262E-3
927.991104E-3
928.010559E-3
927.853203E-3
927.541351E-3
927.503014E-3
927.568245E-3
927.298164E-3
927.207756E-3
927.018356E-3
926.958275E-3
926.925087E-3
926.789474E-3
926.962852E-3
926.749992E-3
926.558876E-3
926.426125E-3
926.264763E-3
926.257896E-3
926.255035E-3
925.992966E-3
925.753212E-3
925.378990E-3
925.175858E-3
924.871445E-3
924.750710E-3
924.576759E-3
924.319267E-3
923.886108E-3
924.049759E-3
924.342155E-3
925.162697E-3
926.726532E-3
929.038239E-3
931.509590E-3
934.278488E-3
936.693764E-3
938.329697E-3
940.105820E-3
940.942955E-3
941.369820E-3
941.189575E-3
940.918922E-3
940.499496E-3
939.576530E-3
938.836098E-3
937.893105E-3
937.455368E-3
937.303734E-3
936.842537E-3
936.808777E-3
936.841393E-3
936.763573E-3
936.845970E-3
936.787605E-3
936.825371E-3
936.649704E-3
936.365318E-3
935.863495E-3
935.056114E-3
934.449577E-3
933.937454E-3
933.592415E-3
933.733177E-3
933.678818E-3
933.646774E-3
933.808136E-3
933.909416E-3
934.079933E-3
934.115982E-3
934.151459E-3
933.688545E-3
933.775520E-3
933.712578E-3
933.308029E-3
933.202744E-3
932.785034E-3
932.343292E-3
932.180786E-3
931.785965E-3
931.605721E-3
931.109047E-3
930.766869E-3
930.657578E-3
930.352592E-3
930.121994E-3
929.837608E-3
929.606438E-3
929.577255E-3
929.328346E-3
929.299736E-3
929.151535E-3
928.829956E-3
928.760147E-3
928.607941E-3
928.564453E-3
928.406525E-3
928.166199E-3
927.769089E-3
927.968788E-3
928.095818E-3
927.942467E-3
927.785683E-3
927.784538E-3
927.599716E-3
927.581978E-3
927.553368E-3
927.060127E-3
927.264977E-3
927.173424E-3
927.202606E-3
927.091026E-3
926.954842E-3
926.845551E-3
926.601791E-3
926.272202E-3
926.176643E-3
925.914001E-3
925.644493E-3
925.408745E-3
925.274277E-3
925.076866E-3
924.941254E-3
924.824524E-3
924.548149E-3
924.529839E-3
924.909210E-3
925.718880E-3
927.264404E-3
929.321480E-3
931.744766E-3
934.337425E-3
936.544418E-3
938.585472E-3
939.629745E-3
940.379906E-3
940.783882E-3
940.463448E-3
940.012550E-3
939.289284E-3
938.548851E-3
938.076210E-3
937.042809E-3
936.480904E-3
935.870361E-3
935.595703E-3
935.337639E-3
935.291862E-3
935.287285E-3
935.338783E-3
934.863853E-3
934.984589E-3
934.596634E-3
934.300804E-3
933.633041E-3
933.115196E-3
932.775879E-3
932.657433E-3
932.637978E-3
932.861710E-3
933.040237E-3
933.250809E-3
933.386421E-3
933.611298E-3
933.746910E-3
933.740044E-3
933.662224E-3
933.504868E-3
932.992744E-3
932.881165E-3
932.474327E-3
932.197380E-3
931.697845E-3
931.400299E-3
931.015205E-3
930.739975E-3
930.505943E-3
930.218124E-3
930.049896E-3
929.717445E-3
929.385567E-3
929.191017E-3
928.930092E-3
928.827667E-3
928.726387E-3
928.562737E-3
928.547859E-3
928.170204E-3
928.173637E-3
927.977943E-3
927.856636E-3
927.679825E-3
927.508736E-3
927.194023E-3
927.032661E-3
927.032089E-3
927.045822E-3
926.986313E-3
926.871872E-3
926.709366E-3
926.550865E-3
926.547432E-3
926.106262E-3
926.381493E-3
926.062775E-3
926.090240E-3
925.955200E-3
925.835037E-3
925.678825E-3
925.361252E-3
925.203323E-3
924.712944E-3
924.592781E-3
924.411392E-3
924.237442E-3
923.899841E-3
923.767090E-3
923.550224E-3
923.711014E-3
923.938751E-3
924.988747E-3
926.624680E-3
928.589058E-3
931.269836E-3
933.881378E-3
936.215401E-3
938.212395E-3
939.519310E-3
940.515518E-3
940.952682E-3
940.790749E-3
940.466309E-3
939.568520E-3
938.978004E-3
938.235855E-3
937.642479E-3
937.187576E-3
936.714935E-3
936.417961E-3
936.093521E-3
936.079788E-3
936.086655E-3
936.083794E-3
936.076927E-3
936.011124E-3
935.333633E-3
935.329056E-3
934.668159E-3
934.008408E-3
933.485413E-3
933.040810E-3
932.735252E-3
932.634544E-3
932.754135E-3
932.718658E-3
932.797050E-3
932.952690E-3
933.054543E-3
933.206749E-3
933.129501E-3
932.975578E-3
932.961845E-3
932.728958E-3
932.216835E-3
931.879807E-3
931.752205E-3
931.288719E-3
930.830383E-3
930.568314E-3
930.174065E-3
929.862785E-3
929.689980E-3
929.653931E-3
929.307747E-3
928.930664E-3
928.563309E-3
928.393936E-3
928.192520E-3
928.023720E-3
927.841759E-3
927.687263E-3
927.771378E-3
927.415466E-3
927.307320E-3
927.099037E-3
926.923943E-3
926.793480E-3
926.572609E-3
926.584053E-3
926.402092E-3
926.265335E-3
926.227570E-3
926.126289E-3
926.105690E-3
925.924301E-3
925.909996E-3
925.852776E-3
925.657082E-3
925.605583E-3
925.518036E-3
925.296021E-3
925.182152E-3
924.987030E-3
925.007057E-3
924.741554E-3
924.688339E-3
924.211693E-3
924.130440E-3
923.986816E-3
923.812294E-3
923.585701E-3
923.355675E-3
923.013496E-3
922.800636E-3
922.681046E-3
922.111130E-3
922.619820E-3
922.962570E-3
924.208832E-3
926.110268E-3
928.451729E-3
931.297302E-3
933.701134E-3
936.066055E-3
937.585831E-3
939.136505E-3
939.904976E-3
939.846611E-3
939.729309E-3
939.200592E-3
938.639259E-3
937.917709E-3
937.209320E-3
936.736679E-3
936.052322E-3
935.598564E-3
935.349655E-3
935.120773E-3
935.175705E-3
935.182571E-3
935.208321E-3
935.418892E-3
934.991455E-3
935.035515E-3
934.532547E-3
933.848763E-3
933.303452E-3
932.662582E-3
932.488632E-3
932.155609E-3
931.974220E-3
931.777382E-3
932.118988E-3
932.280350E-3
932.477760E-3
932.485199E-3
932.676315E-3
932.619095E-3
932.628250E-3
932.373619E-3
932.078934E-3
931.852913E-3
931.585121E-3
931.372833E-3
931.028938E-3
930.631828E-3
930.373192E-3
930.040741E-3
929.751205E-3
929.510307E-3
929.304314E-3
929.153252E-3
928.797913E-3
928.661156E-3
928.453445E-3
928.229141E-3
928.358459E-3
928.001404E-3
928.008842E-3
927.792549E-3
927.543068E-3
927.436638E-3
927.436638E-3
927.267265E-3
927.125931E-3
927.282143E-3
927.096176E-3
926.650429E-3
926.861572E-3
926.577759E-3
926.474190E-3
926.313400E-3
926.204109E-3
926.093102E-3
926.344872E-3
925.945473E-3
926.022148E-3
925.686264E-3
925.641060E-3
925.518608E-3
925.318336E-3
925.244522E-3
925.142097E-3
924.723816E-3
924.692917E-3
924.508667E-3
924.429703E-3
924.086380E-3
923.807716E-3
923.467827E-3
923.141098E-3
923.110199E-3
922.866440E-3
922.805214E-3
922.896767E-3
923.118782E-3
924.169350E-3
925.764656E-3
928.010559E-3
931.122208E-3
933.223343E-3
935.341644E-3
936.710930E-3
937.744331E-3
938.291931E-3
938.438416E-3
938.246155E-3
937.664795E-3
937.055969E-3
936.258888E-3
935.484695E-3
934.897041E-3
934.005547E-3
933.597565E-3
933.182144E-3
932.895470E-3
933.002472E-3
933.687973E-3
933.246231E-3
932.782173E-3
932.682037E-3
932.516670E-3
931.923294E-3
931.458092E-3
930.929375E-3
930.615807E-3
930.013275E-3
930.310249E-3
930.690193E-3
930.929375E-3
931.187439E-3
931.478691E-3
931.478119E-3
931.610870E-3
931.591415E-3
931.416321E-3
931.405449E-3
930.987740E-3
930.895615E-3
930.463600E-3
930.067062E-3
929.709435E-3
929.207611E-3
929.116058E-3
928.914070E-3
928.492355E-3
928.264618E-3
927.992249E-3
927.888680E-3
927.667809E-3
927.368546E-3
928.082085E-3
927.389145E-3
927.111053E-3
927.009773E-3
926.802063E-3
926.698494E-3
926.554871E-3
926.427269E-3
926.237297E-3
925.296021E-3
925.683975E-3
925.650215E-3
925.521469E-3
925.665665E-3
925.535774E-3
925.512886E-3
925.299454E-3
925.170708E-3
925.366402E-3
924.984741E-3
925.013924E-3
924.735832E-3
924.723244E-3
924.475479E-3
924.264336E-3
924.254608E-3
924.114990E-3
923.792839E-3
923.610878E-3
923.125076E-3
923.014641E-3
922.861290E-3
922.531700E-3
922.255325E-3
921.979523E-3
921.956062E-3
922.073364E-3
922.370338E-3
923.303604E-3
924.873734E-3
927.221489E-3
929.695702E-3
932.383347E-3
934.808922E-3
936.587334E-3
937.692833E-3
938.505363E-3
938.886452E-3
938.908195E-3
938.445282E-3
937.959480E-3
937.283707E-3
936.535263E-3
936.027718E-3
935.347939E-3
935.002327E-3
934.617233E-3
934.601212E-3
934.613228E-3
934.117126E-3
934.412384E-3
934.256744E-3
934.241867E-3
934.130859E-3
933.698273E-3
933.237076E-3
932.599640E-3
932.148170E-3
931.291580E-3
931.099319E-3
931.153107E-3
931.260109E-3
931.436348E-3
931.606293E-3
931.762505E-3
931.970787E-3
932.031441E-3
931.562233E-3
931.727028E-3
931.504440E-3
931.349945E-3
931.026077E-3
930.713081E-3
930.444145E-3
930.029297E-3
929.771233E-3
929.597855E-3
929.179573E-3
928.862572E-3
928.462601E-3
928.272629E-3
928.031731E-3
927.729607E-3
927.545357E-3
927.274704E-3
926.821518E-3
926.837540E-3
926.826668E-3
926.692772E-3
926.506805E-3
926.368332E-3
926.127434E-3
926.112556E-3
926.051903E-3
925.823021E-3
925.673103E-3
925.460243E-3
925.424767E-3
925.424767E-3
925.092888E-3
925.144958E-3
925.017929E-3
925.025368E-3
924.842834E-3
924.724960E-3
924.851990E-3
924.640846E-3
924.538422E-3
924.433708E-3
924.347305E-3
924.254036E-3
924.032021E-3
923.906708E-3
923.871231E-3
923.673820E-3
923.482132E-3
923.274994E-3
922.931671E-3
922.702789E-3
922.120285E-3
922.119141E-3
921.906853E-3
921.908569E-3
922.028732E-3
922.362328E-3
923.632622E-3
925.552368E-3
927.986526E-3
930.392075E-3
933.024216E-3
935.432625E-3
937.141800E-3
938.295937E-3
939.023209E-3
939.316750E-3
939.186859E-3
938.729668E-3
938.488770E-3
937.599564E-3
936.720657E-3
936.144447E-3
935.611725E-3
935.304451E-3
934.919357E-3
934.700203E-3
934.715080E-3
934.235001E-3
934.538269E-3
934.692192E-3
934.539413E-3
934.364319E-3
933.982658E-3
933.346367E-3
932.679176E-3
932.113838E-3
931.914139E-3
931.791115E-3
931.664085E-3
931.815147E-3
931.937599E-3
932.107544E-3
932.340431E-3
932.630539E-3
932.512665E-3
932.315826E-3
932.319832E-3
932.034302E-3
931.775093E-3
931.591988E-3
931.225204E-3
930.911636E-3
930.484200E-3
930.231285E-3
930.043602E-3
929.619026E-3
929.389000E-3
929.109764E-3
928.887749E-3
928.641701E-3
928.456306E-3
928.612518E-3
928.186798E-3
927.924156E-3
927.955627E-3
927.675819E-3
927.627754E-3
927.437782E-3
927.157402E-3
927.207756E-3
927.091599E-3
926.954269E-3
926.848412E-3
926.563454E-3
926.652718E-3
926.362610E-3
926.396370E-3
926.246452E-3
926.231575E-3
926.003838E-3
925.919724E-3
925.829315E-3
925.778389E-3
925.629616E-3
925.649071E-3
925.388718E-3
925.370979E-3
925.253105E-3
924.691200E-3
924.808502E-3
924.700928E-3
924.624825E-3
924.484062E-3
924.247169E-3
924.048042E-3
923.850060E-3
923.625755E-3
923.376274E-3
923.123932E-3
923.184013E-3
922.940254E-3
922.789192E-3
922.852707E-3
923.321342E-3
924.113846E-3
926.146889E-3
928.630257E-3
931.225777E-3
933.720016E-3
935.767365E-3
937.204742E-3
