Notes :


2023-11-04 ¿ÀÈÄ 7:44:22
Volts
Ch : LED 2,
1.023669E+0
1.027239E+0
1.030944E+0
1.033846E+0
1.036142E+0
1.037436E+0
1.037509E+0
1.037069E+0
1.035890E+0
1.034419E+0
1.032924E+0
1.031325E+0
1.030353E+0
1.029192E+0
1.028665E+0
1.028155E+0
1.027982E+0
1.028172E+0
1.028253E+0
1.028402E+0
1.028392E+0
1.027994E+0
1.027419E+0
1.026216E+0
1.025278E+0
1.024258E+0
1.023691E+0
1.023632E+0
1.023602E+0
1.024128E+0
1.024840E+0
1.025317E+0
1.025995E+0
1.026225E+0
1.026423E+0
1.026466E+0
1.026074E+0
1.025851E+0
1.025100E+0
1.024575E+0
1.024084E+0
1.023576E+0
1.023276E+0
1.022712E+0
1.022320E+0
1.022047E+0
1.021694E+0
1.021520E+0
1.021210E+0
1.021206E+0
1.021154E+0
1.020905E+0
1.021014E+0
1.021018E+0
1.020887E+0
1.020859E+0
1.020671E+0
1.020673E+0
1.020489E+0
1.020486E+0
1.020465E+0
1.020312E+0
1.020309E+0
1.020182E+0
1.020184E+0
1.020271E+0
1.020255E+0
1.020548E+0
1.020529E+0
1.020648E+0
1.020601E+0
1.020508E+0
1.020558E+0
1.020230E+0
1.020113E+0
1.019888E+0
1.019629E+0
1.019491E+0
1.019172E+0
1.018985E+0
1.018705E+0
1.018369E+0
1.018239E+0
1.018049E+0
1.018142E+0
1.018139E+0
1.018335E+0
1.019277E+0
1.020554E+0
1.022754E+0
1.025759E+0
1.029164E+0
1.032744E+0
1.035741E+0
1.038345E+0
1.039937E+0
1.040434E+0
1.040479E+0
1.039512E+0
1.038400E+0
1.036988E+0
1.035473E+0
1.034384E+0
1.033273E+0
1.032575E+0
1.032347E+0
1.032107E+0
1.032243E+0
1.032322E+0
1.032383E+0
1.032491E+0
1.032255E+0
1.031931E+0
1.030923E+0
1.029849E+0
1.029081E+0
1.028175E+0
1.027908E+0
1.027868E+0
1.028163E+0
1.028577E+0
1.029100E+0
1.029893E+0
1.030305E+0
1.030544E+0
1.030674E+0
1.030521E+0
1.030299E+0
1.029750E+0
1.029115E+0
1.028462E+0
1.027757E+0
1.027251E+0
1.026596E+0
1.026152E+0
1.025734E+0
1.025171E+0
1.024921E+0
1.024536E+0
1.024208E+0
1.024019E+0
1.023746E+0
1.023620E+0
1.023459E+0
1.023356E+0
1.023342E+0
1.023178E+0
1.023237E+0
1.023011E+0
1.023027E+0
1.023126E+0
1.022912E+0
1.023014E+0
1.022905E+0
1.022836E+0
1.022856E+0
1.022714E+0
1.022816E+0
1.022793E+0
1.022795E+0
1.022805E+0
1.022685E+0
1.022614E+0
1.022482E+0
1.022297E+0
1.022050E+0
1.021673E+0
1.021527E+0
1.021006E+0
1.020712E+0
1.020384E+0
1.019958E+0
1.019811E+0
1.019455E+0
1.019384E+0
1.019372E+0
1.019323E+0
1.019544E+0
1.019835E+0
1.020761E+0
1.022758E+0
1.025268E+0
1.028616E+0
1.032004E+0
1.035485E+0
1.038628E+0
1.040718E+0
1.041991E+0
1.042189E+0
1.041692E+0
1.040759E+0
1.039200E+0
1.037915E+0
1.036462E+0
1.035346E+0
1.034735E+0
1.034111E+0
1.034085E+0
1.034056E+0
1.034147E+0
1.034379E+0
1.034623E+0
1.034763E+0
1.034572E+0
1.033981E+0
1.033215E+0
1.032061E+0
1.031045E+0
1.030185E+0
1.029698E+0
1.029791E+0
1.029719E+0
1.030210E+0
1.030635E+0
1.031105E+0
1.031555E+0
1.031610E+0
1.031677E+0
1.031736E+0
1.031267E+0
1.030788E+0
1.030165E+0
1.029632E+0
1.028906E+0
1.028408E+0
1.027875E+0
1.027348E+0
1.026910E+0
1.026452E+0
1.026018E+0
1.025690E+0
1.025195E+0
1.025060E+0
1.024771E+0
1.024580E+0
1.024449E+0
1.024056E+0
1.023998E+0
1.023930E+0
1.023747E+0
1.023752E+0
1.023545E+0
1.023446E+0
1.023307E+0
1.023217E+0
1.023211E+0
1.022951E+0
1.022908E+0
1.022793E+0
1.022680E+0
1.022760E+0
1.022561E+0
1.022592E+0
1.022460E+0
1.022219E+0
1.022123E+0
1.021666E+0
1.021445E+0
1.021088E+0
1.020799E+0
1.020455E+0
1.020099E+0
1.019907E+0
1.019359E+0
1.019122E+0
1.018940E+0
1.018373E+0
1.018284E+0
1.018231E+0
1.018251E+0
1.018498E+0
1.018798E+0
1.020019E+0
1.022088E+0
1.024865E+0
1.028248E+0
1.031711E+0
1.035146E+0
1.037857E+0
1.039790E+0
1.040679E+0
1.040572E+0
1.039797E+0
1.038507E+0
1.036988E+0
1.035626E+0
1.034138E+0
1.033250E+0
1.032353E+0
1.031855E+0
1.031746E+0
1.031634E+0
1.031792E+0
1.031999E+0
1.032021E+0
1.032016E+0
1.031592E+0
1.030938E+0
1.029876E+0
1.028700E+0
1.028074E+0
1.027564E+0
1.027540E+0
1.027607E+0
1.027872E+0
1.028621E+0
1.029064E+0
1.029695E+0
1.029900E+0
1.030053E+0
1.029988E+0
1.029511E+0
1.029072E+0
1.028412E+0
1.027705E+0
1.027156E+0
1.026469E+0
1.025902E+0
1.025245E+0
1.024678E+0
1.024356E+0
1.023886E+0
1.023666E+0
1.023276E+0
1.023021E+0
1.022875E+0
1.022622E+0
1.022556E+0
1.022284E+0
1.022134E+0
1.022101E+0
1.021972E+0
1.021928E+0
1.021885E+0
1.021700E+0
1.021867E+0
1.021765E+0
1.021777E+0
1.021733E+0
1.021728E+0
1.021723E+0
1.021615E+0
1.021870E+0
1.021757E+0
1.021620E+0
1.021567E+0
1.021389E+0
1.021326E+0
1.021097E+0
1.020792E+0
1.020554E+0
1.020175E+0
1.019827E+0
1.019561E+0
1.019259E+0
1.019079E+0
1.018742E+0
1.018771E+0
1.018768E+0
1.018712E+0
1.018995E+0
1.019524E+0
1.020838E+0
1.022930E+0
1.025658E+0
1.028955E+0
1.032336E+0
1.035730E+0
1.038337E+0
1.040109E+0
1.041133E+0
1.040968E+0
1.040355E+0
1.039147E+0
1.037707E+0
1.036280E+0
1.034991E+0
1.034019E+0
1.033173E+0
1.032675E+0
1.032552E+0
1.032432E+0
1.032564E+0
1.032581E+0
1.032622E+0
1.032655E+0
1.032079E+0
1.031241E+0
1.030212E+0
1.029310E+0
1.028712E+0
1.028292E+0
1.028302E+0
1.028643E+0
1.029116E+0
1.029873E+0
1.030386E+0
1.030949E+0
1.031213E+0
1.031197E+0
1.031223E+0
1.030785E+0
1.030214E+0
1.029596E+0
1.028813E+0
1.028323E+0
1.027611E+0
1.027126E+0
1.026687E+0
1.026139E+0
1.025881E+0
1.025443E+0
1.025123E+0
1.024769E+0
1.024431E+0
1.024425E+0
1.024164E+0
1.024006E+0
1.023943E+0
1.023615E+0
1.023744E+0
1.023608E+0
1.023557E+0
1.023506E+0
1.023339E+0
1.023385E+0
1.023178E+0
1.023198E+0
1.023171E+0
1.022921E+0
1.023106E+0
1.022935E+0
1.022929E+0
1.022882E+0
1.022778E+0
1.022911E+0
1.022663E+0
1.022500E+0
1.022321E+0
1.022104E+0
1.021948E+0
1.021640E+0
1.021303E+0
1.021013E+0
1.020676E+0
1.020476E+0
1.020124E+0
1.019935E+0
1.019816E+0
1.019592E+0
1.019752E+0
1.019835E+0
1.020249E+0
1.021195E+0
1.022700E+0
1.025357E+0
1.028520E+0
1.032092E+0
1.035746E+0
1.038708E+0
1.041289E+0
1.042572E+0
1.043060E+0
1.042822E+0
1.041852E+0
1.040619E+0
1.039038E+0
1.037676E+0
1.036641E+0
1.035558E+0
1.035263E+0
1.034811E+0
1.034833E+0
1.034924E+0
1.035084E+0
1.035497E+0
1.035585E+0
1.035426E+0
1.035095E+0
1.034273E+0
1.033414E+0
1.032195E+0
1.031426E+0
1.030928E+0
1.030605E+0
1.030680E+0
1.030795E+0
1.031239E+0
1.031774E+0
1.032111E+0
1.032401E+0
1.032460E+0
1.032326E+0
1.032106E+0
1.031579E+0
1.031229E+0
1.030626E+0
1.030079E+0
1.029600E+0
1.029018E+0
1.028492E+0
1.027983E+0
1.027517E+0
1.027104E+0
1.026695E+0
1.026478E+0
1.026106E+0
1.025939E+0
1.025844E+0
1.025573E+0
1.025562E+0
1.025338E+0
1.025142E+0
1.025131E+0
1.024947E+0
1.024823E+0
1.024626E+0
1.024570E+0
1.024474E+0
1.024235E+0
1.024140E+0
1.023984E+0
1.023961E+0
1.023889E+0
1.023735E+0
1.023655E+0
1.023469E+0
1.023387E+0
1.023379E+0
1.023065E+0
1.023005E+0
1.022723E+0
1.022420E+0
1.022130E+0
1.021789E+0
1.021552E+0
1.021188E+0
1.020848E+0
1.020625E+0
1.020216E+0
1.020151E+0
1.019659E+0
1.019519E+0
1.019673E+0
1.019699E+0
1.019961E+0
1.020553E+0
1.021931E+0
1.024362E+0
1.027205E+0
1.030770E+0
1.034203E+0
1.037448E+0
1.040011E+0
1.041365E+0
1.041892E+0
1.041578E+0
1.040508E+0
1.039308E+0
1.037650E+0
1.036363E+0
1.034995E+0
1.033980E+0
1.033423E+0
1.032888E+0
1.032877E+0
1.032919E+0
1.033002E+0
1.033391E+0
1.033235E+0
1.033212E+0
1.032674E+0
1.031898E+0
1.031022E+0
1.029897E+0
1.029129E+0
1.028697E+0
1.028704E+0
1.028959E+0
1.029351E+0
1.029967E+0
1.030577E+0
1.031001E+0
1.031383E+0
1.031236E+0
1.031149E+0
1.030632E+0
1.030135E+0
1.029633E+0
1.028818E+0
1.028288E+0
1.027671E+0
1.027008E+0
1.026615E+0
1.026055E+0
1.025568E+0
1.025158E+0
1.024733E+0
1.024509E+0
1.024176E+0
1.023969E+0
1.023764E+0
1.023516E+0
1.023517E+0
1.023243E+0
1.023335E+0
1.023165E+0
1.023186E+0
1.023164E+0
1.022987E+0
1.022908E+0
1.022931E+0
1.022844E+0
1.022883E+0
1.022795E+0
1.022825E+0
1.022762E+0
1.022773E+0
1.022784E+0
1.022745E+0
1.022779E+0
1.022525E+0
1.022343E+0
1.022121E+0
1.021825E+0
1.021541E+0
1.021155E+0
1.020819E+0
1.020480E+0
1.020202E+0
1.019874E+0
1.019576E+0
1.019532E+0
1.019539E+0
1.019425E+0
1.019740E+0
1.019996E+0
1.020979E+0
1.022890E+0
1.025289E+0
1.028604E+0
1.032028E+0
1.035306E+0
1.038282E+0
1.040243E+0
1.041458E+0
1.041653E+0
1.041020E+0
1.040047E+0
1.038460E+0
1.037239E+0
1.035732E+0
1.034497E+0
1.033805E+0
1.033003E+0
1.032845E+0
1.032757E+0
1.032709E+0
1.032961E+0
1.033019E+0
1.032912E+0
1.032506E+0
1.031752E+0
1.031017E+0
1.030012E+0
1.029428E+0
1.028995E+0
1.028862E+0
1.029199E+0
1.029547E+0
1.030176E+0
1.030757E+0
1.031065E+0
1.031498E+0
1.031501E+0
1.031532E+0
1.031243E+0
1.030678E+0
1.030348E+0
1.029734E+0
1.029463E+0
1.029096E+0
1.028536E+0
1.028122E+0
1.027545E+0
1.027156E+0
1.026779E+0
1.026268E+0
1.026007E+0
1.025749E+0
1.025554E+0
1.025494E+0
1.025256E+0
1.025144E+0
1.024939E+0
1.024785E+0
1.024606E+0
1.024357E+0
1.024263E+0
1.024100E+0
1.023898E+0
1.023836E+0
1.023616E+0
1.023578E+0
1.023311E+0
1.023301E+0
1.023057E+0
1.022817E+0
1.022642E+0
1.022289E+0
1.022140E+0
1.022001E+0
1.021750E+0
1.021524E+0
1.021116E+0
1.020925E+0
1.020606E+0
1.020207E+0
1.019960E+0
1.019578E+0
1.019276E+0
1.018902E+0
1.018462E+0
1.018316E+0
1.017971E+0
1.017751E+0
1.017634E+0
1.017664E+0
1.017969E+0
1.018271E+0
1.019226E+0
1.020871E+0
1.023248E+0
1.026507E+0
1.030052E+0
1.033672E+0
1.037009E+0
1.039430E+0
1.041232E+0
1.041734E+0
1.041558E+0
1.040678E+0
1.039249E+0
1.037898E+0
1.036460E+0
1.035299E+0
1.034303E+0
1.033537E+0
1.033268E+0
1.032981E+0
1.033128E+0
1.033473E+0
1.033636E+0
1.033962E+0
1.033808E+0
1.033625E+0
1.032888E+0
1.031997E+0
1.031138E+0
1.030149E+0
1.029501E+0
1.029288E+0
1.029141E+0
1.029521E+0
1.029779E+0
1.030432E+0
1.030820E+0
1.031010E+0
1.031260E+0
1.031189E+0
1.030836E+0
1.030540E+0
1.030036E+0
1.029482E+0
1.028871E+0
1.028376E+0
1.027689E+0
1.027172E+0
1.027008E+0
1.026463E+0
1.026185E+0
1.025905E+0
1.025469E+0
1.025501E+0
1.025212E+0
1.025223E+0
1.025049E+0
1.024880E+0
1.024960E+0
1.024843E+0
1.024793E+0
1.024705E+0
1.024590E+0
1.024614E+0
1.024480E+0
1.024409E+0
1.024381E+0
1.024151E+0
1.024216E+0
1.023901E+0
1.023815E+0
1.023648E+0
1.023438E+0
1.023429E+0
1.023170E+0
1.022951E+0
1.022888E+0
1.022528E+0
1.022518E+0
1.022419E+0
1.022193E+0
1.022004E+0
1.021737E+0
1.021623E+0
1.021293E+0
1.021122E+0
1.020943E+0
1.020604E+0
1.020312E+0
1.020010E+0
1.019647E+0
1.019510E+0
1.019021E+0
1.019010E+0
1.018863E+0
1.019014E+0
1.019214E+0
1.019784E+0
1.021240E+0
1.023299E+0
1.026233E+0
1.029733E+0
1.033122E+0
1.036398E+0
1.039085E+0
1.040834E+0
1.041583E+0
1.041311E+0
1.040547E+0
1.039149E+0
1.037767E+0
1.036290E+0
1.034948E+0
1.033875E+0
1.033039E+0
1.032474E+0
1.032342E+0
1.032345E+0
1.032545E+0
1.032761E+0
1.032985E+0
1.033040E+0
1.032743E+0
1.032278E+0
1.031283E+0
1.030253E+0
1.029342E+0
1.028563E+0
1.028230E+0
1.028226E+0
1.028466E+0
1.028962E+0
1.029394E+0
1.029969E+0
1.030292E+0
1.030508E+0
1.030551E+0
1.030209E+0
1.029915E+0
1.029311E+0
1.028690E+0
1.028127E+0
1.027397E+0
1.026945E+0
1.026314E+0
1.025890E+0
1.025571E+0
1.024979E+0
1.024705E+0
1.024369E+0
1.023975E+0
1.023833E+0
1.023597E+0
1.023414E+0
1.023308E+0
1.023032E+0
1.022978E+0
1.022813E+0
1.023007E+0
1.022824E+0
1.022817E+0
1.022813E+0
1.022563E+0
1.022591E+0
1.022377E+0
1.022388E+0
1.022331E+0
1.021999E+0
1.021895E+0
1.021847E+0
1.021784E+0
1.021675E+0
1.021417E+0
1.021338E+0
1.021276E+0
1.021080E+0
1.021101E+0
1.020736E+0
1.020605E+0
1.020230E+0
1.019796E+0
1.019651E+0
1.019255E+0
1.019111E+0
1.018678E+0
1.018416E+0
1.018271E+0
1.017864E+0
1.017762E+0
1.017456E+0
1.017554E+0
1.017468E+0
1.017474E+0
1.018005E+0
1.018880E+0
1.020695E+0
1.023403E+0
1.026318E+0
1.029926E+0
1.033312E+0
1.036078E+0
1.038165E+0
1.039079E+0
1.039254E+0
1.038761E+0
1.037583E+0
1.036206E+0
1.034645E+0
1.033376E+0
1.032258E+0
1.031366E+0
1.030864E+0
1.030443E+0
1.030532E+0
1.030534E+0
1.030630E+0
1.030865E+0
1.030586E+0
1.030301E+0
1.029627E+0
1.028725E+0
1.027974E+0
1.027309E+0
1.026949E+0
1.026920E+0
1.027135E+0
1.027754E+0
1.028344E+0
1.029118E+0
1.029712E+0
1.030103E+0
1.030301E+0
1.030162E+0
1.029851E+0
1.029281E+0
1.028668E+0
1.028125E+0
1.027342E+0
1.026862E+0
1.026250E+0
1.025508E+0
1.025062E+0
1.024503E+0
1.024132E+0
1.023747E+0
1.023373E+0
1.023125E+0
1.022602E+0
1.022508E+0
1.022216E+0
1.022041E+0
1.021904E+0
1.021467E+0
1.021531E+0
1.021319E+0
1.021165E+0
1.021206E+0
1.020975E+0
1.021008E+0
1.020780E+0
1.020748E+0
1.020708E+0
1.020483E+0
1.020455E+0
1.020458E+0
1.020267E+0
1.020515E+0
1.020177E+0
1.020267E+0
1.020169E+0
1.020129E+0
1.020253E+0
1.020035E+0
1.020083E+0
1.020041E+0
1.019836E+0
1.019850E+0
1.019590E+0
1.019621E+0
1.019348E+0
1.019067E+0
1.018990E+0
1.018699E+0
1.018726E+0
1.018681E+0
1.018724E+0
1.018972E+0
1.019068E+0
1.019893E+0
1.021369E+0
1.023486E+0
1.026580E+0
1.029779E+0
1.033466E+0
