Notes :


2023-11-10 ¿ÀÈÄ 11:36:36
Volts
Ch : LED 2,
687.816811E-3
687.763596E-3
687.563324E-3
687.498665E-3
687.439728E-3
687.509537E-3
687.371063E-3
687.527847E-3
687.256622E-3
687.270355E-3
687.196541E-3
686.976242E-3
686.964798E-3
686.684990E-3
686.640930E-3
686.480141E-3
686.212921E-3
685.881042E-3
685.382652E-3
684.976387E-3
684.692574E-3
684.302902E-3
684.023666E-3
683.794785E-3
683.921242E-3
684.082603E-3
684.670258E-3
686.008644E-3
688.291740E-3
691.300392E-3
694.739342E-3
697.947693E-3
701.015854E-3
703.209686E-3
704.843330E-3
705.420113E-3
705.304527E-3
704.648781E-3
703.581619E-3
702.424049E-3
701.239014E-3
699.876022E-3
698.907852E-3
697.967720E-3
697.355461E-3
697.262764E-3
697.047615E-3
697.158051E-3
697.187805E-3
697.323990E-3
697.481346E-3
697.246170E-3
696.827316E-3
696.065140E-3
695.022011E-3
694.220352E-3
693.556595E-3
693.412399E-3
693.408394E-3
693.683624E-3
694.194031E-3
694.602585E-3
695.015717E-3
695.375061E-3
695.520973E-3
695.654869E-3
695.445442E-3
695.306396E-3
694.802284E-3
694.389153E-3
693.807220E-3
693.108559E-3
692.677116E-3
691.996193E-3
691.629410E-3
691.121292E-3
690.506172E-3
690.256691E-3
690.159988E-3
689.775467E-3
689.516830E-3
689.216423E-3
689.087677E-3
688.917732E-3
688.767815E-3
688.582993E-3
688.213348E-3
688.029099E-3
687.962723E-3
687.911797E-3
687.779617E-3
687.578201E-3
687.556458E-3
687.492371E-3
687.380791E-3
687.374496E-3
687.027740E-3
687.138176E-3
687.097549E-3
686.929321E-3
686.854935E-3
686.554527E-3
686.401176E-3
686.083031E-3
685.793495E-3
685.555458E-3
685.167503E-3
684.817314E-3
684.427643E-3
684.181595E-3
683.951569E-3
683.637428E-3
683.537865E-3
683.550453E-3
683.925819E-3
684.544945E-3
685.643578E-3
687.674332E-3
690.392303E-3
693.643570E-3
696.897125E-3
699.757576E-3
702.223206E-3
703.947830E-3
704.663086E-3
704.902267E-3
704.243660E-3
703.486061E-3
702.432060E-3
701.273918E-3
700.095177E-3
699.005127E-3
698.380280E-3
697.638130E-3
697.150612E-3
697.083092E-3
697.013283E-3
697.275925E-3
697.278214E-3
697.214699E-3
697.103691E-3
696.362686E-3
695.561028E-3
694.734764E-3
694.003487E-3
693.663025E-3
693.536568E-3
693.731117E-3
694.133949E-3
694.430351E-3
694.817162E-3
695.320702E-3
695.705795E-3
695.853996E-3
695.791054E-3
695.680618E-3
695.397949E-3
695.158768E-3
694.690132E-3
694.120789E-3
693.843842E-3
693.450165E-3
692.967224E-3
692.555809E-3
692.059135E-3
691.762161E-3
691.350746E-3
691.073227E-3
690.989113E-3
690.676689E-3
690.608025E-3
690.320778E-3
690.226364E-3
690.028954E-3
689.761734E-3
689.812660E-3
689.592361E-3
689.381218E-3
689.309120E-3
689.111137E-3
688.920593E-3
688.756371E-3
688.662529E-3
688.526917E-3
688.350677E-3
688.348961E-3
688.021088E-3
687.937546E-3
687.726974E-3
687.520409E-3
687.417984E-3
687.195396E-3
687.154770E-3
686.790848E-3
686.424065E-3
686.230659E-3
685.927963E-3
685.816383E-3
685.452461E-3
685.200691E-3
685.162354E-3
685.187531E-3
685.464478E-3
685.633278E-3
686.176300E-3
687.349892E-3
689.325714E-3
692.002487E-3
695.229149E-3
698.250389E-3
701.294518E-3
703.612518E-3
705.417824E-3
706.356812E-3
706.549072E-3
706.361389E-3
705.403519E-3
704.181862E-3
702.978516E-3
701.602364E-3
700.520897E-3
699.502373E-3
698.794556E-3
698.260117E-3
697.899055E-3
697.889900E-3
697.725677E-3
697.732544E-3
697.468185E-3
697.087097E-3
696.318626E-3
695.464897E-3
694.751930E-3
694.446373E-3
694.444084E-3
694.777107E-3
694.999695E-3
695.571899E-3
695.880890E-3
696.436501E-3
696.932030E-3
697.184372E-3
697.389221E-3
697.299957E-3
697.147751E-3
697.048187E-3
696.576118E-3
696.204185E-3
695.748711E-3
695.230865E-3
694.886398E-3
694.083023E-3
693.657303E-3
693.221855E-3
692.713165E-3
692.457390E-3
692.167282E-3
691.942978E-3
691.787910E-3
691.552734E-3
691.389084E-3
691.198540E-3
690.985680E-3
690.814590E-3
690.605164E-3
690.295601E-3
690.138817E-3
689.950562E-3
689.858437E-3
689.658165E-3
689.532280E-3
689.407539E-3
689.191818E-3
689.158058E-3
689.018440E-3
688.933182E-3
688.742638E-3
688.588142E-3
688.478851E-3
688.275146E-3
688.247681E-3
687.800789E-3
687.561607E-3
687.230301E-3
686.975670E-3
686.790848E-3
686.350822E-3
686.117935E-3
686.053276E-3
685.992050E-3
686.247253E-3
686.602020E-3
687.542725E-3
689.386940E-3
691.971016E-3
695.272064E-3
698.596573E-3
701.903915E-3
704.929161E-3
707.057190E-3
708.362961E-3
708.764076E-3
708.580971E-3
707.889175E-3
706.564522E-3
705.218697E-3
703.785324E-3
702.509308E-3
701.543999E-3
700.478554E-3
699.849129E-3
699.239159E-3
699.160194E-3
699.079514E-3
699.021149E-3
698.854637E-3
698.589706E-3
698.038101E-3
697.159767E-3
696.158981E-3
695.553589E-3
695.101547E-3
694.979095E-3
695.126724E-3
695.328712E-3
695.911789E-3
696.208763E-3
696.885681E-3
697.516823E-3
697.667313E-3
697.872162E-3
697.696495E-3
697.555733E-3
697.263336E-3
696.799278E-3
696.453667E-3
695.821381E-3
695.258331E-3
694.742775E-3
693.986893E-3
693.597221E-3
693.002701E-3
692.637634E-3
692.286873E-3
691.863441E-3
691.694069E-3
691.320419E-3
691.200256E-3
690.990257E-3
690.637779E-3
690.500450E-3
690.149117E-3
689.940834E-3
689.707947E-3
689.549446E-3
689.295387E-3
689.107132E-3
689.017868E-3
688.818169E-3
688.470268E-3
688.456535E-3
688.278008E-3
688.207054E-3
688.088036E-3
687.906647E-3
687.950134E-3
687.821960E-3
687.785339E-3
687.753296E-3
687.598801E-3
687.574768E-3
687.485504E-3
687.218857E-3
687.143326E-3
686.866951E-3
686.565971E-3
686.117935E-3
685.831261E-3
685.569763E-3
685.198975E-3
684.760666E-3
684.501457E-3
684.443092E-3
684.708595E-3
685.165787E-3
686.541367E-3
688.948059E-3
692.235947E-3
695.978165E-3
699.611664E-3
703.330421E-3
706.452942E-3
708.504868E-3
709.756851E-3
710.033798E-3
709.774590E-3
708.773232E-3
707.426834E-3
706.204033E-3
704.516029E-3
703.270912E-3
702.097893E-3
701.253319E-3
700.714874E-3
700.239944E-3
700.288582E-3
700.404739E-3
700.452232E-3
700.583839E-3
700.328064E-3
700.004768E-3
699.139023E-3
697.944260E-3
696.935463E-3
696.001625E-3
695.627403E-3
695.438004E-3
695.472336E-3
695.831108E-3
696.085739E-3
696.569252E-3
696.951485E-3
697.199249E-3
697.472191E-3
697.459602E-3
697.453308E-3
697.239304E-3
696.934319E-3
696.629906E-3
696.164131E-3
695.677757E-3
695.093536E-3
694.535637E-3
694.258690E-3
693.772888E-3
693.348312E-3
693.025017E-3
692.695999E-3
692.405891E-3
692.033386E-3
691.929245E-3
691.469193E-3
691.241455E-3
691.096687E-3
690.792847E-3
690.643501E-3
690.399170E-3
690.235519E-3
690.133667E-3
689.990044E-3
689.735985E-3
689.611816E-3
689.326859E-3
689.255333E-3
688.862801E-3
688.849068E-3
688.733482E-3
688.599586E-3
688.573265E-3
688.296890E-3
688.291740E-3
688.324356E-3
688.070297E-3
688.105202E-3
687.931824E-3
687.959862E-3
687.798500E-3
687.576485E-3
687.605095E-3
687.235451E-3
687.099838E-3
686.791992E-3
686.322784E-3
686.030960E-3
685.586357E-3
685.390091E-3
685.042191E-3
684.552383E-3
684.641075E-3
684.520340E-3
684.788132E-3
685.542870E-3
687.027168E-3
689.616394E-3
692.824745E-3
696.608162E-3
700.407600E-3
703.740120E-3
706.697845E-3
708.808708E-3
709.842110E-3
710.064125E-3
709.544563E-3
708.539200E-3
707.001686E-3
705.693054E-3
704.117775E-3
702.523613E-3
701.439857E-3
700.349236E-3
699.767876E-3
699.324417E-3
699.058342E-3
699.220848E-3
699.247742E-3
699.312401E-3
698.946190E-3
698.252106E-3
697.503662E-3
696.494293E-3
695.658875E-3
695.072365E-3
694.804573E-3
695.071220E-3
695.066643E-3
695.488358E-3
696.047974E-3
696.390724E-3
696.825600E-3
697.057915E-3
697.258759E-3
697.269058E-3
696.955490E-3
696.770668E-3
696.403885E-3
696.127510E-3
695.724106E-3
695.072937E-3
694.632912E-3
693.873024E-3
693.334579E-3
692.899704E-3
692.547798E-3
692.263985E-3
691.837692E-3
691.529846E-3
691.297531E-3
691.045189E-3
690.902138E-3
690.644646E-3
690.431786E-3
690.225792E-3
689.799500E-3
689.672470E-3
689.540863E-3
689.276505E-3
689.110565E-3
688.821030E-3
688.746643E-3
688.408470E-3
688.233376E-3
688.280296E-3
687.851143E-3
687.765884E-3
687.583351E-3
687.468910E-3
687.518120E-3
687.228584E-3
687.138176E-3
686.934471E-3
686.869812E-3
686.767960E-3
686.658669E-3
686.613464E-3
686.334229E-3
686.230087E-3
685.993195E-3
685.513115E-3
685.249329E-3
684.939766E-3
684.657097E-3
684.350967E-3
684.198761E-3
684.110641E-3
684.078598E-3
684.131813E-3
684.244537E-3
684.931183E-3
686.513901E-3
689.028168E-3
692.317200E-3
695.859718E-3
699.184227E-3
702.493286E-3
705.111694E-3
706.908417E-3
707.916641E-3
707.901192E-3
707.378197E-3
706.202888E-3
704.728889E-3
703.155327E-3
701.490211E-3
700.114059E-3
698.737907E-3
697.802925E-3
697.047615E-3
696.472549E-3
696.443367E-3
696.184731E-3
696.059990E-3
695.937538E-3
695.288658E-3
694.587708E-3
693.741989E-3
692.960358E-3
692.474556E-3
692.032814E-3
692.223358E-3
692.198753E-3
692.713737E-3
693.128586E-3
693.519402E-3
694.189453E-3
694.338799E-3
694.630623E-3
694.868088E-3
694.540787E-3
694.388580E-3
694.169426E-3
693.641853E-3
693.184662E-3
692.562675E-3
692.031670E-3
691.381073E-3
690.722466E-3
690.315056E-3
689.785194E-3
689.307404E-3
688.902283E-3
688.677406E-3
688.600159E-3
688.175583E-3
687.954712E-3
687.705803E-3
687.403679E-3
687.222290E-3
686.859512E-3
686.583138E-3
686.386299E-3
686.024094E-3
685.861015E-3
685.607529E-3
685.360909E-3
685.049057E-3
684.784698E-3
684.776115E-3
684.353828E-3
684.171295E-3
684.025955E-3
683.979034E-3
683.750725E-3
683.540726E-3
683.529854E-3
683.490944E-3
683.287239E-3
683.127594E-3
682.950783E-3
682.963943E-3
682.861519E-3
682.836342E-3
682.806587E-3
682.571411E-3
682.519341E-3
682.600594E-3
682.330513E-3
682.207489E-3
681.943703E-3
681.691360E-3
681.176949E-3
680.887985E-3
680.558395E-3
680.209351E-3
679.990768E-3
679.640579E-3
679.551315E-3
679.609680E-3
679.957581E-3
681.218719E-3
683.541870E-3
686.785126E-3
690.682411E-3
694.599724E-3
698.727036E-3
702.002335E-3
704.775810E-3
706.501579E-3
707.202530E-3
707.184219E-3
706.509590E-3
705.044746E-3
703.470612E-3
701.616669E-3
700.219345E-3
698.725891E-3
697.488213E-3
696.727180E-3
696.033096E-3
696.011925E-3
695.914650E-3
696.010208E-3
696.175575E-3
696.127510E-3
696.177864E-3
695.664024E-3
694.790840E-3
693.874741E-3
692.918015E-3
692.297745E-3
691.860008E-3
691.818810E-3
691.921234E-3
692.164993E-3
692.469978E-3
692.851639E-3
693.260765E-3
693.566895E-3
693.724823E-3
693.766594E-3
693.746567E-3
693.445587E-3
693.228722E-3
692.781258E-3
692.392159E-3
691.956139E-3
691.242599E-3
690.789413E-3
690.142250E-3
689.679337E-3
689.198112E-3
688.825607E-3
688.570404E-3
688.067436E-3
687.734985E-3
687.230873E-3
687.104988E-3
686.850357E-3
686.575127E-3
686.390305E-3
686.229515E-3
686.119080E-3
686.002350E-3
685.770035E-3
685.641861E-3
685.439873E-3
685.059357E-3
684.937477E-3
684.757233E-3
684.671974E-3
684.567833E-3
684.482002E-3
684.449959E-3
684.393883E-3
684.273148E-3
684.053421E-3
683.861732E-3
683.818245E-3
683.535576E-3
683.561325E-3
683.516121E-3
683.381081E-3
683.458900E-3
683.179092E-3
683.020592E-3
682.859230E-3
682.630348E-3
682.624626E-3
682.344818E-3
682.297325E-3
682.081604E-3
681.879044E-3
681.740570E-3
681.259918E-3
680.917740E-3
680.501747E-3
680.022812E-3
679.896355E-3
679.506683E-3
679.276085E-3
679.308128E-3
679.274940E-3
680.025673E-3
681.162071E-3
683.468628E-3
686.790848E-3
690.491867E-3
694.484138E-3
698.122215E-3
701.260185E-3
703.768730E-3
705.220985E-3
705.929947E-3
705.591774E-3
704.792404E-3
703.347015E-3
701.776886E-3
700.271416E-3
698.706436E-3
697.190094E-3
696.162415E-3
695.223427E-3
694.824600E-3
694.402885E-3
694.417763E-3
694.582558E-3
694.579697E-3
694.470978E-3
694.154549E-3
693.607521E-3
692.597008E-3
691.622543E-3
691.006851E-3
690.452957E-3
690.278435E-3
690.305901E-3
690.583992E-3
691.078377E-3
691.497231E-3
692.020226E-3
692.433357E-3
692.593002E-3
692.895699E-3
692.973518E-3
692.815018E-3
692.552376E-3
692.080879E-3
691.723824E-3
691.104698E-3
690.594864E-3
690.025520E-3
689.462471E-3
689.101982E-3
688.459396E-3
687.931824E-3
687.512398E-3
687.076378E-3
686.802864E-3
686.459541E-3
686.072731E-3
685.718536E-3
685.481644E-3
685.312843E-3
684.868813E-3
684.772110E-3
684.584999E-3
684.409904E-3
684.262848E-3
683.921242E-3
683.901787E-3
683.718109E-3
683.299828E-3
683.293533E-3
683.006859E-3
682.975960E-3
682.838631E-3
682.706451E-3
682.677841E-3
682.468414E-3
682.291603E-3
682.224083E-3
682.077599E-3
682.084465E-3
681.921959E-3
681.948280E-3
681.808662E-3
681.609535E-3
681.458473E-3
681.677628E-3
681.458473E-3
681.130600E-3
681.001282E-3
680.912018E-3
680.684853E-3
680.432510E-3
680.277443E-3
679.892349E-3
679.829407E-3
679.310989E-3
679.161072E-3
678.884697E-3
678.566551E-3
678.525352E-3
678.569984E-3
678.613472E-3
679.214859E-3
680.382729E-3
682.586861E-3
685.355759E-3
688.982391E-3
692.650795E-3
695.887756E-3
698.732185E-3
700.906563E-3
702.207756E-3
702.769089E-3
702.291298E-3
701.426697E-3
699.936676E-3
698.386574E-3
696.668243E-3
695.022583E-3
693.744850E-3
692.485428E-3
691.621399E-3
691.125870E-3
690.507317E-3
690.336227E-3
690.265274E-3
690.174294E-3
689.837837E-3
689.110565E-3
688.463402E-3
687.710381E-3
687.367630E-3
687.128448E-3
687.103844E-3
687.341881E-3
687.661743E-3
688.145828E-3
688.827324E-3
689.278793E-3
689.734840E-3
690.015221E-3
690.193748E-3
690.264130E-3
690.011787E-3
689.804649E-3
689.420128E-3
688.994980E-3
688.505173E-3
687.880325E-3
687.300682E-3
686.719322E-3
686.157990E-3
685.647583E-3
685.168076E-3
684.813309E-3
684.461975E-3
684.192467E-3
684.150124E-3
683.795357E-3
683.613968E-3
683.435440E-3
683.117867E-3
682.892418E-3
682.590294E-3
682.422066E-3
682.204056E-3
682.159424E-3
682.001495E-3
681.713104E-3
681.689072E-3
681.500244E-3
681.192970E-3
681.105995E-3
681.007576E-3
680.842209E-3
680.719757E-3
680.480576E-3
680.346107E-3
680.080605E-3
680.152130E-3
680.019951E-3
679.949570E-3
679.746437E-3
679.656601E-3
679.657745E-3
679.686356E-3
679.528427E-3
679.360199E-3
679.209709E-3
679.151917E-3
679.030037E-3
678.961945E-3
678.794861E-3
678.388596E-3
678.258133E-3
677.734566E-3
677.580070E-3
677.215576E-3
676.833344E-3
676.420784E-3
676.119804E-3
675.940704E-3
676.059151E-3
676.371574E-3
677.242470E-3
678.986549E-3
681.803513E-3
685.408401E-3
689.271355E-3
693.159485E-3
696.550369E-3
699.438858E-3
701.533127E-3
702.439499E-3
702.627754E-3
702.060699E-3
700.808716E-3
699.384499E-3
697.745132E-3
696.172142E-3
694.718170E-3
693.605232E-3
692.774391E-3
692.106628E-3
691.917801E-3
691.763306E-3
691.908073E-3
692.109489E-3
692.214203E-3
692.248535E-3
691.977882E-3
691.359901E-3
690.522766E-3
689.447021E-3
688.754654E-3
688.326073E-3
687.942123E-3
688.339233E-3
688.427353E-3
689.005280E-3
689.447021E-3
689.837265E-3
