Notes :


2023-11-04 ¿ÀÈÄ 7:16:35
Volts
Ch : LED 2,
558.357811E-3
558.615875E-3
559.054184E-3
559.704208E-3
560.474396E-3
560.977936E-3
561.354446E-3
561.594772E-3
561.653709E-3
561.681747E-3
561.295509E-3
560.925293E-3
560.368538E-3
559.836388E-3
559.137726E-3
558.449364E-3
557.707787E-3
557.079506E-3
556.604576E-3
556.179428E-3
555.642128E-3
555.293655E-3
555.044746E-3
554.712296E-3
554.399872E-3
554.127502E-3
553.969002E-3
553.812790E-3
553.562737E-3
553.317261E-3
553.071785E-3
552.669525E-3
552.576828E-3
552.425194E-3
552.345085E-3
552.234650E-3
552.191734E-3
551.916504E-3
551.637840E-3
551.406670E-3
551.303673E-3
551.089096E-3
550.790405E-3
550.578117E-3
550.439644E-3
550.253105E-3
550.047684E-3
549.917793E-3
549.680901E-3
549.584770E-3
549.313545E-3
549.227715E-3
549.121284E-3
548.967934E-3
548.763657E-3
548.480988E-3
548.482132E-3
548.127365E-3
547.583771E-3
547.372055E-3
547.164917E-3
546.801567E-3
546.597290E-3
546.463966E-3
546.426201E-3
546.686554E-3
547.005844E-3
548.157120E-3
550.588417E-3
554.232788E-3
558.884811E-3
564.089012E-3
569.482613E-3
574.493980E-3
578.697395E-3
581.431961E-3
582.629013E-3
582.740021E-3
581.808472E-3
580.093002E-3
577.898026E-3
575.519943E-3
573.441696E-3
571.551704E-3
570.021629E-3
569.031715E-3
568.594551E-3
568.331909E-3
568.257523E-3
568.567085E-3
569.031143E-3
569.316673E-3
569.905472E-3
569.539261E-3
568.954468E-3
567.773437E-3
566.453362E-3
565.272331E-3
564.335060E-3
564.084435E-3
563.744545E-3
563.690186E-3
564.068413E-3
564.396286E-3
564.876366E-3
565.302086E-3
565.520096E-3
565.695190E-3
565.771866E-3
565.522385E-3
565.110397E-3
564.514732E-3
564.008331E-3
563.285065E-3
562.564087E-3
561.835098E-3
561.128998E-3
560.430336E-3
559.910202E-3
559.423828E-3
558.845329E-3
558.382988E-3
557.975578E-3
557.623672E-3
557.195663E-3
556.732750E-3
556.153107E-3
556.063271E-3
555.706787E-3
555.443001E-3
555.235291E-3
554.930878E-3
554.696274E-3
554.436493E-3
554.274559E-3
554.117775E-3
553.895760E-3
553.772163E-3
553.467178E-3
553.356171E-3
553.165627E-3
553.041458E-3
552.919579E-3
552.682686E-3
552.597427E-3
552.349091E-3
552.171707E-3
552.063560E-3
551.874733E-3
551.799202E-3
551.618958E-3
551.366615E-3
551.069641E-3
550.944328E-3
550.436211E-3
550.055695E-3
549.549866E-3
549.277496E-3
548.785973E-3
548.472977E-3
548.359108E-3
548.166847E-3
548.111343E-3
548.122787E-3
548.327065E-3
549.140167E-3
550.986099E-3
554.113770E-3
558.117485E-3
562.665367E-3
567.886162E-3
572.682381E-3
576.607132E-3
579.218102E-3
580.411148E-3
580.273247E-3
579.133415E-3
577.300072E-3
574.950600E-3
572.795677E-3
570.628166E-3
568.825722E-3
567.323685E-3
566.225624E-3
565.624809E-3
565.316963E-3
565.172768E-3
565.571022E-3
565.822220E-3
565.933800E-3
565.898323E-3
565.288353E-3
564.279556E-3
563.078499E-3
562.067986E-3
561.382484E-3
560.783386E-3
560.928154E-3
561.366463E-3
561.944389E-3
562.703133E-3
563.393211E-3
564.003754E-3
564.288139E-3
564.542770E-3
564.598846E-3
564.102745E-3
563.591194E-3
563.092232E-3
562.443352E-3
561.871147E-3
561.181641E-3
560.642624E-3
560.107613E-3
559.638405E-3
559.153748E-3
558.770943E-3
558.391571E-3
558.015633E-3
557.720947E-3
557.532692E-3
557.002831E-3
556.909561E-3
556.665802E-3
556.416321E-3
556.219482E-3
555.920792E-3
555.802345E-3
555.603218E-3
555.427551E-3
555.115128E-3
554.984665E-3
554.929733E-3
554.709435E-3
554.566956E-3
554.553795E-3
554.383278E-3
554.293442E-3
554.183006E-3
554.034805E-3
554.104614E-3
554.051399E-3
554.050255E-3
553.773308E-3
553.699493E-3
553.538132E-3
553.266335E-3
553.044319E-3
552.541351E-3
552.214622E-3
551.917648E-3
551.655006E-3
551.345444E-3
551.021004E-3
550.885391E-3
550.859070E-3
550.836754E-3
550.936890E-3
551.251602E-3
552.049828E-3
553.639984E-3
556.444359E-3
560.301018E-3
564.952469E-3
569.972420E-3
574.892235E-3
579.306793E-3
582.377243E-3
584.085846E-3
584.616280E-3
583.871841E-3
582.329178E-3
580.485535E-3
578.273392E-3
576.172829E-3
574.399567E-3
572.954178E-3
571.921349E-3
571.262169E-3
571.088219E-3
571.131706E-3
571.319389E-3
571.533966E-3
571.915627E-3
572.088432E-3
571.741676E-3
570.805550E-3
569.693184E-3
568.563080E-3
567.703056E-3
567.075920E-3
566.798401E-3
567.091370E-3
567.470169E-3
568.008614E-3
568.697548E-3
569.190216E-3
569.748688E-3
570.010757E-3
570.000458E-3
569.805908E-3
569.308090E-3
568.847466E-3
568.245506E-3
567.457581E-3
566.643333E-3
565.904045E-3
565.289497E-3
564.543343E-3
563.822365E-3
563.424683E-3
563.083076E-3
562.613297E-3
562.255669E-3
561.926651E-3
561.641693E-3
561.364746E-3
561.147308E-3
560.890388E-3
560.647202E-3
560.413170E-3
560.157394E-3
560.037804E-3
559.773445E-3
559.680176E-3
559.531975E-3
559.316826E-3
559.262466E-3
559.077644E-3
558.978081E-3
558.919144E-3
558.707428E-3
558.633041E-3
558.362389E-3
558.205032E-3
558.056831E-3
557.778740E-3
557.687759E-3
557.497787E-3
557.403374E-3
557.271194E-3
557.144165E-3
557.015419E-3
557.008553E-3
556.781387E-3
556.544495E-3
556.248665E-3
556.101036E-3
555.755424E-3
555.381775E-3
555.114555E-3
554.786682E-3
554.367256E-3
554.225922E-3
554.019356E-3
554.021645E-3
554.290581E-3
554.645348E-3
555.395508E-3
557.199097E-3
560.410309E-3
564.253807E-3
569.429970E-3
574.809265E-3
579.995155E-3
584.419441E-3
587.466431E-3
589.238548E-3
589.477730E-3
588.626862E-3
587.263870E-3
585.088921E-3
582.936287E-3
580.876350E-3
579.192924E-3
577.831078E-3
576.823997E-3
576.306152E-3
576.211739E-3
576.662636E-3
577.008247E-3
577.291489E-3
577.724075E-3
577.871704E-3
577.650261E-3
576.843452E-3
575.464439E-3
573.985863E-3
572.598839E-3
571.360588E-3
570.610428E-3
570.063972E-3
570.066833E-3
570.292854E-3
570.747757E-3
571.531677E-3
571.846390E-3
572.202301E-3
572.317314E-3
572.390556E-3
572.099876E-3
571.536255E-3
570.974922E-3
570.269394E-3
569.693184E-3
568.937874E-3
568.088150E-3
567.356300E-3
566.664505E-3
566.017914E-3
565.498352E-3
565.014839E-3
564.622307E-3
564.188004E-3
563.751984E-3
563.467026E-3
563.077354E-3
562.778091E-3
562.561798E-3
562.212753E-3
561.919212E-3
561.723518E-3
561.638260E-3
561.377907E-3
561.166763E-3
561.038589E-3
560.852623E-3
560.737610E-3
560.548210E-3
560.298157E-3
560.161972E-3
559.800911E-3
559.697342E-3
559.510231E-3
559.396935E-3
559.117699E-3
558.860207E-3
558.575249E-3
558.257103E-3
558.060837E-3
557.847404E-3
557.662582E-3
557.604218E-3
557.510948E-3
557.496643E-3
557.486916E-3
557.354164E-3
557.221413E-3
557.013130E-3
556.753349E-3
556.587410E-3
556.150818E-3
555.839539E-3
555.447006E-3
555.125999E-3
554.893684E-3
554.493713E-3
554.368401E-3
554.394150E-3
554.390144E-3
554.521179E-3
554.859352E-3
556.159401E-3
558.539772E-3
562.213898E-3
566.659927E-3
571.823502E-3
576.952744E-3
581.480598E-3
584.967613E-3
587.109947E-3
587.681007E-3
587.002373E-3
585.479736E-3
583.406067E-3
581.181335E-3
579.035568E-3
577.168465E-3
575.577164E-3
574.329185E-3
573.758698E-3
573.368454E-3
573.341560E-3
573.742676E-3
574.037933E-3
574.415016E-3
574.496269E-3
574.231339E-3
573.385048E-3
572.148514E-3
570.831299E-3
569.708633E-3
568.985367E-3
568.613434E-3
568.671799E-3
569.120407E-3
569.789886E-3
570.505714E-3
571.052742E-3
571.275330E-3
571.610069E-3
571.610069E-3
571.524811E-3
571.112251E-3
570.681381E-3
570.125198E-3
569.396210E-3
568.763924E-3
568.203163E-3
567.647552E-3
567.022705E-3
566.435623E-3
566.069984E-3
565.673447E-3
565.264320E-3
564.971352E-3
564.686394E-3
564.230347E-3
564.081001E-3
563.761139E-3
563.589478E-3
563.257599E-3
563.133430E-3
562.974358E-3
562.845612E-3
562.759781E-3
562.611580E-3
562.469673E-3
562.365532E-3
562.133789E-3
562.037659E-3
561.945534E-3
561.820793E-3
561.559296E-3
561.343575E-3
561.074638E-3
560.970497E-3
560.796547E-3
560.679245E-3
560.678101E-3
560.605431E-3
560.410309E-3
560.374832E-3
560.284996E-3
560.129929E-3
559.969139E-3
559.693909E-3
559.545135E-3
559.248161E-3
559.068489E-3
558.756065E-3
558.554649E-3
558.112335E-3
557.589340E-3
557.292938E-3
557.191658E-3
556.995392E-3
556.963921E-3
557.063484E-3
557.324982E-3
557.867432E-3
559.590912E-3
562.583542E-3
566.496277E-3
571.153450E-3
576.156807E-3
581.056595E-3
585.328674E-3
588.321877E-3
589.746094E-3
590.178680E-3
589.370728E-3
587.846375E-3
585.837936E-3
583.587456E-3
581.547546E-3
579.658699E-3
578.225899E-3
577.155304E-3
576.362801E-3
576.220894E-3
576.240921E-3
576.469231E-3
576.747894E-3
576.998520E-3
577.166176E-3
576.664352E-3
575.536537E-3
574.459076E-3
573.228836E-3
572.147942E-3
571.450424E-3
571.032143E-3
571.052742E-3
571.251869E-3
571.883011E-3
572.392273E-3
572.945595E-3
573.461151E-3
573.632812E-3
573.607063E-3
573.378754E-3
572.931290E-3
572.504425E-3
571.803474E-3
571.028137E-3
570.200157E-3
569.460869E-3
568.581963E-3
567.864418E-3
567.158890E-3
566.495705E-3
565.889168E-3
565.389061E-3
564.930153E-3
564.538193E-3
564.230919E-3
563.848114E-3
563.608360E-3
563.372040E-3
563.204384E-3
562.938309E-3
562.919998E-3
562.822723E-3
562.669945E-3
562.681389E-3
562.589264E-3
562.578964E-3
562.608719E-3
562.489700E-3
562.533760E-3
562.548065E-3
562.383270E-3
562.269974E-3
562.189865E-3
562.183571E-3
561.907196E-3
561.732101E-3
561.585045E-3
561.177635E-3
561.120987E-3
560.908127E-3
560.757065E-3
560.592842E-3
560.558510E-3
560.544777E-3
560.346222E-3
560.254097E-3
560.095596E-3
560.013199E-3
559.964561E-3
559.595490E-3
559.432411E-3
559.118271E-3
558.738327E-3
558.235359E-3
557.882881E-3
557.526398E-3
557.042313E-3
556.774521E-3
556.537628E-3
556.467247E-3
556.563377E-3
556.847191E-3
557.886314E-3
560.159683E-3
563.620377E-3
568.206596E-3
573.458862E-3
578.777504E-3
583.801460E-3
587.790871E-3
590.432167E-3
591.491890E-3
591.549683E-3
590.512848E-3
588.716125E-3
586.608696E-3
584.341049E-3
582.285690E-3
580.490112E-3
579.127121E-3
578.273392E-3
577.867126E-3
577.652550E-3
577.927208E-3
578.316879E-3
578.783226E-3
579.251289E-3
579.456711E-3
579.249001E-3
578.244781E-3
577.134705E-3
575.800896E-3
574.250793E-3
573.168755E-3
572.274971E-3
572.037506E-3
571.961975E-3
572.187996E-3
572.952461E-3
573.425102E-3
573.908615E-3
574.139786E-3
574.301720E-3
574.335480E-3
574.027061E-3
573.731232E-3
573.108673E-3
572.420311E-3
571.776581E-3
571.037292E-3
570.351791E-3
569.618225E-3
568.875504E-3
568.227196E-3
567.701340E-3
567.195511E-3
566.576958E-3
566.012192E-3
565.549850E-3
565.073204E-3
564.693260E-3
564.255524E-3
563.966560E-3
563.725662E-3
563.291931E-3
562.958908E-3
562.656784E-3
562.354660E-3
562.114334E-3
561.862564E-3
561.569023E-3
561.349297E-3
561.245155E-3
560.952759E-3
560.771942E-3
560.569382E-3
560.303879E-3
559.973145E-3
559.850693E-3
559.564018E-3
559.313965E-3
559.026146E-3
558.730888E-3
558.558655E-3
558.315468E-3
558.120346E-3
557.962990E-3
557.818222E-3
557.824516E-3
557.835960E-3
557.965851E-3
557.759857E-3
557.524109E-3
557.482910E-3
557.396507E-3
557.212257E-3
557.048035E-3
556.729889E-3
556.430626E-3
556.094170E-3
555.818367E-3
555.420685E-3
554.971504E-3
554.853058E-3
554.806137E-3
554.726601E-3
554.692268E-3
554.889679E-3
555.942535E-3
558.044243E-3
561.351013E-3
565.682602E-3
570.669937E-3
575.844383E-3
580.546188E-3
584.177399E-3
586.471939E-3
587.374878E-3
586.952591E-3
585.613060E-3
583.714485E-3
581.476593E-3
579.133415E-3
576.999092E-3
575.302505E-3
573.727798E-3
572.719574E-3
572.058678E-3
572.074127E-3
572.039795E-3
572.343063E-3
572.729874E-3
573.001099E-3
572.985077E-3
572.535896E-3
571.586037E-3
570.333481E-3
569.053459E-3
568.149376E-3
567.602921E-3
567.437553E-3
567.727089E-3
568.396568E-3
569.023132E-3
569.500923E-3
569.927788E-3
570.231628E-3
570.371246E-3
570.204735E-3
569.887733E-3
569.528389E-3
569.115257E-3
568.581390E-3
567.946815E-3
567.317390E-3
566.748619E-3
566.178703E-3
565.552711E-3
565.351868E-3
564.688110E-3
564.232063E-3
563.841820E-3
563.468742E-3
563.144302E-3
562.834740E-3
562.525177E-3
562.387276E-3
562.087440E-3
561.892319E-3
561.672592E-3
561.482048E-3
561.341858E-3
561.139297E-3
560.869789E-3
560.664368E-3
560.559082E-3
560.754204E-3
560.420609E-3
560.242653E-3
560.072708E-3
559.949112E-3
559.859848E-3
559.666443E-3
559.534836E-3
559.218407E-3
558.819008E-3
558.733749E-3
558.555794E-3
558.420181E-3
558.254814E-3
558.120346E-3
558.078575E-3
557.946968E-3
557.902336E-3
557.813644E-3
557.515526E-3
557.287788E-3
556.869507E-3
556.558228E-3
556.196022E-3
555.868149E-3
555.552864E-3
555.267334E-3
555.203247E-3
554.996109E-3
554.834747E-3
554.887390E-3
555.138016E-3
555.907631E-3
557.691193E-3
560.754204E-3
564.805984E-3
569.574165E-3
574.571228E-3
579.459000E-3
583.583450E-3
586.413002E-3
587.758255E-3
587.955666E-3
586.871910E-3
585.266876E-3
583.267593E-3
581.072044E-3
578.936005E-3
576.943588E-3
575.388336E-3
574.334335E-3
573.582458E-3
573.148155E-3
573.152733E-3
573.430824E-3
573.874855E-3
574.159813E-3
574.382973E-3
574.240494E-3
573.621368E-3
572.553062E-3
571.192932E-3
570.517731E-3
569.668579E-3
569.201660E-3
569.021988E-3
569.184494E-3
569.606781E-3
570.038795E-3
570.625305E-3
571.239281E-3
571.496201E-3
571.713638E-3
571.765709E-3
571.616364E-3
571.315384E-3
570.685959E-3
570.165253E-3
569.556427E-3
569.122124E-3
568.291855E-3
567.588043E-3
567.070770E-3
566.460228E-3
566.053963E-3
565.629387E-3
565.264893E-3
565.045166E-3
564.878654E-3
564.573669E-3
564.401436E-3
564.151955E-3
563.935089E-3
563.742256E-3
563.568306E-3
563.517952E-3
563.285637E-3
563.207245E-3
563.064194E-3
563.041306E-3
562.924576E-3
562.767220E-3
562.735176E-3
562.567520E-3
562.472534E-3
562.239647E-3
562.091446E-3
561.919785E-3
561.664009E-3
561.470604E-3
561.321831E-3
560.949898E-3
560.668373E-3
560.242653E-3
560.033798E-3
559.899902E-3
559.683609E-3
559.518814E-3
559.400940E-3
559.239006E-3
559.057617E-3
558.860779E-3
558.714294E-3
558.469963E-3
558.136368E-3
557.937241E-3
557.540131E-3
557.171059E-3
556.876373E-3
556.501579E-3
556.193161E-3
556.062126E-3
555.753708E-3
555.659294E-3
555.753136E-3
556.350517E-3
557.858276E-3
560.672379E-3
564.724159E-3
569.467163E-3
574.603844E-3
579.721642E-3
584.244347E-3
587.533379E-3
589.443398E-3
589.964104E-3
589.365005E-3
587.871552E-3
585.886002E-3
583.561707E-3
581.495476E-3
579.404068E-3
577.666283E-3
576.457214E-3
575.712204E-3
575.305367E-3
575.185204E-3
575.497055E-3
575.964546E-3
576.243210E-3
576.620293E-3
576.568222E-3
576.471519E-3
575.690460E-3
574.547768E-3
573.529243E-3
572.368813E-3
571.559715E-3
570.971489E-3
570.878220E-3
570.968056E-3
571.359444E-3
571.750832E-3
572.278404E-3
572.734451E-3
572.958755E-3
573.026276E-3
573.023987E-3
572.729301E-3
572.320747E-3
571.772575E-3
571.086502E-3
570.424461E-3
569.779015E-3
569.008827E-3
568.362808E-3
