Notes :


2023-11-04 ¿ÀÈÄ 10:12:49
Volts
Ch : LED 2,
438.696671E-3
438.215446E-3
437.813759E-3
437.389183E-3
436.942863E-3
436.506271E-3
436.192703E-3
435.787582E-3
435.451698E-3
435.146141E-3
434.763908E-3
434.699821E-3
434.384537E-3
434.227753E-3
434.053802E-3
433.915329E-3
433.807182E-3
433.616066E-3
433.679008E-3
433.609200E-3
433.442688E-3
433.347130E-3
433.245277E-3
433.209229E-3
433.095360E-3
433.069038E-3
432.973480E-3
432.857895E-3
432.678223E-3
432.702827E-3
432.741165E-3
432.671356E-3
432.576370E-3
432.610703E-3
432.507133E-3
432.443047E-3
432.421875E-3
432.420731E-3
432.264519E-3
432.101440E-3
431.924057E-3
431.723213E-3
431.518936E-3
431.380463E-3
430.997086E-3
430.714989E-3
430.404282E-3
430.426025E-3
430.855751E-3
431.945801E-3
433.894730E-3
436.434174E-3
439.448547E-3
442.711258E-3
445.852661E-3
448.406410E-3
450.510406E-3
451.814461E-3
452.234459E-3
451.989555E-3
451.199341E-3
450.247192E-3
449.275017E-3
448.079681E-3
447.176743E-3
446.417999E-3
446.075249E-3
445.736504E-3
445.651245E-3
445.684433E-3
445.683861E-3
446.021461E-3
445.959663E-3
445.976830E-3
445.873833E-3
445.569992E-3
444.982910E-3
444.188118E-3
443.326950E-3
442.589378E-3
442.216301E-3
441.809464E-3
441.676712E-3
441.615486E-3
441.680145E-3
441.824341E-3
441.958237E-3
442.012024E-3
442.012596E-3
441.624641E-3
441.652679E-3
441.332245E-3
441.057587E-3
440.701675E-3
440.292549E-3
439.846802E-3
439.565849E-3
439.125252E-3
438.859749E-3
438.392830E-3
438.067818E-3
437.798882E-3
437.499046E-3
437.369156E-3
437.096214E-3
436.945152E-3
436.740303E-3
436.508560E-3
436.493111E-3
436.260223E-3
436.161232E-3
436.011314E-3
435.906601E-3
435.723495E-3
435.627365E-3
435.525513E-3
435.336113E-3
435.329819E-3
435.264587E-3
435.111809E-3
435.029984E-3
434.927559E-3
434.767914E-3
434.723854E-3
434.667778E-3
434.604836E-3
434.371376E-3
434.169960E-3
434.017754E-3
433.806038E-3
433.684731E-3
433.576012E-3
433.387184E-3
433.329391E-3
433.308220E-3
433.246994E-3
433.141708E-3
433.059311E-3
432.959175E-3
432.760048E-3
432.653618E-3
432.580376E-3
432.271385E-3
432.044792E-3
431.837654E-3
431.646538E-3
431.352997E-3
431.268883E-3
431.367302E-3
431.898308E-3
433.481026E-3
435.557556E-3
438.448334E-3
441.524506E-3
444.999504E-3
448.026466E-3
450.701523E-3
452.399826E-3
453.437233E-3
453.754807E-3
453.152847E-3
452.184677E-3
451.013947E-3
449.735069E-3
448.658752E-3
447.620201E-3
446.927834E-3
446.447754E-3
446.003151E-3
445.958519E-3
445.891571E-3
446.044350E-3
446.256065E-3
446.304703E-3
446.384811E-3
446.181679E-3
445.835495E-3
445.373154E-3
444.516563E-3
443.822479E-3
443.189049E-3
442.838860E-3
442.670631E-3
442.669487E-3
442.575073E-3
442.614555E-3
442.917824E-3
442.835999E-3
442.849159E-3
442.698097E-3
442.585945E-3
442.348480E-3
441.977119E-3
441.525650E-3
441.098785E-3
440.944290E-3
440.315437E-3
439.884567E-3
439.513206E-3
439.197922E-3
438.912392E-3
438.668060E-3
438.328171E-3
438.071251E-3
437.984276E-3
437.576866E-3
437.351418E-3
437.198067E-3
437.030411E-3
436.909676E-3
436.772919E-3
436.769485E-3
436.429024E-3
436.339760E-3
436.141777E-3
436.028481E-3
435.955811E-3
435.845375E-3
435.736084E-3
435.633659E-3
435.288620E-3
435.318947E-3
435.219383E-3
435.146141E-3
435.158730E-3
435.014534E-3
435.017395E-3
434.959030E-3
434.791374E-3
434.442329E-3
434.324455E-3
434.258652E-3
433.950806E-3
433.716202E-3
433.498764E-3
433.189201E-3
432.831573E-3
432.541466E-3
432.506561E-3
432.349205E-3
432.459068E-3
433.187485E-3
434.701538E-3
437.123108E-3
440.000153E-3
443.014526E-3
445.975685E-3
448.484230E-3
450.290108E-3
451.348686E-3
451.751518E-3
451.463127E-3
450.593376E-3
449.434090E-3
448.104858E-3
446.958160E-3
446.006012E-3
445.117950E-3
444.474220E-3
444.071960E-3
443.784714E-3
443.714333E-3
443.676567E-3
443.703461E-3
443.765259E-3
443.462563E-3
443.241119E-3
442.655182E-3
442.011452E-3
441.313362E-3
440.770912E-3
440.447617E-3
440.285683E-3
440.400696E-3
440.419579E-3
440.797806E-3
441.031265E-3
441.197205E-3
441.230392E-3
441.271019E-3
441.154861E-3
441.005516E-3
440.595245E-3
440.293694E-3
439.740944E-3
439.228249E-3
438.820839E-3
438.370514E-3
437.903023E-3
437.611771E-3
437.025261E-3
436.821556E-3
436.657333E-3
436.424446E-3
436.182976E-3
436.039352E-3
435.873985E-3
435.655403E-3
435.569000E-3
435.484886E-3
435.285759E-3
435.139847E-3
435.023689E-3
434.897232E-3
434.831429E-3
434.694099E-3
434.612274E-3
434.605408E-3
434.632301E-3
434.366226E-3
434.256363E-3
434.251785E-3
434.130478E-3
433.911324E-3
433.811188E-3
433.764839E-3
433.699608E-3
433.418083E-3
433.466148E-3
433.387184E-3
433.417511E-3
433.386612E-3
433.292770E-3
433.165169E-3
433.059311E-3
432.843018E-3
432.480812E-3
432.412720E-3
432.152939E-3
431.930351E-3
431.682014E-3
431.580734E-3
431.740379E-3
432.439041E-3
434.057236E-3
436.269951E-3
439.310646E-3
442.524147E-3
445.893860E-3
448.849869E-3
451.106071E-3
452.713966E-3
453.385735E-3
453.381157E-3
453.043556E-3
451.999855E-3
450.976753E-3
449.799728E-3
448.796654E-3
447.949791E-3
447.352409E-3
446.940422E-3
446.858025E-3
446.812820E-3
446.895218E-3
447.005081E-3
447.149849E-3
447.253990E-3
447.132683E-3
446.927834E-3
446.151352E-3
445.552254E-3
444.727135E-3
444.134903E-3
443.573570E-3
443.208504E-3
443.103218E-3
443.110657E-3
443.168449E-3
443.256569E-3
443.309212E-3
443.427658E-3
443.276596E-3
443.161011E-3
442.922974E-3
442.658615E-3
442.339325E-3
441.823769E-3
441.376877E-3
441.010094E-3
440.514565E-3
440.020752E-3
439.671707E-3
439.331818E-3
439.082909E-3
438.646317E-3
438.482094E-3
438.408279E-3
438.027763E-3
437.672424E-3
437.543678E-3
437.354279E-3
437.169456E-3
437.055588E-3
436.950302E-3
436.858177E-3
436.623001E-3
436.473083E-3
436.305428E-3
436.273384E-3
436.135483E-3
435.993004E-3
435.911179E-3
435.787582E-3
435.712624E-3
435.696030E-3
435.554123E-3
435.380745E-3
435.108376E-3
435.005379E-3
434.789658E-3
434.731293E-3
434.595680E-3
434.418869E-3
434.518433E-3
434.397125E-3
434.248924E-3
434.055519E-3
434.054947E-3
433.900452E-3
433.734512E-3
433.596611E-3
433.374023E-3
433.048439E-3
432.864189E-3
432.543182E-3
432.239342E-3
432.025337E-3
431.907463E-3
432.061958E-3
432.662773E-3
434.132767E-3
436.404419E-3
439.385605E-3
442.510414E-3
445.659828E-3
448.633003E-3
450.922394E-3
452.705383E-3
453.575134E-3
453.577995E-3
452.973175E-3
452.008438E-3
450.853157E-3
449.681282E-3
448.600960E-3
447.775841E-3
447.104073E-3
446.892929E-3
446.572495E-3
446.494102E-3
446.522141E-3
446.634865E-3
446.739578E-3
446.800232E-3
446.787071E-3
446.483231E-3
446.300697E-3
445.457840E-3
444.633865E-3
443.783569E-3
443.209648E-3
442.831421E-3
442.646027E-3
442.593384E-3
442.643738E-3
442.753601E-3
442.881203E-3
442.989922E-3
443.008804E-3
442.922401E-3
442.785645E-3
442.471504E-3
442.091560E-3
441.735649E-3
441.590881E-3
441.024971E-3
440.522575E-3
440.118599E-3
439.821053E-3
439.397049E-3
439.112663E-3
438.871765E-3
438.582802E-3
438.381958E-3
438.221169E-3
438.071251E-3
437.818336E-3
437.671852E-3
437.564278E-3
437.503624E-3
437.502480E-3
437.285614E-3
437.195206E-3
437.024117E-3
436.988640E-3
436.945724E-3
436.814690E-3
436.837006E-3
436.680794E-3
436.804390E-3
436.712837E-3
436.629868E-3
436.528587E-3
436.445618E-3
436.268234E-3
436.124611E-3
435.977554E-3
435.667992E-3
435.265160E-3
435.042000E-3
434.730721E-3
434.547043E-3
434.331322E-3
434.353065E-3
434.729004E-3
435.718346E-3
437.439537E-3
439.807892E-3
442.632866E-3
445.705605E-3
448.455620E-3
450.926399E-3
452.718544E-3
453.742218E-3
454.140472E-3
453.814888E-3
453.170586E-3
452.051353E-3
450.898933E-3
449.687576E-3
448.829269E-3
448.101997E-3
447.602463E-3
447.323227E-3
447.111511E-3
447.011948E-3
447.058296E-3
447.017097E-3
447.090912E-3
446.969604E-3
446.638870E-3
445.993423E-3
445.148849E-3
444.332314E-3
443.635941E-3
443.139839E-3
442.927551E-3
442.715836E-3
442.911530E-3
443.061447E-3
443.184471E-3
443.254852E-3
443.383026E-3
443.221664E-3
443.155289E-3
443.025398E-3
442.775345E-3
442.433167E-3
442.090416E-3
441.578293E-3
441.130257E-3
440.633011E-3
440.116882E-3
439.811897E-3
439.449692E-3
439.121246E-3
438.884926E-3
438.594246E-3
438.363647E-3
438.294411E-3
437.941933E-3
437.820625E-3
437.667274E-3
437.498474E-3
437.310219E-3
437.197495E-3
437.154007E-3
437.010956E-3
436.857605E-3
436.801529E-3
436.696815E-3
436.609840E-3
436.614990E-3
436.565781E-3
436.518860E-3
436.514854E-3
436.440468E-3
436.475945E-3
436.361504E-3
436.243629E-3
436.067390E-3
435.977554E-3
435.670280E-3
435.445404E-3
435.135269E-3
434.913254E-3
434.376526E-3
434.234619E-3
434.029770E-3
434.056664E-3
434.457207E-3
435.736656E-3
437.655258E-3
440.269661E-3
443.369865E-3
446.593094E-3
449.452972E-3
451.824188E-3
453.457260E-3
454.324150E-3
454.345322E-3
453.795433E-3
452.721977E-3
451.462555E-3
450.222015E-3
448.910522E-3
447.834778E-3
446.941566E-3
446.360207E-3
446.021461E-3
445.844650E-3
445.817184E-3
445.730782E-3
445.739365E-3
445.694160E-3
445.455551E-3
445.006371E-3
444.269371E-3
443.548965E-3
442.999649E-3
442.541313E-3
442.434311E-3
442.438316E-3
442.572784E-3
442.799950E-3
443.134117E-3
443.302345E-3
443.555260E-3
443.555260E-3
443.545532E-3
443.257713E-3
442.958450E-3
442.543030E-3
442.074966E-3
441.508484E-3
440.971184E-3
440.534592E-3
440.091705E-3
439.616776E-3
439.332390E-3
438.947868E-3
438.742447E-3
438.486671E-3
438.260078E-3
437.998581E-3
437.743378E-3
437.472725E-3
437.063026E-3
437.145424E-3
436.978912E-3
436.919975E-3
436.818123E-3
436.749458E-3
436.586380E-3
436.478806E-3
436.409569E-3
436.092567E-3
436.145210E-3
436.174965E-3
436.133194E-3
436.121750E-3
436.085129E-3
436.070251E-3
436.049080E-3
436.045647E-3
436.069679E-3
435.819054E-3
435.611916E-3
435.544968E-3
435.276031E-3
435.005379E-3
434.679222E-3
434.314728E-3
434.070969E-3
434.165382E-3
434.277534E-3
435.246277E-3
437.082481E-3
439.645958E-3
442.821693E-3
446.239471E-3
449.638367E-3
452.425575E-3
454.969025E-3
456.232452E-3
456.750298E-3
456.531143E-3
455.719185E-3
454.576492E-3
453.214073E-3
452.094269E-3
450.866890E-3
449.927902E-3
449.300766E-3
448.804665E-3
448.562050E-3
448.448753E-3
448.493958E-3
448.575783E-3
448.736000E-3
448.528290E-3
448.218155E-3
447.771263E-3
447.088051E-3
446.212006E-3
445.471001E-3
444.975471E-3
444.634438E-3
444.435883E-3
444.542885E-3
444.675064E-3
444.849014E-3
445.020676E-3
445.103073E-3
445.139122E-3
445.092773E-3
444.886780E-3
444.549751E-3
444.254494E-3
443.768692E-3
443.380737E-3
442.900658E-3
442.495537E-3
441.975975E-3
441.596031E-3
441.246986E-3
440.837860E-3
440.581512E-3
440.296555E-3
440.017319E-3
439.723778E-3
439.458275E-3
439.380455E-3
439.117241E-3
439.075470E-3
438.862610E-3
438.732147E-3
438.687515E-3
438.563347E-3
438.455200E-3
438.257790E-3
438.234901E-3
438.138199E-3
438.068390E-3
438.065529E-3
437.924767E-3
437.766266E-3
437.654686E-3
437.552834E-3
437.397194E-3
437.263298E-3
437.209511E-3
437.056160E-3
437.022400E-3
436.892509E-3
436.883354E-3
436.814117E-3
436.686516E-3
436.467934E-3
436.320305E-3
436.116600E-3
435.949516E-3
435.661125E-3
435.360718E-3
435.220528E-3
434.891510E-3
434.600830E-3
434.370232E-3
434.205437E-3
434.268951E-3
434.650612E-3
435.824203E-3
437.988281E-3
440.942574E-3
444.446182E-3
448.111153E-3
451.835632E-3
455.053711E-3
457.586861E-3
458.940697E-3
459.327507E-3
458.991623E-3
457.928467E-3
456.559181E-3
454.934692E-3
453.417206E-3
452.180672E-3
451.210785E-3
450.377083E-3
449.833488E-3
449.642944E-3
449.525642E-3
449.470711E-3
449.575424E-3
449.661827E-3
449.617195E-3
449.452400E-3
449.057579E-3
448.495102E-3
447.764397E-3
447.096062E-3
446.574211E-3
446.238899E-3
446.101570E-3
445.957375E-3
446.092987E-3
446.204567E-3
446.343040E-3
446.414566E-3
446.456337E-3
446.534157E-3
446.369934E-3
446.054649E-3
445.660400E-3
445.010948E-3
444.729996E-3
444.408417E-3
443.823051E-3
443.351555E-3
442.914391E-3
442.484665E-3
442.138481E-3
441.810036E-3
441.602325E-3
441.231537E-3
440.864182E-3
440.642166E-3
440.304565E-3
440.130615E-3
439.940071E-3
439.750671E-3
439.616203E-3
439.525223E-3
439.332390E-3
439.258003E-3
439.062881E-3
438.970757E-3
438.912392E-3
438.845444E-3
438.751602E-3
438.540459E-3
438.450050E-3
438.300705E-3
438.174820E-3
438.104439E-3
437.931633E-3
437.846375E-3
437.730217E-3
437.428665E-3
437.405205E-3
437.301636E-3
437.341118E-3
437.259293E-3
436.995506E-3
436.919403E-3
436.672211E-3
436.515999E-3
436.438179E-3
436.104584E-3
435.952377E-3
435.617638E-3
435.436821E-3
435.243416E-3
434.943008E-3
434.775352E-3
434.601402E-3
434.526443E-3
434.634590E-3
435.449982E-3
437.309074E-3
439.894295E-3
443.256569E-3
446.800804E-3
450.471497E-3
453.812599E-3
456.735992E-3
458.488083E-3
459.257126E-3
459.005356E-3
458.145905E-3
456.673622E-3
455.060577E-3
453.396034E-3
451.807594E-3
450.549889E-3
449.550247E-3
448.835564E-3
448.381805E-3
448.080826E-3
447.996712E-3
448.011589E-3
448.130035E-3
448.152924E-3
447.915459E-3
447.537804E-3
447.034836E-3
446.369362E-3
445.716476E-3
445.376587E-3
445.178032E-3
445.096779E-3
445.141983E-3
445.467567E-3
445.630074E-3
445.879555E-3
446.076393E-3
446.175385E-3
446.143341E-3
446.026611E-3
445.903587E-3
445.432091E-3
444.902229E-3
444.383240E-3
443.889999E-3
443.319511E-3
442.909241E-3
442.500114E-3
442.082405E-3
441.555977E-3
441.220093E-3
440.963745E-3
440.806961E-3
440.504265E-3
440.225029E-3
440.011597E-3
439.780426E-3
439.629936E-3
439.393044E-3
439.263153E-3
439.127541E-3
438.961601E-3
438.904381E-3
438.738441E-3
438.567924E-3
438.483238E-3
438.403702E-3
438.036346E-3
438.117027E-3
438.075256E-3
438.071251E-3
437.888718E-3
437.752533E-3
437.592888E-3
437.499046E-3
437.356567E-3
437.347412E-3
437.131119E-3
436.909676E-3
436.730576E-3
436.586380E-3
436.386108E-3
436.267662E-3
436.162949E-3
436.009026E-3
435.757828E-3
435.436821E-3
435.213661E-3
434.942436E-3
434.659195E-3
434.331322E-3
434.119606E-3
433.985710E-3
433.805466E-3
433.518791E-3
433.894730E-3
434.818268E-3
436.768341E-3
439.560699E-3
442.803955E-3
446.282959E-3
449.807739E-3
453.116798E-3
455.672836E-3
457.415771E-3
458.173370E-3
457.928467E-3
457.088470E-3
455.671692E-3
454.007721E-3
452.419281E-3
450.814247E-3
449.494171E-3
448.488808E-3
447.810745E-3
447.313499E-3
446.963882E-3
446.844864E-3
446.936417E-3
447.045135E-3
446.949577E-3
446.821404E-3
446.427727E-3
445.932770E-3
445.267296E-3
444.834709E-3
444.475937E-3
444.253349E-3
444.184113E-3
444.384956E-3
444.609833E-3
444.976044E-3
445.204926E-3
445.430946E-3
445.636368E-3
445.732498E-3
445.647240E-3
445.206070E-3
445.025826E-3
444.545746E-3
444.078827E-3
443.622780E-3
443.137550E-3
442.581367E-3
