Notes :


2023-11-04 ¿ÀÈÄ 7:33:37
Volts
Ch : LED 2,
789.063835E-3
788.919067E-3
788.881874E-3
788.821793E-3
788.645554E-3
788.638687E-3
788.592339E-3
788.530540E-3
788.349152E-3
788.285637E-3
788.346291E-3
788.251877E-3
788.223267E-3
788.206100E-3
788.186073E-3
788.045311E-3
787.936020E-3
787.971497E-3
787.854767E-3
787.748337E-3
787.677383E-3
787.640762E-3
787.504578E-3
787.360382E-3
787.216759E-3
787.328339E-3
787.336922E-3
787.159538E-3
787.057686E-3
786.988449E-3
786.952400E-3
786.716652E-3
786.674881E-3
786.591911E-3
786.588478E-3
786.360168E-3
786.117554E-3
786.019707E-3
785.896683E-3
785.710144E-3
785.668373E-3
785.601425E-3
785.826302E-3
785.805130E-3
786.064911E-3
786.777878E-3
787.736893E-3
789.242935E-3
790.984726E-3
792.771149E-3
794.546127E-3
796.043015E-3
797.132492E-3
797.788811E-3
797.809982E-3
797.577095E-3
796.980286E-3
796.380043E-3
795.600700E-3
794.742393E-3
794.183350E-3
793.729019E-3
793.400002E-3
793.231201E-3
793.278122E-3
793.430901E-3
793.539619E-3
793.806839E-3
794.130707E-3
794.146156E-3
794.165611E-3
793.833733E-3
793.421173E-3
792.878723E-3
792.477036E-3
792.069054E-3
791.817856E-3
791.770935E-3
791.844177E-3
791.934013E-3
792.152023E-3
792.347717E-3
792.473030E-3
792.534256E-3
792.505074E-3
792.474747E-3
792.359734E-3
792.157745E-3
791.888237E-3
791.519165E-3
791.248512E-3
790.886879E-3
790.628242E-3
790.471458E-3
790.115547E-3
789.985657E-3
789.693832E-3
789.500999E-3
789.477539E-3
789.272118E-3
789.179993E-3
789.134216E-3
789.073563E-3
788.935089E-3
789.094162E-3
788.887024E-3
788.678741E-3
788.635826E-3
788.731384E-3
788.469315E-3
788.536263E-3
788.516235E-3
788.475037E-3
788.366318E-3
788.377762E-3
788.239861E-3
788.180351E-3
788.112831E-3
788.046455E-3
787.953186E-3
787.870216E-3
787.735176E-3
787.881660E-3
787.577248E-3
787.382698E-3
787.263680E-3
787.200165E-3
787.130356E-3
787.025070E-3
786.892319E-3
786.891174E-3
786.927223E-3
786.726952E-3
786.763573E-3
786.573601E-3
786.536407E-3
786.345291E-3
786.152458E-3
786.071205E-3
785.814857E-3
785.952187E-3
785.673523E-3
785.492134E-3
785.499573E-3
785.302162E-3
785.408020E-3
785.473251E-3
785.652924E-3
786.136436E-3
787.160110E-3
788.689613E-3
790.243721E-3
792.069054E-3
793.943024E-3
795.394135E-3
796.443558E-3
797.022057E-3
797.180557E-3
797.130203E-3
796.382904E-3
795.611572E-3
794.835663E-3
794.042015E-3
793.477821E-3
792.923927E-3
792.641830E-3
792.442703E-3
792.328835E-3
792.474174E-3
792.620659E-3
792.751122E-3
792.996025E-3
793.136787E-3
793.144798E-3
792.834663E-3
792.499924E-3
791.989517E-3
791.571808E-3
791.110039E-3
790.904045E-3
790.920639E-3
791.007614E-3
791.131783E-3
791.198158E-3
791.574097E-3
791.725731E-3
791.875648E-3
791.752052E-3
791.687393E-3
791.442490E-3
791.371536E-3
791.060257E-3
791.013336E-3
790.677452E-3
790.346718E-3
790.033722E-3
789.778519E-3
789.501572E-3
789.285278E-3
789.072418E-3
788.938522E-3
788.691330E-3
788.549995E-3
788.571167E-3
788.444710E-3
788.370323E-3
788.290215E-3
788.181496E-3
788.049316E-3
788.032722E-3
788.057327E-3
788.035583E-3
787.974930E-3
787.957764E-3
787.839317E-3
787.859917E-3
787.853050E-3
787.722015E-3
787.768936E-3
787.839890E-3
787.663078E-3
787.522316E-3
787.425041E-3
787.417030E-3
787.359810E-3
787.334633E-3
787.216759E-3
787.168694E-3
787.250519E-3
787.028503E-3
786.976433E-3
786.904907E-3
786.770439E-3
786.655426E-3
786.498070E-3
786.451149E-3
786.393356E-3
786.282921E-3
786.131287E-3
785.952187E-3
785.838318E-3
785.638046E-3
785.623741E-3
785.591125E-3
785.517311E-3
785.557365E-3
785.406303E-3
785.782814E-3
786.273193E-3
787.262535E-3
788.570023E-3
790.170479E-3
791.861916E-3
793.632889E-3
794.920921E-3
796.041870E-3
796.549416E-3
796.441269E-3
796.108246E-3
795.532036E-3
794.713783E-3
794.012833E-3
793.163681E-3
792.541695E-3
792.042732E-3
791.668510E-3
791.377831E-3
791.233063E-3
791.267395E-3
791.276550E-3
791.347504E-3
791.449928E-3
791.324043E-3
791.222763E-3
790.904617E-3
790.426826E-3
790.026855E-3
789.844894E-3
789.762497E-3
789.618301E-3
789.767647E-3
790.258026E-3
790.463448E-3
790.863419E-3
790.974998E-3
791.051674E-3
791.015053E-3
790.846252E-3
790.711784E-3
790.101814E-3
790.050888E-3
789.751053E-3
789.463234E-3
789.157104E-3
788.827515E-3
788.599777E-3
788.370323E-3
788.112259E-3
788.119125E-3
787.764359E-3
787.627029E-3
787.493134E-3
787.352371E-3
787.333488E-3
787.181282E-3
787.136650E-3
786.999893E-3
786.673164E-3
786.797905E-3
786.815643E-3
786.674881E-3
786.700058E-3
786.694336E-3
786.655426E-3
786.605644E-3
786.547279E-3
786.744118E-3
786.630249E-3
786.526680E-3
786.440849E-3
786.395645E-3
786.284637E-3
786.206245E-3
786.154175E-3
786.086082E-3
786.141586E-3
786.026573E-3
785.830307E-3
785.755920E-3
785.758781E-3
785.643768E-3
785.695267E-3
785.451508E-3
785.434341E-3
785.128784E-3
785.008621E-3
784.944534E-3
784.835243E-3
784.634972E-3
784.446716E-3
784.258461E-3
784.248734E-3
784.166336E-3
784.145164E-3
784.309959E-3
784.454727E-3
785.083580E-3
786.090660E-3
787.576103E-3
789.221191E-3
791.069412E-3
792.888451E-3
794.405365E-3
795.578957E-3
796.038437E-3
796.131706E-3
795.973778E-3
795.418167E-3
794.687462E-3
793.804550E-3
793.034363E-3
792.372322E-3
791.816139E-3
791.535759E-3
791.223335E-3
791.133499E-3
791.183281E-3
791.305733E-3
791.504288E-3
791.728592E-3
792.035294E-3
791.991234E-3
791.784096E-3
791.493416E-3
790.950394E-3
790.517807E-3
790.143585E-3
789.908409E-3
789.911270E-3
789.950752E-3
790.163040E-3
790.453148E-3
790.488052E-3
790.716362E-3
790.810776E-3
790.796471E-3
790.726089E-3
790.564156E-3
790.355301E-3
790.009689E-3
789.862061E-3
789.518738E-3
789.149094E-3
788.900185E-3
788.547134E-3
788.555145E-3
788.212395E-3
788.013840E-3
787.792397E-3
787.692833E-3
787.471962E-3
787.456512E-3
787.339783E-3
787.273979E-3
787.384415E-3
787.108040E-3
787.038231E-3
786.880302E-3
786.962128E-3
786.855125E-3
786.797905E-3
786.690331E-3
786.656570E-3
786.764145E-3
786.752129E-3
786.591339E-3
786.587334E-3
786.535263E-3
786.452866E-3
786.315536E-3
786.198807E-3
786.186790E-3
786.082649E-3
786.029434E-3
785.882378E-3
785.854912E-3
785.852623E-3
785.683250E-3
785.591125E-3
785.545921E-3
785.401154E-3
785.275269E-3
785.092163E-3
785.005760E-3
784.850121E-3
784.794044E-3
784.624672E-3
784.440422E-3
784.245300E-3
784.184074E-3
784.033585E-3
784.184074E-3
784.147453E-3
784.178925E-3
784.250450E-3
784.713936E-3
785.693550E-3
787.015915E-3
788.578033E-3
790.298653E-3
792.082214E-3
793.630600E-3
794.732094E-3
795.523453E-3
795.735168E-3
795.415306E-3
794.858551E-3
794.116402E-3
793.089867E-3
792.478180E-3
791.752625E-3
791.397285E-3
790.989304E-3
790.740967E-3
790.732956E-3
790.731239E-3
790.910339E-3
791.043663E-3
791.276550E-3
791.362953E-3
791.305733E-3
791.201019E-3
790.785599E-3
790.433121E-3
789.992523E-3
789.641762E-3
789.276123E-3
789.506149E-3
789.680099E-3
789.820862E-3
790.023994E-3
790.314674E-3
790.432549E-3
790.531540E-3
790.550423E-3
790.392494E-3
790.264320E-3
789.965630E-3
789.781952E-3
789.515877E-3
789.209747E-3
789.046097E-3
788.730812E-3
788.596916E-3
788.429260E-3
788.142586E-3
787.994957E-3
787.692261E-3
787.617302E-3
787.455368E-3
787.376976E-3
787.307739E-3
787.195015E-3
787.176704E-3
787.020493E-3
786.922646E-3
786.917496E-3
786.840820E-3
786.853981E-3
786.858559E-3
786.757278E-3
786.882019E-3
786.737823E-3
786.723518E-3
786.776161E-3
786.676598E-3
786.741829E-3
786.575890E-3
786.599922E-3
786.569595E-3
786.434555E-3
786.441422E-3
786.397362E-3
786.401939E-3
786.333847E-3
786.166763E-3
786.182213E-3
786.006546E-3
786.055756E-3
785.799980E-3
785.582542E-3
785.504150E-3
785.226631E-3
785.176849E-3
784.935379E-3
784.768867E-3
784.763718E-3
784.702492E-3
784.654427E-3
784.546280E-3
784.625244E-3
785.121346E-3
785.837746E-3
786.996460E-3
788.531685E-3
790.114975E-3
791.927147E-3
793.305016E-3
794.423676E-3
795.187569E-3
795.267105E-3
795.257950E-3
794.748116E-3
794.087219E-3
793.313599E-3
792.556572E-3
791.943741E-3
791.236496E-3
790.769577E-3
790.468025E-3
790.299797E-3
790.330696E-3
790.344429E-3
790.488052E-3
790.403938E-3
790.407944E-3
790.299225E-3
789.999390E-3
789.638901E-3
789.158249E-3
788.953400E-3
788.862419E-3
788.830376E-3
788.960838E-3
789.280128E-3
789.438629E-3
789.815712E-3
790.052032E-3
790.100098E-3
790.219688E-3
790.148735E-3
789.974213E-3
789.558792E-3
789.260101E-3
789.027214E-3
788.671875E-3
788.477325E-3
788.144302E-3
787.867928E-3
787.644196E-3
787.294006E-3
787.381554E-3
787.042809E-3
786.857414E-3
786.700058E-3
786.620522E-3
786.564445E-3
786.495209E-3
786.479759E-3
786.347580E-3
786.091232E-3
786.201668E-3
786.122704E-3
786.110115E-3
786.113548E-3
786.043739E-3
786.080360E-3
786.078072E-3
786.095238E-3
786.319542E-3
786.032295E-3
786.017418E-3
785.939598E-3
785.892105E-3
785.801697E-3
785.781097E-3
785.703278E-3
785.650635E-3
785.652924E-3
785.569954E-3
785.441780E-3
785.476685E-3
785.354805E-3
785.232925E-3
785.153961E-3
784.906769E-3
784.818077E-3
784.929085E-3
784.555435E-3
784.374619E-3
784.186363E-3
784.016991E-3
783.884811E-3
783.797264E-3
783.934021E-3
783.872795E-3
783.938026E-3
784.427834E-3
785.230064E-3
786.527824E-3
788.112259E-3
789.923859E-3
791.724014E-3
793.179131E-3
794.583321E-3
795.389557E-3
795.645332E-3
795.500565E-3
795.064545E-3
794.367027E-3
793.601990E-3
792.870140E-3
792.335701E-3
791.770935E-3
791.440201E-3
791.162682E-3
791.122055E-3
791.111755E-3
791.199875E-3
791.461372E-3
791.669655E-3
791.543770E-3
791.788673E-3
791.630745E-3
791.361237E-3
790.862846E-3
790.420532E-3
790.087509E-3
789.846039E-3
789.785385E-3
789.710426E-3
789.840889E-3
790.086937E-3
790.281487E-3
790.454292E-3
790.409660E-3
790.610504E-3
790.577888E-3
790.350723E-3
790.109253E-3
789.842606E-3
789.656067E-3
789.333344E-3
788.996887E-3
788.727951E-3
788.389206E-3
788.188362E-3
787.982368E-3
787.956619E-3
787.622452E-3
787.319183E-3
787.337494E-3
787.198448E-3
787.065697E-3
787.030792E-3
786.943817E-3
786.825371E-3
786.638832E-3
786.670876E-3
786.646271E-3
786.598206E-3
786.557579E-3
786.574173E-3
786.465454E-3
786.386490E-3
786.397934E-3
786.423111E-3
786.340714E-3
786.293793E-3
786.194801E-3
786.097527E-3
786.091232E-3
785.985947E-3
785.935020E-3
785.903549E-3
785.863495E-3
785.844612E-3
785.735321E-3
785.640907E-3
785.584259E-3
785.468102E-3
785.366249E-3
785.360527E-3
785.153961E-3
784.968567E-3
784.693909E-3
784.728241E-3
784.624672E-3
784.364891E-3
784.374619E-3
784.156609E-3
784.068489E-3
784.148598E-3
784.035301E-3
784.142876E-3
784.336281E-3
784.962845E-3
785.950470E-3
787.324333E-3
788.974571E-3
790.786171E-3
792.463875E-3
793.840599E-3
794.902039E-3
795.434189E-3
795.426750E-3
795.195007E-3
794.647408E-3
793.766212E-3
793.218613E-3
792.473030E-3
791.910553E-3
791.479111E-3
791.130066E-3
791.038513E-3
791.136360E-3
791.282272E-3
791.437912E-3
791.701126E-3
791.839600E-3
791.816711E-3
791.711998E-3
791.360092E-3
790.826797E-3
790.342140E-3
789.938164E-3
789.727592E-3
789.733887E-3
789.614296E-3
789.812279E-3
790.032578E-3
790.369606E-3
790.581322E-3
790.675735E-3
790.725517E-3
790.605927E-3
790.498924E-3
790.307236E-3
790.054893E-3
789.817429E-3
789.442062E-3
789.296150E-3
789.006615E-3
788.744545E-3
788.604355E-3
788.324547E-3
788.147163E-3
787.929726E-3
787.825012E-3
787.671661E-3
787.504578E-3
787.467957E-3
787.425613E-3
787.292290E-3
787.510872E-3
787.230492E-3
787.146950E-3
787.141800E-3
787.029648E-3
787.083435E-3
787.144089E-3
787.097740E-3
787.075424E-3
787.287712E-3
787.083435E-3
786.986160E-3
786.909485E-3
786.923218E-3
786.832237E-3
786.871147E-3
786.700630E-3
786.742973E-3
786.623955E-3
786.648560E-3
786.604500E-3
786.416245E-3
786.277199E-3
786.126709E-3
786.000252E-3
785.857773E-3
785.672951E-3
785.574532E-3
785.362816E-3
785.116768E-3
784.970284E-3
784.887886E-3
784.850693E-3
784.901047E-3
784.873009E-3
785.008621E-3
785.117340E-3
785.854340E-3
786.924934E-3
788.282776E-3
789.868927E-3
791.469955E-3
792.967415E-3
794.300079E-3
795.049667E-3
795.740318E-3
795.509720E-3
795.046234E-3
794.464302E-3
793.726730E-3
793.033218E-3
792.344284E-3
791.777229E-3
791.380119E-3
791.316032E-3
791.173553E-3
791.042519E-3
791.029930E-3
791.106606E-3
791.180420E-3
791.217613E-3
791.071129E-3
790.810204E-3
790.252876E-3
789.668083E-3
789.433479E-3
789.144516E-3
789.168549E-3
789.260101E-3
789.319038E-3
789.820290E-3
790.041733E-3
790.200233E-3
790.409088E-3
790.368462E-3
790.381622E-3
790.207672E-3
789.960480E-3
789.671516E-3
789.394569E-3
789.152527E-3
788.770866E-3
788.414383E-3
788.122559E-3
787.806702E-3
787.790108E-3
787.477112E-3
787.364388E-3
787.259674E-3
787.026215E-3
786.981010E-3
786.793900E-3
786.754417E-3
786.655426E-3
786.702347E-3
786.646271E-3
786.580467E-3
786.594772E-3
786.520958E-3
786.422539E-3
786.449432E-3
786.424828E-3
786.351013E-3
786.393356E-3
786.274338E-3
786.157608E-3
786.162186E-3
786.112404E-3
786.046028E-3
785.971642E-3
785.989952E-3
785.763931E-3
785.885239E-3
785.777664E-3
785.722160E-3
785.426331E-3
785.527039E-3
785.395432E-3
785.348511E-3
785.168266E-3
785.103035E-3
784.947395E-3
784.782600E-3
784.590340E-3
784.229851E-3
784.317398E-3
784.063911E-3
784.023285E-3
784.008980E-3
783.994675E-3
784.079361E-3
784.271622E-3
784.819221E-3
785.739326E-3
787.028503E-3
788.758278E-3
790.527534E-3
792.264175E-3
793.730164E-3
794.772148E-3
795.541763E-3
795.578384E-3
795.512581E-3
794.915771E-3
794.144440E-3
793.480110E-3
792.771721E-3
792.223549E-3
791.802979E-3
791.522598E-3
791.466522E-3
791.681671E-3
791.726875E-3
791.852760E-3
791.939163E-3
792.168045E-3
792.161179E-3
792.103386E-3
791.831589E-3
791.336632E-3
790.739822E-3
790.262604E-3
789.827156E-3
789.756775E-3
789.550209E-3
789.601707E-3
789.763069E-3
790.042877E-3
790.292358E-3
790.442276E-3
790.544701E-3
790.516090E-3
790.326118E-3
790.188217E-3
789.899826E-3
789.634323E-3
789.506721E-3
789.118767E-3
788.837814E-3
788.455582E-3
788.264465E-3
787.982368E-3
787.810707E-3
787.660217E-3
787.438774E-3
787.524605E-3
787.233353E-3
787.105179E-3
787.013054E-3
786.883163E-3
786.831093E-3
786.729240E-3
786.690903E-3
786.682892E-3
786.807060E-3
786.676598E-3
786.608505E-3
786.557579E-3
786.555862E-3
786.389923E-3
786.410522E-3
786.366463E-3
786.258316E-3
786.362457E-3
786.184502E-3
786.077499E-3
786.015129E-3
785.889816E-3
785.897827E-3
785.709000E-3
785.587692E-3
785.563087E-3
785.580826E-3
785.547066E-3
785.406876E-3
785.365105E-3
785.210037E-3
785.049248E-3
785.031509E-3
784.752846E-3
784.706497E-3
784.694481E-3
784.470749E-3
784.312820E-3
784.107399E-3
784.080505E-3
783.938026E-3
783.964920E-3
784.018707E-3
784.078217E-3
