Notes :


2023-10-27 ¿ÀÈÄ 9:19:14
Volts
Ch : LED 2,
817.013168E-3
815.502548E-3
815.654755E-3
815.887070E-3
815.187263E-3
816.814613E-3
815.539169E-3
815.614128E-3
815.867615E-3
815.269661E-3
816.630936E-3
815.111732E-3
814.958382E-3
814.994431E-3
814.067459E-3
815.053368E-3
813.191986E-3
812.690735E-3
812.305069E-3
810.922623E-3
811.863327E-3
809.786224E-3
809.621429E-3
809.565926E-3
808.980560E-3
811.594391E-3
813.019180E-3
818.435669E-3
825.133324E-3
831.903648E-3
840.644073E-3
845.693779E-3
850.889397E-3
854.025078E-3
854.499435E-3
855.465317E-3
852.160835E-3
849.438286E-3
846.458244E-3
842.322350E-3
840.692711E-3
836.968803E-3
835.054779E-3
833.928108E-3
832.554245E-3
833.855438E-3
832.815742E-3
832.909012E-3
832.991982E-3
831.594658E-3
832.209778E-3
829.780769E-3
828.679276E-3
828.461266E-3
827.335739E-3
829.222870E-3
828.759956E-3
829.881477E-3
831.425858E-3
831.694221E-3
833.831406E-3
833.360481E-3
833.335304E-3
833.335876E-3
831.809235E-3
832.193184E-3
829.992485E-3
828.762245E-3
827.704811E-3
825.291824E-3
825.552177E-3
823.164368E-3
821.999359E-3
821.598816E-3
819.921684E-3
820.525932E-3
818.921471E-3
818.455696E-3
818.662262E-3
816.148567E-3
818.369293E-3
817.512703E-3
817.196846E-3
817.548752E-3
816.691589E-3
817.764473E-3
816.985130E-3
816.886711E-3
817.394257E-3
816.237259E-3
817.591095E-3
816.517067E-3
816.355705E-3
816.727638E-3
814.916039E-3
816.844368E-3
816.152000E-3
816.013527E-3
816.186905E-3
814.535522E-3
816.019821E-3
814.852524E-3
814.177895E-3
813.818550E-3
811.895943E-3
812.973976E-3
811.454201E-3
810.870552E-3
810.507202E-3
808.699608E-3
809.928703E-3
809.502411E-3
811.192131E-3
815.374947E-3
819.865036E-3
828.650665E-3
835.770607E-3
843.547440E-3
850.398445E-3
853.531265E-3
857.999039E-3
858.178711E-3
857.700348E-3
856.071281E-3
850.946617E-3
850.182724E-3
846.596146E-3
843.883324E-3
842.252541E-3
839.245033E-3
840.199471E-3
839.017296E-3
839.090538E-3
839.995766E-3
838.944054E-3
841.608238E-3
840.811729E-3
839.901924E-3
839.473915E-3
836.290741E-3
836.534500E-3
834.533501E-3
833.620834E-3
833.980751E-3
832.854652E-3
836.090469E-3
836.657524E-3
836.789131E-3
837.546730E-3
835.525703E-3
837.592506E-3
836.589432E-3
835.850143E-3
836.002922E-3
833.407974E-3
834.016228E-3
832.197189E-3
830.741501E-3
829.955864E-3
827.266502E-3
828.154564E-3
826.910019E-3
826.048279E-3
826.028252E-3
823.999214E-3
825.467491E-3
824.238968E-3
823.741722E-3
823.725700E-3
821.847153E-3
823.500824E-3
822.772408E-3
822.264862E-3
822.739220E-3
821.024895E-3
822.858810E-3
822.012520E-3
821.602821E-3
821.713829E-3
820.084763E-3
821.912384E-3
820.855522E-3
820.315933E-3
820.781708E-3
819.451332E-3
821.061516E-3
820.198631E-3
819.685364E-3
819.940567E-3
818.134117E-3
819.257355E-3
818.284607E-3
817.273521E-3
817.133904E-3
814.857101E-3
816.058159E-3
815.126038E-3
813.798523E-3
814.001656E-3
812.279320E-3
814.124107E-3
814.687729E-3
816.423225E-3
821.751022E-3
826.664543E-3
835.713959E-3
842.864227E-3
848.780823E-3
854.759216E-3
856.614876E-3
860.076141E-3
859.609222E-3
857.393074E-3
855.749130E-3
851.485634E-3
850.609016E-3
847.552299E-3
844.207764E-3
843.395805E-3
841.068649E-3
842.399597E-3
841.990471E-3
841.320992E-3
842.512894E-3
841.503525E-3
843.523979E-3
842.642784E-3
840.480995E-3
839.460754E-3
836.662674E-3
837.146759E-3
835.889626E-3
834.569550E-3
835.437012E-3
834.579849E-3
837.067795E-3
837.357903E-3
837.092972E-3
838.090897E-3
837.246895E-3
838.384438E-3
837.190819E-3
835.132027E-3
834.777832E-3
832.703018E-3
833.154488E-3
831.387520E-3
829.504395E-3
829.022598E-3
827.076530E-3
827.789497E-3
826.407051E-3
824.962807E-3
825.166512E-3
824.006081E-3
825.043488E-3
823.935127E-3
822.973251E-3
823.375511E-3
822.221375E-3
823.745155E-3
822.771263E-3
822.049141E-3
822.702599E-3
821.821404E-3
823.168945E-3
822.135544E-3
820.861244E-3
821.627426E-3
820.693016E-3
821.996498E-3
821.171951E-3
820.074463E-3
820.659828E-3
819.719124E-3
820.695877E-3
820.064735E-3
819.158936E-3
819.668770E-3
818.669701E-3
819.659615E-3
818.581009E-3
817.224312E-3
817.254066E-3
816.141129E-3
816.765976E-3
815.310860E-3
814.022255E-3
814.094925E-3
812.898445E-3
814.018250E-3
813.250351E-3
812.577438E-3
813.701248E-3
814.997292E-3
820.438385E-3
825.609398E-3
831.955147E-3
840.148544E-3
846.136665E-3
852.724457E-3
855.410385E-3
856.335640E-3
856.946182E-3
854.806709E-3
853.742409E-3
849.818802E-3
846.161842E-3
844.026947E-3
840.747070E-3
840.700150E-3
838.695717E-3
837.492371E-3
838.364983E-3
837.924385E-3
839.643860E-3
839.536285E-3
838.845634E-3
839.082527E-3
836.917305E-3
836.802864E-3
834.903717E-3
832.918739E-3
833.341026E-3
832.856369E-3
834.712601E-3
835.308838E-3
835.243034E-3
836.774254E-3
836.636353E-3
838.093758E-3
837.214851E-3
835.951424E-3
835.735130E-3
833.902359E-3
833.799934E-3
832.395172E-3
829.978752E-3
829.470634E-3
827.713394E-3
828.012085E-3
826.732063E-3
825.099564E-3
825.066948E-3
823.988914E-3
824.743652E-3
823.653030E-3
822.512054E-3
823.135757E-3
822.105217E-3
823.314285E-3
822.607040E-3
821.601677E-3
822.182465E-3
821.442604E-3
822.378731E-3
821.591377E-3
820.735359E-3
821.319580E-3
820.252419E-3
821.469498E-3
820.555115E-3
819.609833E-3
819.910240E-3
819.129753E-3
820.271873E-3
819.548035E-3
818.754959E-3
819.253922E-3
818.245697E-3
819.169807E-3
818.135262E-3
816.802025E-3
817.029190E-3
815.792084E-3
816.461563E-3
815.282249E-3
813.772202E-3
813.883781E-3
812.396622E-3
813.323021E-3
812.970543E-3
811.999512E-3
813.805962E-3
815.649033E-3
821.156502E-3
826.928329E-3
833.119583E-3
841.242027E-3
846.843910E-3
853.100967E-3
856.029510E-3
856.654358E-3
857.449722E-3
855.153465E-3
853.841972E-3
851.011276E-3
847.257614E-3
845.472336E-3
842.848778E-3
842.485428E-3
841.360474E-3
840.103340E-3
841.044617E-3
840.750504E-3
842.154694E-3
842.186737E-3
840.727043E-3
841.335869E-3
839.362335E-3
838.805580E-3
836.697006E-3
833.999634E-3
834.247971E-3
833.303833E-3
834.604454E-3
835.266495E-3
834.803009E-3
836.090469E-3
835.799789E-3
837.259483E-3
836.899567E-3
835.415268E-3
835.584641E-3
833.894920E-3
833.579063E-3
832.231522E-3
829.946709E-3
829.577637E-3
827.593803E-3
827.569771E-3
826.289177E-3
824.238968E-3
824.472427E-3
822.847939E-3
823.574066E-3
822.937775E-3
821.369934E-3
821.631432E-3
820.679283E-3
821.666908E-3
821.246910E-3
819.997787E-3
820.835495E-3
820.038414E-3
821.323586E-3
820.894432E-3
819.700813E-3
820.337105E-3
819.755745E-3
820.493317E-3
820.161438E-3
818.894577E-3
819.589233E-3
818.668556E-3
819.308281E-3
818.686295E-3
817.527580E-3
818.431664E-3
817.663765E-3
818.330956E-3
818.005371E-3
816.072464E-3
817.128181E-3
816.238976E-3
816.787148E-3
816.309929E-3
813.524437E-3
814.587021E-3
813.386536E-3
813.703537E-3
812.788582E-3
811.075974E-3
812.158585E-3
810.916328E-3
811.963463E-3
812.578583E-3
814.188194E-3
820.559692E-3
826.011658E-3
834.384155E-3
841.678047E-3
846.985245E-3
854.285431E-3
856.111336E-3
858.004761E-3
857.536697E-3
854.890823E-3
854.735184E-3
850.442505E-3
848.325920E-3
845.881462E-3
842.764091E-3
843.574333E-3
841.541290E-3
842.163849E-3
842.353821E-3
841.778183E-3
844.215775E-3
843.159485E-3
844.146538E-3
844.016647E-3
841.549873E-3
842.017365E-3
838.363838E-3
837.191391E-3
836.098480E-3
833.276939E-3
835.604095E-3
834.395599E-3
835.608101E-3
836.060715E-3
834.571838E-3
837.568474E-3
836.334229E-3
836.742783E-3
836.144829E-3
834.457397E-3
835.296249E-3
832.709885E-3
831.986046E-3
831.066513E-3
828.840065E-3
829.700661E-3
826.930618E-3
826.671410E-3
826.146698E-3
824.413490E-3
825.876045E-3
823.853302E-3
823.957443E-3
823.616982E-3
822.105789E-3
823.752594E-3
821.897507E-3
822.364426E-3
822.116089E-3
820.854378E-3
822.624207E-3
821.103287E-3
821.308136E-3
821.095276E-3
819.853592E-3
821.633148E-3
820.147133E-3
820.351982E-3
820.005798E-3
818.657112E-3
820.166016E-3
818.345261E-3
818.585014E-3
818.154716E-3
816.658401E-3
818.322945E-3
816.511345E-3
816.885567E-3
816.886711E-3
815.365219E-3
816.867256E-3
815.039635E-3
814.871979E-3
814.369583E-3
812.763405E-3
814.140701E-3
812.020111E-3
811.827850E-3
811.279106E-3
809.900665E-3
811.454773E-3
809.759903E-3
810.187340E-3
811.661339E-3
813.153076E-3
820.928764E-3
826.421928E-3
834.361267E-3
841.734695E-3
847.015572E-3
853.347015E-3
854.359245E-3
855.460739E-3
854.954910E-3
851.253319E-3
850.963783E-3
846.867943E-3
844.369698E-3
842.151260E-3
839.370918E-3
839.920235E-3
837.884903E-3
837.967873E-3
838.498878E-3
838.128662E-3
840.718460E-3
839.395523E-3
839.919090E-3
839.459038E-3
837.169647E-3
837.061501E-3
834.087181E-3
832.974243E-3
832.668114E-3
831.804085E-3
833.795357E-3
833.046341E-3
833.971024E-3
834.845352E-3
834.547234E-3
836.411476E-3
834.687424E-3
834.460258E-3
833.811378E-3
832.130241E-3
832.717896E-3
829.841423E-3
829.194260E-3
828.314209E-3
826.339531E-3
827.272797E-3
824.816895E-3
824.371147E-3
823.913956E-3
821.347046E-3
823.169518E-3
821.415710E-3
821.542168E-3
821.515846E-3
820.594025E-3
822.065163E-3
820.387459E-3
820.489311E-3
820.515060E-3
819.740868E-3
821.167946E-3
819.663620E-3
819.812965E-3
819.957161E-3
819.202423E-3
820.574570E-3
818.928337E-3
819.292831E-3
819.063950E-3
818.243980E-3
819.398117E-3
817.707253E-3
817.806816E-3
817.798233E-3
816.821480E-3
818.107796E-3
816.519928E-3
816.470718E-3
816.335678E-3
814.696312E-3
816.117096E-3
814.151573E-3
813.991928E-3
813.685226E-3
812.264442E-3
813.113594E-3
810.946083E-3
810.627365E-3
810.443687E-3
809.314728E-3
810.510635E-3
809.230614E-3
810.658836E-3
813.594818E-3
817.686653E-3
825.670624E-3
831.682777E-3
839.412689E-3
845.737267E-3
849.865723E-3
853.807068E-3
853.242874E-3
853.019142E-3
851.170921E-3
847.944260E-3
846.476555E-3
841.884041E-3
839.738846E-3
837.787628E-3
835.624123E-3
836.410332E-3
834.626770E-3
835.102272E-3
835.653877E-3
835.105705E-3
837.307549E-3
835.973740E-3
835.656166E-3
834.625626E-3
832.548523E-3
832.465553E-3
830.116653E-3
829.911804E-3
830.540657E-3
830.625343E-3
832.718468E-3
832.203484E-3
833.144760E-3
833.800507E-3
833.318138E-3
834.653091E-3
832.595444E-3
831.994057E-3
831.320572E-3
829.476357E-3
829.574776E-3
826.848793E-3
825.626564E-3
824.760246E-3
823.005295E-3
823.534012E-3
821.179962E-3
820.774269E-3
820.384026E-3
819.196701E-3
820.549393E-3
818.654251E-3
818.736649E-3
818.733788E-3
817.793083E-3
819.267082E-3
817.684937E-3
817.657471E-3
818.037415E-3
817.127037E-3
818.661690E-3
817.063522E-3
817.446327E-3
817.295837E-3
815.603828E-3
817.347336E-3
816.164017E-3
816.070747E-3
815.883064E-3
814.875984E-3
816.414070E-3
814.634514E-3
814.260864E-3
814.265442E-3
813.187981E-3
814.339828E-3
812.745667E-3
812.787437E-3
812.537956E-3
810.590744E-3
812.365723E-3
810.989571E-3
810.860825E-3
810.468292E-3
809.000015E-3
809.904099E-3
808.045578E-3
807.673645E-3
807.404709E-3
806.314659E-3
807.435036E-3
806.508636E-3
808.000946E-3
811.932564E-3
816.748810E-3
825.652313E-3
832.521057E-3
840.335655E-3
847.198105E-3
851.139450E-3
855.352592E-3
854.884529E-3
854.172707E-3
852.448082E-3
849.023437E-3
847.385788E-3
843.444443E-3
840.627480E-3
838.928604E-3
836.909866E-3
837.732697E-3
836.666107E-3
836.988831E-3
837.896919E-3
837.717819E-3
839.975166E-3
839.221001E-3
839.032173E-3
838.489151E-3
836.013794E-3
835.505104E-3
832.823753E-3
831.745148E-3
831.657028E-3
830.838203E-3
832.343102E-3
831.955719E-3
832.395744E-3
833.246040E-3
832.728195E-3
834.021378E-3
832.719612E-3
832.026100E-3
831.935692E-3
829.919243E-3
830.458260E-3
828.279877E-3
827.131462E-3
826.333237E-3
823.978615E-3
824.711609E-3
822.912598E-3
821.908951E-3
821.500397E-3
819.482231E-3
820.685577E-3
819.477081E-3
819.137192E-3
819.501114E-3
817.648315E-3
818.960381E-3
818.239403E-3
818.083763E-3
818.395042E-3
816.826630E-3
818.048286E-3
817.409706E-3
817.304420E-3
817.613411E-3
815.725708E-3
817.340469E-3
816.325378E-3
816.067886E-3
816.396332E-3
814.509773E-3
815.991783E-3
814.922905E-3
814.473152E-3
814.651680E-3
812.624359E-3
814.028549E-3
813.044357E-3
812.682152E-3
813.152504E-3
810.978699E-3
812.534523E-3
811.638451E-3
811.327171E-3
811.355209E-3
809.406853E-3
810.795593E-3
809.588242E-3
809.016037E-3
808.874702E-3
806.458282E-3
807.650185E-3
806.735229E-3
806.362724E-3
807.329750E-3
807.519150E-3
813.418579E-3
819.276237E-3
826.743507E-3
835.111427E-3
840.509605E-3
847.973442E-3
851.464462E-3
853.012848E-3
853.725815E-3
850.886536E-3
850.206184E-3
846.645927E-3
843.252182E-3
840.775681E-3
836.595154E-3
836.131096E-3
834.408188E-3
833.630562E-3
833.846283E-3
832.646942E-3
834.906006E-3
834.923172E-3
834.964943E-3
835.471916E-3
833.599663E-3
834.065437E-3
832.145691E-3
830.355835E-3
829.848289E-3
827.912521E-3
829.379654E-3
829.512405E-3
829.788780E-3
831.031036E-3
830.320930E-3
832.333946E-3
832.147980E-3
831.448746E-3
831.820679E-3
829.502678E-3
830.242538E-3
828.575706E-3
826.797867E-3
826.358986E-3
823.701668E-3
824.370575E-3
823.090553E-3
821.492386E-3
821.246910E-3
818.958092E-3
820.298767E-3
819.216728E-3
818.383598E-3
818.564415E-3
816.786575E-3
818.174744E-3
817.585373E-3
816.660118E-3
817.048073E-3
815.377235E-3
817.037773E-3
816.525650E-3
815.650749E-3
816.206932E-3
814.672279E-3
816.384888E-3
815.804672E-3
814.762115E-3
815.524864E-3
813.779068E-3
815.475655E-3
814.718056E-3
813.787651E-3
814.365005E-3
812.716484E-3
814.248848E-3
813.664055E-3
812.555695E-3
813.045502E-3
811.535454E-3
812.933922E-3
812.061310E-3
810.721207E-3
810.842514E-3
809.212303E-3
810.365868E-3
809.227753E-3
807.943726E-3
807.971191E-3
806.508064E-3
807.638168E-3
806.722069E-3
805.864334E-3
807.636452E-3
809.632874E-3
816.442108E-3
822.757530E-3
829.279518E-3
837.507248E-3
843.040466E-3
849.082375E-3
851.119995E-3
850.908852E-3
850.782967E-3
847.990036E-3
846.665382E-3
842.673111E-3
838.681984E-3
836.063004E-3
832.869530E-3
832.264709E-3
830.402184E-3
828.951073E-3
829.555321E-3
829.106140E-3
830.875397E-3
830.500603E-3
829.636002E-3
829.652596E-3
827.884483E-3
827.810669E-3
826.364708E-3
824.749947E-3
825.417709E-3
825.353622E-3
827.416420E-3
827.918816E-3
827.530289E-3
829.331017E-3
829.448318E-3
831.078529E-3
830.486298E-3
828.880119E-3
828.814316E-3
827.030754E-3
827.342033E-3
825.557899E-3
823.461914E-3
822.715187E-3
820.778847E-3
820.985985E-3
819.562340E-3
817.855453E-3
817.623138E-3
816.148567E-3
816.887283E-3
815.667343E-3
814.877129E-3
815.393257E-3
814.470863E-3
815.408707E-3
814.459419E-3
813.735008E-3
814.455414E-3
813.561058E-3
814.648247E-3
814.072609E-3
812.669563E-3
813.680077E-3
812.819481E-3
813.904381E-3
813.415146E-3
812.119102E-3
812.678719E-3
811.708260E-3
812.560272E-3
