Notes :


2023-10-25 ¿ÀÈÄ 10:11:55
Volts
Ch : LED 2,
549.507523E-3
550.400734E-3
551.537132E-3
550.735474E-3
551.517105E-3
550.867081E-3
549.940109E-3
549.541283E-3
548.127365E-3
547.698212E-3
547.207832E-3
546.048546E-3
545.956993E-3
544.741058E-3
544.616318E-3
544.917870E-3
544.987106E-3
545.381927E-3
544.977379E-3
545.205688E-3
545.566177E-3
545.075798E-3
545.020866E-3
544.313622E-3
543.869019E-3
544.134521E-3
544.400024E-3
544.842911E-3
544.660378E-3
545.133018E-3
545.365334E-3
545.421982E-3
545.673180E-3
544.840622E-3
545.037460E-3
545.102119E-3
545.025444E-3
545.138168E-3
544.483566E-3
544.956779E-3
544.302750E-3
543.605232E-3
543.586349E-3
543.000412E-3
542.944336E-3
543.150330E-3
542.853928E-3
542.696571E-3
542.048836E-3
542.006493E-3
542.262268E-3
542.226219E-3
542.460823E-3
542.019081E-3
541.783905E-3
542.154694E-3
541.985321E-3
542.019081E-3
541.732407E-3
541.844559E-3
541.948128E-3
541.801643E-3
541.925240E-3
541.371918E-3
541.797066E-3
541.906357E-3
541.729546E-3
541.948700E-3
540.975952E-3
541.015434E-3
541.481209E-3
541.082382E-3
541.176224E-3
540.619469E-3
540.449524E-3
540.633202E-3
540.812302E-3
540.826035E-3
540.561676E-3
540.488434E-3
540.939903E-3
540.655518E-3
540.710449E-3
540.099907E-3
539.894485E-3
540.166283E-3
539.834404E-3
540.006638E-3
539.781761E-3
540.161705E-3
541.797638E-3
542.847061E-3
544.388580E-3
545.693207E-3
547.640419E-3
549.314690E-3
550.073433E-3
550.600433E-3
550.000763E-3
549.632263E-3
549.305534E-3
548.501587E-3
548.388863E-3
547.358322E-3
546.586990E-3
546.609306E-3
545.977020E-3
545.799637E-3
545.328140E-3
544.946480E-3
545.213699E-3
545.179367E-3
545.390511E-3
545.238876E-3
545.579910E-3
545.732117E-3
545.246315E-3
545.292664E-3
544.997978E-3
544.678116E-3
545.096970E-3
545.292664E-3
545.738983E-3
545.297241E-3
545.464325E-3
545.814514E-3
545.515823E-3
545.625687E-3
545.748138E-3
546.581268E-3
546.205902E-3
545.849419E-3
546.005058E-3
545.456314E-3
546.221924E-3
545.824242E-3
544.925880E-3
545.229721E-3
544.627190E-3
544.474411E-3
544.661522E-3
544.150543E-3
544.661522E-3
544.247818E-3
544.267845E-3
544.404602E-3
544.418907E-3
544.354248E-3
544.054985E-3
543.977165E-3
544.392014E-3
544.250679E-3
544.273567E-3
543.634415E-3
545.094109E-3
544.726181E-3
544.048691E-3
544.420624E-3
543.908501E-3
543.970299E-3
544.066429E-3
543.830109E-3
544.171715E-3
543.729973E-3
543.613243E-3
543.806076E-3
543.712234E-3
543.497658E-3
542.961502E-3
542.758942E-3
543.154907E-3
542.846489E-3
542.969513E-3
542.556953E-3
542.554665E-3
542.397881E-3
542.425919E-3
542.584419E-3
542.262840E-3
542.046547E-3
542.234802E-3
541.490936E-3
541.680908E-3
541.505241E-3
541.381073E-3
541.787910E-3
541.664886E-3
542.732048E-3
544.000053E-3
545.147896E-3
547.093391E-3
548.565102E-3
550.664520E-3
551.866722E-3
552.405739E-3
552.868080E-3
552.229500E-3
551.864433E-3
550.709724E-3
549.616241E-3
548.734474E-3
547.810364E-3
547.322845E-3
546.564102E-3
546.811295E-3
546.255112E-3
545.783043E-3
545.975304E-3
546.117783E-3
546.227074E-3
546.529770E-3
546.541786E-3
546.463394E-3
546.156120E-3
545.363045E-3
545.722389E-3
545.238876E-3
545.262337E-3
545.798492E-3
545.788193E-3
546.307182E-3
545.791054E-3
546.035385E-3
545.586777E-3
545.253754E-3
545.553589E-3
545.282936E-3
545.383072E-3
545.332146E-3
545.015144E-3
544.886971E-3
544.147682E-3
544.314766E-3
543.653297E-3
544.283867E-3
543.346024E-3
542.762375E-3
542.883110E-3
542.995262E-3
542.148399E-3
542.153549E-3
542.004204E-3
542.431068E-3
542.218208E-3
542.096901E-3
542.250824E-3
542.052841E-3
542.398453E-3
542.498589E-3
542.275429E-3
542.455673E-3
541.907501E-3
542.040825E-3
542.227936E-3
542.963219E-3
542.461395E-3
541.881180E-3
541.810799E-3
541.854286E-3
541.228867E-3
541.500092E-3
541.038322E-3
541.242027E-3
541.108704E-3
540.680122E-3
540.907860E-3
540.749359E-3
540.796280E-3
540.993118E-3
540.523338E-3
540.463829E-3
540.036392E-3
540.128517E-3
540.163994E-3
539.336586E-3
539.385796E-3
538.967514E-3
539.481354E-3
539.604950E-3
539.746857E-3
541.239166E-3
542.638206E-3
544.269562E-3
546.467972E-3
547.706795E-3
549.262619E-3
549.521828E-3
549.678612E-3
549.587631E-3
549.009132E-3
548.616028E-3
547.938538E-3
547.235870E-3
546.380997E-3
545.565033E-3
545.278931E-3
544.382858E-3
544.175148E-3
544.034958E-3
543.895340E-3
544.342232E-3
544.190598E-3
544.542503E-3
544.572258E-3
545.802498E-3
544.870949E-3
543.835831E-3
543.671036E-3
543.428993E-3
542.849350E-3
543.225288E-3
542.955780E-3
543.701935E-3
543.946266E-3
543.739128E-3
544.148827E-3
543.972015E-3
543.825531E-3
544.004059E-3
543.483925E-3
543.622971E-3
543.115425E-3
543.236732E-3
543.239021E-3
542.599297E-3
542.710304E-3
542.266273E-3
542.306328E-3
541.982460E-3
541.433716E-3
541.631699E-3
541.250038E-3
541.479492E-3
541.290665E-3
540.939331E-3
541.355324E-3
540.702438E-3
540.910149E-3
541.250038E-3
541.279793E-3
541.367340E-3
540.734482E-3
540.724754E-3
540.668678E-3
539.957428E-3
540.758514E-3
540.320206E-3
540.626907E-3
540.787125E-3
539.889336E-3
540.307045E-3
539.851570E-3
539.958000E-3
539.951706E-3
539.527130E-3
540.134239E-3
539.634132E-3
539.747429E-3
539.879608E-3
539.204407E-3
539.503670E-3
539.175224E-3
539.301682E-3
539.465904E-3
538.758659E-3
538.945198E-3
538.369560E-3
538.390732E-3
538.387871E-3
537.708092E-3
538.101768E-3
537.606812E-3
537.888336E-3
538.065720E-3
538.245392E-3
539.800072E-3
541.284943E-3
542.750931E-3
544.683266E-3
545.579910E-3
547.469330E-3
548.089600E-3
548.467827E-3
548.686981E-3
547.841263E-3
547.449303E-3
546.573257E-3
546.013641E-3
545.416832E-3
544.302177E-3
544.136238E-3
543.533707E-3
543.180084E-3
543.174934E-3
543.549156E-3
543.454170E-3
543.320847E-3
543.561745E-3
543.923378E-3
543.407249E-3
543.844986E-3
543.276215E-3
543.150902E-3
543.153763E-3
542.588997E-3
542.861938E-3
542.845917E-3
543.113136E-3
543.457603E-3
542.979240E-3
543.249321E-3
543.119431E-3
543.251038E-3
543.458748E-3
542.802429E-3
543.367767E-3
542.870522E-3
542.721748E-3
542.685127E-3
541.899490E-3
541.916084E-3
541.349602E-3
541.232872E-3
541.174507E-3
540.472984E-3
540.937614E-3
540.566826E-3
541.023445E-3
540.851784E-3
540.442085E-3
540.487862E-3
540.198326E-3
540.078163E-3
540.439796E-3
540.015221E-3
540.119362E-3
539.601517E-3
539.980888E-3
540.465546E-3
540.030098E-3
540.246964E-3
539.920807E-3
540.273857E-3
540.026093E-3
539.285660E-3
539.602661E-3
539.206696E-3
539.228439E-3
539.151764E-3
538.740921E-3
539.005852E-3
538.699722E-3
538.765526E-3
538.921738E-3
538.350105E-3
538.600159E-3
538.322639E-3
538.712311E-3
538.660812E-3
537.955284E-3
538.162422E-3
537.619400E-3
537.734413E-3
537.664604E-3
538.083458E-3
537.660027E-3
536.846352E-3
537.071228E-3
537.434578E-3
537.690926E-3
539.347458E-3
540.590858E-3
542.754936E-3
544.802284E-3
546.025658E-3
547.556305E-3
547.859573E-3
548.225212E-3
547.585487E-3
546.387291E-3
546.029091E-3
544.638634E-3
543.669891E-3
543.085670E-3
542.215919E-3
542.092323E-3
541.476631E-3
541.286087E-3
541.616821E-3
541.207695E-3
541.545868E-3
541.441154E-3
541.489792E-3
541.373062E-3
540.876961E-3
541.192818E-3
540.727615E-3
540.637779E-3
540.799713E-3
540.669823E-3
541.132164E-3
541.012001E-3
541.644859E-3
541.843414E-3
541.255760E-3
541.768456E-3
541.278076E-3
541.372490E-3
541.590500E-3
541.137886E-3
541.423416E-3
540.782547E-3
540.693283E-3
540.629768E-3
539.857864E-3
539.985466E-3
539.342880E-3
539.171791E-3
539.278793E-3
538.994980E-3
539.282799E-3
538.954353E-3
538.708878E-3
539.068222E-3
538.660812E-3
538.409615E-3
537.979317E-3
538.132668E-3
538.438797E-3
537.951279E-3
538.407326E-3
537.958145E-3
538.114357E-3
538.329506E-3
538.108063E-3
538.269997E-3
537.833977E-3
537.708664E-3
537.841988E-3
537.204552E-3
537.749863E-3
537.307549E-3
537.238312E-3
537.312698E-3
537.067223E-3
537.163353E-3
536.528778E-3
536.771965E-3
537.112427E-3
536.549950E-3
536.882401E-3
536.418915E-3
536.198616E-3
536.362839E-3
536.048126E-3
536.215210E-3
535.788345E-3
535.569191E-3
535.605240E-3
535.464478E-3
535.671616E-3
535.880470E-3
536.918449E-3
538.219070E-3
539.431572E-3
541.493225E-3
542.959213E-3
544.527626E-3
545.492935E-3
547.349167E-3
546.802139E-3
545.563316E-3
544.805145E-3
544.256401E-3
543.799782E-3
542.946625E-3
541.751289E-3
541.408539E-3
541.129875E-3
540.333366E-3
540.388870E-3
539.921951E-3
540.375710E-3
540.655518E-3
541.460609E-3
541.349030E-3
540.925598E-3
540.711021E-3
540.678406E-3
541.381073E-3
540.455818E-3
539.826393E-3
540.091324E-3
540.504456E-3
540.197182E-3
540.681267E-3
540.250397E-3
540.402603E-3
540.696716E-3
540.351677E-3
540.630913E-3
540.167427E-3
540.216637E-3
540.587425E-3
540.365982E-3
540.499306E-3
539.609528E-3
539.319992E-3
539.235878E-3
538.716888E-3
538.623619E-3
538.146973E-3
538.366699E-3
538.444519E-3
538.342094E-3
538.560104E-3
538.054848E-3
537.743568E-3
537.931252E-3
537.442017E-3
537.813377E-3
537.171936E-3
537.387085E-3
537.583351E-3
537.389374E-3
537.751579E-3
537.320137E-3
537.341309E-3
537.657166E-3
537.151337E-3
537.281799E-3
536.634064E-3
536.944771E-3
536.854935E-3
536.725616E-3
536.699295E-3
535.939980E-3
536.300468E-3
536.660385E-3
536.548233E-3
536.530495E-3
535.915375E-3
535.929108E-3
536.126518E-3
535.836983E-3
535.985184E-3
535.163498E-3
535.299110E-3
535.452461E-3
534.811592E-3
535.225868E-3
534.876823E-3
534.706879E-3
534.918022E-3
534.443092E-3
534.619331E-3
534.047699E-3
535.035896E-3
536.671829E-3
537.677193E-3
539.753151E-3
541.223717E-3
542.638779E-3
544.331932E-3
544.801140E-3
545.163345E-3
544.395447E-3
544.286728E-3
543.732262E-3
542.859650E-3
542.262268E-3
540.966797E-3
540.152550E-3
540.230942E-3
539.483643E-3
539.407539E-3
539.053345E-3
538.993835E-3
539.599800E-3
539.732552E-3
540.149689E-3
539.768600E-3
539.790916E-3
539.903069E-3
538.977242E-3
539.377785E-3
538.526344E-3
538.579559E-3
538.925171E-3
538.656235E-3
539.572906E-3
539.039612E-3
539.392090E-3
539.781189E-3
539.577484E-3
540.110779E-3
539.725685E-3
539.424133E-3
539.813232E-3
539.382935E-3
539.457893E-3
538.362122E-3
538.247108E-3
538.193321E-3
537.526131E-3
537.528992E-3
537.008858E-3
537.064934E-3
537.297249E-3
537.218857E-3
537.709236E-3
537.150764E-3
537.051773E-3
537.063217E-3
536.838913E-3
536.638641E-3
536.333656E-3
536.343384E-3
536.745071E-3
536.665535E-3
537.100410E-3
536.848068E-3
536.839485E-3
536.927605E-3
536.362839E-3
536.402321E-3
535.521698E-3
535.731697E-3
536.005211E-3
536.112785E-3
535.871315E-3
535.368347E-3
535.617828E-3
535.919380E-3
535.369492E-3
535.554314E-3
534.777832E-3
534.960937E-3
535.035324E-3
534.812737E-3
534.881973E-3
533.857727E-3
534.502029E-3
534.259987E-3
533.757019E-3
533.884048E-3
533.256340E-3
533.359909E-3
533.419991E-3
533.052063E-3
533.885765E-3
534.216499E-3
535.742569E-3
537.718964E-3
539.079094E-3
540.992546E-3
541.599655E-3
542.542076E-3
542.896843E-3
542.764091E-3
542.400742E-3
541.337013E-3
540.642929E-3
539.949989E-3
538.933754E-3
538.419342E-3
537.153625E-3
536.852646E-3
536.927032E-3
536.466980E-3
536.600876E-3
536.243820E-3
536.551666E-3
536.355400E-3
536.246681E-3
536.453247E-3
535.857010E-3
535.687637E-3
536.147118E-3
536.032104E-3
536.656952E-3
536.278725E-3
536.620331E-3
537.129593E-3
537.004280E-3
537.159348E-3
536.804581E-3
536.456680E-3
537.254906E-3
536.802292E-3
537.059212E-3
536.255836E-3
536.184883E-3
536.262703E-3
535.875320E-3
535.559464E-3
534.479141E-3
534.144402E-3
534.324646E-3
534.128380E-3
534.491730E-3
533.854866E-3
534.017372E-3
534.324646E-3
533.629990E-3
534.082031E-3
533.419418E-3
533.431435E-3
533.555603E-3
533.363342E-3
533.699226E-3
532.888985E-3
533.026314E-3
533.567047E-3
533.405685E-3
533.379936E-3
532.966232E-3
533.730125E-3
533.544159E-3
533.053207E-3
533.153343E-3
532.273293E-3
532.457542E-3
532.958221E-3
532.627487E-3
532.911873E-3
532.383728E-3
532.149696E-3
532.664680E-3
532.299614E-3
532.618904E-3
531.933975E-3
531.844139E-3
532.113647E-3
531.649017E-3
532.002640E-3
531.618118E-3
532.007217E-3
531.733704E-3
531.297684E-3
531.378365E-3
530.699158E-3
530.576134E-3
531.485367E-3
532.157135E-3
533.670616E-3
534.877968E-3
537.271500E-3
539.039612E-3
539.866447E-3
541.247177E-3
540.947914E-3
540.909576E-3
541.167641E-3
540.410614E-3
540.156555E-3
539.203835E-3
538.436508E-3
537.900352E-3
536.973953E-3
536.683846E-3
535.788345E-3
536.126518E-3
536.070442E-3
535.707092E-3
536.262703E-3
536.089897E-3
535.957718E-3
536.394882E-3
535.974884E-3
536.144829E-3
535.693359E-3
535.361481E-3
535.626411E-3
535.414696E-3
535.792351E-3
535.902214E-3
535.546303E-3
536.020088E-3
535.881615E-3
536.256409E-3
536.204338E-3
536.167717E-3
536.651802E-3
535.990334E-3
536.203766E-3
535.728264E-3
535.358620E-3
535.333443E-3
534.777832E-3
534.550667E-3
534.178162E-3
533.672333E-3
533.945274E-3
533.747292E-3
533.878326E-3
533.722687E-3
534.234238E-3
533.996201E-3
533.473778E-3
533.528709E-3
533.311272E-3
532.886124E-3
533.148193E-3
532.947922E-3
533.251762E-3
532.791138E-3
532.689285E-3
533.025169E-3
532.755089E-3
533.129883E-3
532.965088E-3
532.696152E-3
532.672691E-3
532.490730E-3
532.659531E-3
532.755089E-3
532.253838E-3
532.654381E-3
532.303619E-3
532.826614E-3
532.914734E-3
532.579422E-3
532.761955E-3
532.519341E-3
532.493591E-3
532.358551E-3
532.215500E-3
531.979752E-3
531.364632E-3
531.586647E-3
531.511116E-3
531.229591E-3
531.764603E-3
531.312561E-3
531.544876E-3
531.826401E-3
531.737137E-3
532.200623E-3
532.539940E-3
534.237099E-3
535.823822E-3
537.438011E-3
539.172363E-3
540.572548E-3
541.711235E-3
542.433929E-3
543.087387E-3
542.131233E-3
541.128159E-3
540.885544E-3
539.923096E-3
538.973808E-3
538.253403E-3
537.483215E-3
537.383652E-3
537.020874E-3
537.281799E-3
537.332726E-3
536.641502E-3
537.010574E-3
537.092400E-3
537.068939E-3
537.247467E-3
536.702156E-3
536.834908E-3
536.606026E-3
536.267853E-3
536.611176E-3
536.250687E-3
536.745071E-3
537.020302E-3
536.715889E-3
537.260056E-3
537.077522E-3
537.240028E-3
537.405396E-3
537.127304E-3
537.381935E-3
536.878395E-3
537.252045E-3
537.216568E-3
536.747360E-3
536.718750E-3
536.153984E-3
535.866737E-3
535.562897E-3
534.978104E-3
535.046196E-3
534.797287E-3
534.993553E-3
535.171509E-3
534.628487E-3
534.820175E-3
534.574127E-3
534.639931E-3
534.577560E-3
534.562111E-3
534.866524E-3
534.245682E-3
534.301758E-3
534.321213E-3
533.806229E-3
534.126091E-3
533.742714E-3
534.213066E-3
534.463120E-3
533.708954E-3
533.947563E-3
533.406830E-3
533.374214E-3
533.470345E-3
532.851791E-3
533.002853E-3
532.244110E-3
532.699013E-3
532.695007E-3
533.877182E-3
533.616257E-3
532.669258E-3
532.612038E-3
532.980537E-3
532.186890E-3
532.014084E-3
