Notes :


2023-11-10 ¿ÀÈÄ 11:11:17
Volts
Ch : LED 2,
71.545029E-3
71.377373E-3
71.100426E-3
70.929909E-3
70.799446E-3
70.670128E-3
70.749092E-3
70.703888E-3
70.866966E-3
70.946503E-3
71.069527E-3
71.186256E-3
70.738220E-3
71.017456E-3
70.931053E-3
70.855522E-3
70.809174E-3
70.452690E-3
70.376587E-3
70.227242E-3
70.023537E-3
70.383453E-3
69.843292E-3
69.652748E-3
69.481087E-3
69.332314E-3
69.348907E-3
69.172096E-3
68.997574E-3
69.032478E-3
69.929695E-3
69.395828E-3
69.039345E-3
69.033623E-3
68.978119E-3
69.063950E-3
69.080544E-3
68.864822E-3
68.994141E-3
68.299484E-3
68.691444E-3
68.642807E-3
68.658829E-3
68.678284E-3
68.678284E-3
68.619919E-3
68.663406E-3
68.452835E-3
68.456268E-3
68.334961E-3
68.203926E-3
68.265152E-3
68.135262E-3
68.114662E-3
68.130684E-3
68.024826E-3
68.070602E-3
67.909813E-3
67.926979E-3
67.845154E-3
67.744446E-3
67.688942E-3
67.508698E-3
67.606544E-3
67.433167E-3
67.385674E-3
67.547035E-3
67.331314E-3
67.292976E-3
67.333603E-3
67.260361E-3
67.450905E-3
67.646599E-3
68.289757E-3
69.189835E-3
70.388031E-3
71.479225E-3
72.422218E-3
73.375511E-3
73.983192E-3
74.289322E-3
74.437523E-3
74.146271E-3
73.864174E-3
73.139763E-3
72.754097E-3
72.379875E-3
71.920967E-3
71.676636E-3
71.440315E-3
71.264648E-3
71.327019E-3
71.258926E-3
71.364784E-3
71.375084E-3
71.369362E-3
71.345329E-3
71.059227E-3
70.969963E-3
70.707893E-3
70.733070E-3
70.523643E-3
70.369148E-3
70.517349E-3
70.530510E-3
70.703888E-3
70.894432E-3
70.983124E-3
71.071815E-3
71.078682E-3
70.955658E-3
70.987129E-3
70.785141E-3
70.628357E-3
70.465279E-3
70.198631E-3
70.055580E-3
69.812965E-3
69.626999E-3
69.475365E-3
69.290543E-3
69.216728E-3
69.112015E-3
69.021606E-3
68.912888E-3
68.823051E-3
68.767548E-3
68.785858E-3
68.811035E-3
68.588448E-3
68.559265E-3
68.577576E-3
68.495750E-3
68.560982E-3
68.546104E-3
68.501472E-3
68.239975E-3
68.274879E-3
68.379593E-3
68.389893E-3
68.295479E-3
68.354988E-3
68.209076E-3
68.187332E-3
68.147278E-3
67.742157E-3
67.973900E-3
67.910385E-3
67.947006E-3
67.920685E-3
67.857170E-3
67.770767E-3
67.690659E-3
67.659187E-3
67.819405E-3
67.495537E-3
67.463493E-3
67.239189E-3
67.212868E-3
67.123604E-3
66.960526E-3
66.998291E-3
66.823769E-3
67.204285E-3
66.983414E-3
66.954803E-3
67.313576E-3
67.767906E-3
68.710899E-3
69.693375E-3
70.710754E-3
71.976471E-3
72.802734E-3
73.501968E-3
73.963165E-3
73.958588E-3
73.884773E-3
73.511124E-3
73.084259E-3
72.328377E-3
71.998215E-3
71.747017E-3
71.310997E-3
71.193695E-3
71.034622E-3
70.897293E-3
70.984840E-3
70.998001E-3
71.224022E-3
71.244049E-3
71.083260E-3
71.020317E-3
70.752525E-3
70.615196E-3
70.321083E-3
70.097923E-3
70.124817E-3
69.759750E-3
70.132828E-3
70.163155E-3
70.277023E-3
70.472717E-3
70.437813E-3
70.541382E-3
70.543098E-3
70.396042E-3
70.668411E-3
70.315361E-3
70.232391E-3
69.985771E-3
69.719124E-3
69.651031E-3
69.441032E-3
69.338608E-3
69.209862E-3
68.958092E-3
68.980408E-3
68.815613E-3
68.750381E-3
68.655396E-3
68.587303E-3
68.635941E-3
68.480301E-3
68.475151E-3
68.483162E-3
68.421364E-3
68.470001E-3
68.328094E-3
68.365860E-3
68.325233E-3
68.273163E-3
68.321800E-3
68.167305E-3
68.092346E-3
68.206787E-3
68.046570E-3
68.113518E-3
67.998505E-3
68.027687E-3
67.918396E-3
67.747879E-3
67.810822E-3
67.649460E-3
67.703819E-3
67.636299E-3
67.638016E-3
67.565918E-3
67.430305E-3
67.520714E-3
67.109299E-3
67.339897E-3
67.328453E-3
67.224312E-3
67.284966E-3
67.116165E-3
67.044640E-3
67.025185E-3
66.849518E-3
66.443825E-3
66.606903E-3
66.584015E-3
66.618919E-3
66.648102E-3
66.836929E-3
67.066383E-3
67.682648E-3
68.623352E-3
69.664764E-3
70.814323E-3
72.050858E-3
72.778702E-3
73.519135E-3
73.834991E-3
73.880196E-3
73.705673E-3
73.348045E-3
72.873688E-3
72.425079E-3
71.857452E-3
71.594810E-3
71.314430E-3
71.179962E-3
70.941925E-3
70.920181E-3
70.995712E-3
70.861244E-3
71.113014E-3
71.205711E-3
71.135330E-3
71.039200E-3
70.844650E-3
70.681000E-3
70.389748E-3
70.202637E-3
70.285606E-3
70.139122E-3
70.142555E-3
70.178604E-3
70.231247E-3
70.429230E-3
70.462418E-3
70.612335E-3
70.541954E-3
70.667267E-3
70.501900E-3
70.261002E-3
70.237541E-3
69.919968E-3
69.742584E-3
69.676781E-3
69.402122E-3
69.367790E-3
69.471359E-3
69.138336E-3
68.972969E-3
68.767548E-3
68.740654E-3
68.609047E-3
68.577576E-3
68.552399E-3
68.436813E-3
68.495750E-3
68.357849E-3
68.377876E-3
68.394470E-3
68.374443E-3
68.399048E-3
68.297195E-3
67.948723E-3
68.128395E-3
68.152428E-3
68.230247E-3
68.249130E-3
68.114662E-3
68.150711E-3
68.098068E-3
68.121529E-3
67.944717E-3
67.916679E-3
67.945290E-3
67.873764E-3
67.825127E-3
67.676926E-3
67.666054E-3
67.687225E-3
67.559624E-3
67.738724E-3
67.583656E-3
67.373657E-3
67.491531E-3
67.311287E-3
67.276955E-3
67.229462E-3
67.073250E-3
67.082977E-3
66.938210E-3
66.986275E-3
66.822052E-3
66.726494E-3
66.770554E-3
66.689301E-3
66.747093E-3
66.716194E-3
67.104149E-3
67.790794E-3
68.460274E-3
69.452477E-3
70.489311E-3
71.555901E-3
72.536659E-3
73.210716E-3
73.595810E-3
73.663330E-3
73.128319E-3
73.071671E-3
72.643661E-3
72.278595E-3
71.747017E-3
71.281815E-3
71.004868E-3
70.717621E-3
70.588303E-3
70.748520E-3
70.447540E-3
70.460129E-3
70.455551E-3
70.602036E-3
70.413780E-3
70.413208E-3
70.501328E-3
70.081902E-3
69.873619E-3
69.684219E-3
69.701958E-3
69.815254E-3
69.770050E-3
69.980049E-3
70.067596E-3
70.557404E-3
70.446396E-3
70.343971E-3
70.426369E-3
70.191765E-3
70.107079E-3
70.048714E-3
69.858170E-3
69.742584E-3
69.374084E-3
69.296837E-3
69.154358E-3
68.938065E-3
68.867683E-3
68.651962E-3
68.542099E-3
68.467712E-3
68.314362E-3
68.287468E-3
68.150711E-3
68.051720E-3
68.223381E-3
68.069458E-3
68.048286E-3
67.964172E-3
67.926979E-3
67.945290E-3
68.059731E-3
67.978477E-3
67.869759E-3
67.817688E-3
67.819977E-3
67.664909E-3
67.738724E-3
67.695808E-3
67.663765E-3
67.789078E-3
67.541885E-3
67.526436E-3
67.426872E-3
67.341614E-3
67.345047E-3
67.177963E-3
67.227745E-3
67.148209E-3
67.135048E-3
67.058372E-3
66.914177E-3
66.954231E-3
66.853523E-3
66.812897E-3
66.765976E-3
66.579437E-3
66.566849E-3
66.406059E-3
66.348267E-3
66.384315E-3
66.175461E-3
66.220093E-3
66.390038E-3
66.627502E-3
67.210579E-3
67.984200E-3
69.095993E-3
70.196342E-3
71.194267E-3
72.144699E-3
72.682571E-3
73.025894E-3
73.188972E-3
73.110008E-3
72.849083E-3
72.268295E-3
71.783066E-3
71.374512E-3
70.921326E-3
70.642090E-3
70.290756E-3
70.139694E-3
70.238113E-3
70.188904E-3
70.170593E-3
70.217514E-3
70.317078E-3
70.247841E-3
70.111656E-3
70.012665E-3
69.768333E-3
70.009804E-3
69.609833E-3
69.284821E-3
69.372940E-3
69.321442E-3
69.471359E-3
69.622993E-3
69.734001E-3
69.836426E-3
70.141983E-3
70.033264E-3
69.917107E-3
69.763756E-3
69.706535E-3
69.545746E-3
69.390678E-3
69.261932E-3
69.007874E-3
68.738365E-3
68.589592E-3
68.555832E-3
68.392181E-3
68.244553E-3
68.181038E-3
68.047714E-3
68.079758E-3
68.004799E-3
67.868042E-3
67.943001E-3
67.818260E-3
67.750168E-3
67.747307E-3
67.692947E-3
67.683792E-3
67.531013E-3
67.593384E-3
67.440605E-3
67.516136E-3
67.632294E-3
67.544174E-3
67.551613E-3
67.488098E-3
67.419434E-3
67.597389E-3
67.371368E-3
67.363930E-3
67.331314E-3
67.247200E-3
67.226028E-3
67.105293E-3
67.174530E-3
67.088699E-3
66.909027E-3
66.957664E-3
66.835213E-3
66.897583E-3
66.846085E-3
66.729927E-3
66.739082E-3
66.559410E-3
66.616631E-3
66.556549E-3
66.355133E-3
66.305923E-3
66.124535E-3
66.141129E-3
66.115379E-3
66.040993E-3
66.202927E-3
66.398048E-3
66.971397E-3
67.795944E-3
68.860245E-3
70.034409E-3
71.060944E-3
72.041130E-3
72.736931E-3
73.048782E-3
73.253059E-3
73.317146E-3
72.939491E-3
72.288322E-3
71.851158E-3
71.430588E-3
71.020317E-3
70.740509E-3
70.428085E-3
70.247841E-3
70.441818E-3
70.283890E-3
70.283318E-3
70.404053E-3
70.438957E-3
70.437813E-3
70.335960E-3
70.219803E-3
69.994926E-3
69.576073E-3
69.530869E-3
69.517136E-3
69.564629E-3
69.614410E-3
69.611549E-3
69.826698E-3
69.793510E-3
69.988060E-3
70.141411E-3
70.040131E-3
69.981194E-3
69.805527E-3
69.798660E-3
69.637871E-3
69.482803E-3
69.342613E-3
69.168091E-3
69.033623E-3
68.813324E-3
68.621063E-3
68.589592E-3
68.452263E-3
68.410492E-3
68.288612E-3
68.317223E-3
68.276024E-3
68.118668E-3
68.113518E-3
68.118668E-3
68.079185E-3
68.122101E-3
68.025398E-3
68.014526E-3
67.707825E-3
67.857742E-3
67.916679E-3
67.848015E-3
67.934990E-3
67.858887E-3
67.806816E-3
67.856026E-3
67.818832E-3
67.585945E-3
67.601395E-3
67.608833E-3
67.662621E-3
67.583084E-3
67.560196E-3
67.480659E-3
67.417717E-3
67.511559E-3
67.377090E-3
67.427444E-3
67.389107E-3
67.321587E-3
67.346764E-3
67.192841E-3
67.116737E-3
67.125893E-3
67.035484E-3
66.887856E-3
66.825485E-3
66.711044E-3
66.747093E-3
66.582870E-3
66.676140E-3
66.555977E-3
66.549683E-3
66.674995E-3
66.691017E-3
67.477798E-3
68.276024E-3
69.382095E-3
70.503616E-3
71.529007E-3
72.435379E-3
72.983551E-3
73.324013E-3
73.024178E-3
72.972679E-3
72.775269E-3
72.272301E-3
71.955872E-3
71.412849E-3
70.973969E-3
70.760536E-3
70.460129E-3
70.579720E-3
70.278168E-3
70.119667E-3
70.223236E-3
70.170021E-3
70.228386E-3
70.203209E-3
70.010376E-3
69.938278E-3
69.953728E-3
69.617844E-3
69.602394E-3
69.442749E-3
69.620132E-3
69.684219E-3
69.866180E-3
69.889641E-3
70.178032E-3
70.299911E-3
70.227814E-3
70.246696E-3
70.227814E-3
69.980049E-3
69.970894E-3
69.820976E-3
69.792366E-3
69.537163E-3
69.278526E-3
69.168091E-3
68.908882E-3
68.813324E-3
68.662262E-3
68.560410E-3
68.618202E-3
68.441391E-3
68.345261E-3
68.304634E-3
68.187332E-3
68.246269E-3
68.105507E-3
68.067169E-3
68.069458E-3
68.092918E-3
68.183899E-3
67.949295E-3
67.945290E-3
67.976189E-3
67.939568E-3
67.998505E-3
67.915535E-3
67.884064E-3
67.849731E-3
67.716408E-3
67.746735E-3
67.734718E-3
67.688370E-3
67.576790E-3
67.581367E-3
67.601967E-3
67.434311E-3
67.454338E-3
67.009735E-3
67.217445E-3
67.140198E-3
67.080116E-3
67.076111E-3
66.996002E-3
66.950226E-3
66.870117E-3
66.665268E-3
66.674423E-3
66.608620E-3
66.447258E-3
66.505051E-3
66.376877E-3
66.483879E-3
66.745377E-3
67.191124E-3
67.955589E-3
68.880844E-3
69.970322E-3
71.127319E-3
72.067451E-3
72.857666E-3
73.166656E-3
73.421288E-3
73.317146E-3
72.966385E-3
72.382164E-3
72.058868E-3
71.702957E-3
71.379662E-3
70.995140E-3
70.779991E-3
70.591736E-3
70.511627E-3
70.572281E-3
70.384026E-3
70.605469E-3
70.618629E-3
70.724487E-3
70.622635E-3
70.425224E-3
70.259285E-3
70.010948E-3
69.864464E-3
69.840431E-3
69.771767E-3
69.999504E-3
69.999504E-3
70.149422E-3
70.334244E-3
70.389175E-3
70.215225E-3
70.390892E-3
70.412064E-3
70.410347E-3
70.219231E-3
70.113945E-3
69.968033E-3
69.764900E-3
69.609833E-3
69.566917E-3
69.325447E-3
69.108009E-3
69.031906E-3
68.908882E-3
68.730354E-3
68.760109E-3
68.601036E-3
68.609619E-3
68.981552E-3
68.641663E-3
68.613052E-3
68.523216E-3
68.505478E-3
68.471146E-3
68.401909E-3
68.416214E-3
68.466568E-3
68.130684E-3
68.313789E-3
68.169022E-3
68.311501E-3
68.211937E-3
68.252563E-3
68.163300E-3
68.055725E-3
68.084335E-3
68.301773E-3
68.082047E-3
68.051720E-3
67.929268E-3
67.876053E-3
67.833138E-3
67.757034E-3
67.762184E-3
67.600250E-3
67.293549E-3
67.390823E-3
67.432022E-3
67.483521E-3
67.298698E-3
67.323875E-3
67.249489E-3
67.112732E-3
67.046356E-3
67.274094E-3
67.065811E-3
66.957092E-3
66.878128E-3
67.050934E-3
67.450333E-3
68.174744E-3
69.007874E-3
70.186615E-3
71.709824E-3
72.464561E-3
73.265648E-3
73.737717E-3
73.951149E-3
73.979759E-3
73.675919E-3
73.302841E-3
72.890282E-3
72.778130E-3
72.173309E-3
71.638298E-3
71.441460E-3
71.169662E-3
71.040344E-3
71.087265E-3
71.232605E-3
71.228027E-3
71.249199E-3
71.248055E-3
71.359062E-3
71.142769E-3
70.993996E-3
70.745087E-3
70.590019E-3
70.289040E-3
70.272446E-3
70.363998E-3
70.417786E-3
70.588303E-3
70.709610E-3
70.638657E-3
70.849228E-3
70.853806E-3
70.945930E-3
70.901871E-3
70.632935E-3
70.639801E-3
70.363426E-3
70.228958E-3
70.107651E-3
69.868469E-3
69.788933E-3
69.777489E-3
69.532585E-3
69.402122E-3
69.225883E-3
69.177818E-3
69.112587E-3
69.072533E-3
69.133759E-3
68.971252E-3
68.958664E-3
68.949509E-3
68.882561E-3
68.925476E-3
68.780708E-3
68.941498E-3
68.898010E-3
68.864250E-3
68.855667E-3
69.164085E-3
68.950653E-3
68.734360E-3
68.725204E-3
68.789291E-3
68.590736E-3
68.636513E-3
68.564415E-3
68.539810E-3
68.281174E-3
68.301773E-3
68.395615E-3
68.313217E-3
68.306351E-3
68.346405E-3
68.194771E-3
68.142700E-3
68.046570E-3
67.966461E-3
67.960167E-3
67.819405E-3
67.787361E-3
67.636871E-3
67.553902E-3
67.524719E-3
67.382240E-3
67.448616E-3
67.634010E-3
67.381668E-3
67.417717E-3
67.429161E-3
67.814255E-3
68.465996E-3
69.265938E-3
70.394325E-3
71.498108E-3
72.564125E-3
73.360634E-3
73.822975E-3
74.123383E-3
74.011803E-3
73.847580E-3
73.494530E-3
72.996140E-3
72.564697E-3
72.465134E-3
71.957016E-3
71.552467E-3
71.381378E-3
71.256065E-3
71.121597E-3
71.260643E-3
71.375656E-3
71.327591E-3
71.398544E-3
71.171379E-3
71.112442E-3
70.770836E-3
70.532227E-3
70.494461E-3
70.337677E-3
70.004082E-3
70.263290E-3
70.439529E-3
70.667839E-3
70.789146E-3
70.946503E-3
70.893860E-3
70.943642E-3
70.983124E-3
71.069527E-3
70.798302E-3
70.544815E-3
70.351410E-3
70.180321E-3
69.923973E-3
69.867325E-3
69.664764E-3
69.419861E-3
69.442177E-3
69.185829E-3
69.243050E-3
69.102859E-3
69.051933E-3
69.071960E-3
68.912888E-3
68.994713E-3
68.931770E-3
68.900871E-3
68.843079E-3
68.781853E-3
68.730354E-3
68.714333E-3
68.619919E-3
68.695450E-3
68.552971E-3
68.702316E-3
68.657112E-3
68.526077E-3
68.423653E-3
68.358994E-3
68.414497E-3
68.328667E-3
68.233109E-3
68.252563E-3
68.173027E-3
67.914963E-3
68.033981E-3
67.973900E-3
68.023682E-3
67.924118E-3
67.815971E-3
67.781639E-3
67.680359E-3
67.690659E-3
67.553329E-3
