Notes :


2023-11-10 ¿ÀÈÄ 11:48:26
Volts
Ch : LED 2,
770.780754E-3
770.353889E-3
770.157051E-3
769.758224E-3
769.484138E-3
769.174004E-3
768.647003E-3
768.466759E-3
768.295670E-3
768.209267E-3
768.622398E-3
769.711876E-3
772.123718E-3
775.572395E-3
779.870224E-3
784.712219E-3
789.280701E-3
793.464661E-3
796.780586E-3
799.046516E-3
800.051880E-3
799.880219E-3
799.044228E-3
797.498703E-3
795.620728E-3
793.839455E-3
792.075348E-3
790.616226E-3
789.380264E-3
788.497353E-3
788.160324E-3
788.010406E-3
787.977219E-3
788.204384E-3
788.445282E-3
788.847542E-3
788.815498E-3
788.477325E-3
787.554359E-3
786.373901E-3
785.483551E-3
784.587479E-3
784.140587E-3
784.006119E-3
784.126854E-3
784.675026E-3
785.058403E-3
785.711288E-3
786.163330E-3
786.471748E-3
786.744690E-3
786.666870E-3
786.403656E-3
786.158180E-3
785.477257E-3
784.949684E-3
784.168053E-3
783.453369E-3
782.741547E-3
781.988525E-3
781.517601E-3
780.836678E-3
780.379486E-3
779.822159E-3
779.377556E-3
779.143524E-3
778.740692E-3
778.602791E-3
778.507233E-3
778.214264E-3
778.175354E-3
778.030014E-3
777.840042E-3
777.614594E-3
777.385139E-3
777.298737E-3
777.128220E-3
777.006340E-3
776.990891E-3
776.747131E-3
776.723099E-3
776.507950E-3
776.408386E-3
776.214981E-3
776.123428E-3
776.111984E-3
775.760078E-3
775.618744E-3
775.428200E-3
775.225067E-3
775.074005E-3
774.644279E-3
774.490356E-3
774.342155E-3
774.065781E-3
774.001122E-3
773.666382E-3
773.592567E-3
773.559380E-3
773.545074E-3
773.688698E-3
773.428345E-3
773.085022E-3
772.813225E-3
772.600937E-3
772.428703E-3
772.158051E-3
771.778107E-3
771.657944E-3
771.344948E-3
771.018219E-3
770.611382E-3
770.351601E-3
770.099831E-3
769.778824E-3
770.054626E-3
770.114136E-3
770.829391E-3
772.370911E-3
775.083733E-3
778.880310E-3
783.096313E-3
787.716293E-3
792.224121E-3
795.855904E-3
798.498344E-3
799.872780E-3
800.356865E-3
799.952888E-3
798.623085E-3
797.038078E-3
795.046806E-3
793.386269E-3
791.699982E-3
790.061188E-3
789.099312E-3
788.270760E-3
787.924004E-3
787.731743E-3
787.743187E-3
788.107109E-3
788.129425E-3
788.093948E-3
787.703133E-3
787.059402E-3
786.261749E-3
785.367966E-3
784.716797E-3
784.622955E-3
784.738541E-3
785.096741E-3
785.508728E-3
786.093521E-3
786.833382E-3
787.272835E-3
787.639618E-3
787.754631E-3
787.748337E-3
787.544060E-3
787.070274E-3
786.539841E-3
785.867500E-3
785.302734E-3
784.567451E-3
783.800697E-3
783.355522E-3
782.652855E-3
782.158470E-3
781.710434E-3
781.145668E-3
780.929947E-3
780.624962E-3
780.301094E-3
780.091095E-3
779.773521E-3
779.673958E-3
779.318047E-3
779.120636E-3
779.078865E-3
778.775597E-3
778.665161E-3
778.409386E-3
778.392220E-3
778.349304E-3
778.128433E-3
777.957916E-3
777.743340E-3
777.655792E-3
777.505875E-3
777.345085E-3
777.311897E-3
777.148247E-3
776.942825E-3
776.745987E-3
776.555443E-3
776.387787E-3
776.150894E-3
775.868797E-3
775.695992E-3
775.468826E-3
775.293732E-3
775.033951E-3
775.003052E-3
774.869156E-3
774.678612E-3
774.660873E-3
774.440575E-3
774.310112E-3
774.147034E-3
773.834610E-3
773.848915E-3
773.389435E-3
773.139381E-3
772.936821E-3
772.534561E-3
772.451019E-3
772.198105E-3
772.114563E-3
772.103119E-3
771.920586E-3
772.150612E-3
772.638130E-3
774.310112E-3
776.904488E-3
780.506516E-3
784.968567E-3
789.339066E-3
793.329620E-3
796.957397E-3
799.330330E-3
800.788307E-3
801.096725E-3
800.484467E-3
799.319458E-3
797.511292E-3
795.741463E-3
793.715858E-3
791.971779E-3
790.723228E-3
789.387131E-3
788.666725E-3
788.135147E-3
787.993240E-3
788.035011E-3
788.001251E-3
788.120270E-3
787.959480E-3
787.413025E-3
786.611938E-3
785.585976E-3
784.996033E-3
784.341431E-3
784.390640E-3
784.592056E-3
784.902763E-3
785.639191E-3
786.268044E-3
786.801910E-3
787.348366E-3
787.558365E-3
787.798691E-3
787.557220E-3
787.186432E-3
786.918068E-3
786.151886E-3
785.682678E-3
784.798050E-3
784.081650E-3
783.482552E-3
782.764435E-3
782.266045E-3
781.727028E-3
781.250954E-3
780.893898E-3
780.481339E-3
780.303955E-3
780.040169E-3
779.889107E-3
779.763222E-3
779.393005E-3
779.409599E-3
779.312325E-3
779.097176E-3
779.019928E-3
778.780746E-3
778.755569E-3
778.530121E-3
778.403664E-3
778.368187E-3
778.082657E-3
778.149605E-3
777.922440E-3
777.745628E-3
777.664375E-3
777.434349E-3
777.339363E-3
777.244377E-3
777.008629E-3
776.869011E-3
776.513100E-3
776.418114E-3
776.089668E-3
775.813866E-3
775.574112E-3
775.251961E-3
775.049973E-3
774.710083E-3
774.558449E-3
774.542427E-3
774.191666E-3
774.066925E-3
773.858643E-3
773.733902E-3
773.692703E-3
773.307610E-3
773.337936E-3
773.043823E-3
772.697639E-3
772.480202E-3
771.995544E-3
771.749496E-3
771.505737E-3
771.286011E-3
771.094322E-3
770.845413E-3
771.025658E-3
771.312904E-3
772.527122E-3
774.904633E-3
778.214264E-3
782.569313E-3
787.268829E-3
791.999245E-3
796.298218E-3
799.563789E-3
801.794243E-3
802.884293E-3
802.860832E-3
802.054024E-3
800.363159E-3
798.711205E-3
796.854973E-3
794.960403E-3
793.641472E-3
792.420959E-3
791.638756E-3
791.049385E-3
790.882874E-3
790.965271E-3
791.227913E-3
791.636467E-3
792.020416E-3
791.829872E-3
791.528320E-3
790.680313E-3
789.635468E-3
788.559151E-3
787.628174E-3
787.188721E-3
786.972427E-3
787.188148E-3
787.621880E-3
788.066483E-3
788.773155E-3
789.072990E-3
789.495277E-3
789.654922E-3
789.495277E-3
789.321327E-3
788.818932E-3
788.374901E-3
787.799263E-3
787.224197E-3
786.602211E-3
785.721588E-3
785.174561E-3
784.398079E-3
783.794975E-3
783.378410E-3
782.851982E-3
782.593346E-3
782.331848E-3
782.071495E-3
781.823158E-3
781.476402E-3
781.509590E-3
781.166840E-3
780.899048E-3
780.804062E-3
780.547142E-3
780.460167E-3
780.180359E-3
779.875946E-3
779.879379E-3
779.415894E-3
779.346085E-3
779.129791E-3
779.069138E-3
778.883743E-3
778.730965E-3
778.652000E-3
778.513527E-3
778.357315E-3
778.316116E-3
777.952766E-3
777.853203E-3
777.533340E-3
777.312469E-3
777.216911E-3
776.895905E-3
776.784325E-3
776.522255E-3
776.328850E-3
776.177216E-3
775.912285E-3
775.758362E-3
775.696564E-3
775.495720E-3
775.329208E-3
775.009346E-3
774.924088E-3
774.754715E-3
774.572754E-3
774.318123E-3
773.906708E-3
773.663521E-3
773.387146E-3
772.933388E-3
772.694206E-3
772.217560E-3
771.955490E-3
771.749496E-3
771.505165E-3
771.766090E-3
771.827316E-3
772.674179E-3
774.648857E-3
777.812576E-3
781.840324E-3
786.243439E-3
790.895462E-3
795.170403E-3
798.435402E-3
800.803757E-3
801.815987E-3
801.934433E-3
801.140213E-3
799.641609E-3
797.934723E-3
796.164894E-3
794.349861E-3
792.864418E-3
791.610718E-3
790.842819E-3
790.198517E-3
789.993668E-3
790.036583E-3
790.213966E-3
790.625954E-3
790.692902E-3
790.633392E-3
790.192223E-3
789.293289E-3
788.402367E-3
787.483406E-3
786.901474E-3
786.604500E-3
786.557007E-3
787.012482E-3
787.494850E-3
788.136292E-3
788.615799E-3
788.913345E-3
789.258957E-3
789.226341E-3
789.218330E-3
788.944244E-3
788.472748E-3
787.957191E-3
787.266541E-3
786.563301E-3
785.951042E-3
785.417175E-3
784.889603E-3
784.158897E-3
783.715439E-3
783.273697E-3
782.868004E-3
782.742691E-3
782.280922E-3
782.089806E-3
781.842041E-3
781.524467E-3
781.359673E-3
781.042671E-3
780.869293E-3
780.650139E-3
780.352020E-3
780.265045E-3
780.077934E-3
780.002975E-3
779.848480E-3
779.564095E-3
779.594994E-3
779.272270E-3
779.118919E-3
778.932381E-3
778.879738E-3
778.712082E-3
778.411674E-3
778.261185E-3
778.030586E-3
777.794266E-3
777.710152E-3
777.432060E-3
777.249527E-3
777.072144E-3
776.746559E-3
776.624107E-3
776.423264E-3
776.252174E-3
776.097107E-3
775.943184E-3
775.899124E-3
775.691414E-3
775.453949E-3
775.258255E-3
775.009346E-3
774.906349E-3
774.544716E-3
774.328995E-3
774.020576E-3
773.711014E-3
773.515892E-3
773.297882E-3
773.211479E-3
773.243523E-3
773.143387E-3
773.477554E-3
773.870659E-3
775.366974E-3
777.606010E-3
781.197166E-3
785.478973E-3
789.685822E-3
793.801689E-3
797.340775E-3
799.824142E-3
801.375389E-3
801.556778E-3
801.219177E-3
799.941444E-3
798.205948E-3
796.509933E-3
794.601059E-3
793.195152E-3
791.633034E-3
790.482903E-3
789.925003E-3
789.555931E-3
789.328766E-3
789.323044E-3
789.205170E-3
789.272690E-3
788.996887E-3
788.339424E-3
787.289429E-3
786.295509E-3
785.742760E-3
785.251808E-3
785.359383E-3
785.599709E-3
786.019135E-3
786.816216E-3
787.343216E-3
787.971497E-3
788.417244E-3
788.721657E-3
788.675308E-3
788.297081E-3
787.993813E-3
787.430191E-3
786.819077E-3
786.222839E-3
785.398293E-3
784.766006E-3
784.126282E-3
783.342361E-3
782.872581E-3
782.280350E-3
781.929016E-3
781.483841E-3
781.078720E-3
780.934525E-3
780.771446E-3
780.714226E-3
780.532837E-3
780.187225E-3
780.264473E-3
779.989243E-3
779.969788E-3
779.887390E-3
779.470825E-3
779.514885E-3
779.331779E-3
779.298019E-3
779.166412E-3
778.985596E-3
778.922653E-3
778.709221E-3
778.611946E-3
778.592491E-3
778.501511E-3
778.487206E-3
778.181076E-3
778.112411E-3
777.862930E-3
777.584267E-3
777.534485E-3
777.237511E-3
777.063560E-3
776.790619E-3
776.510239E-3
776.436996E-3
776.207542E-3
776.075935E-3
775.972366E-3
775.825882E-3
775.821877E-3
775.584412E-3
775.390434E-3
775.346375E-3
775.061989E-3
774.993896E-3
774.765587E-3
774.511528E-3
774.248886E-3
773.819160E-3
773.515320E-3
773.240089E-3
772.872162E-3
772.681046E-3
772.678757E-3
772.937393E-3
773.342514E-3
774.664307E-3
777.178001E-3
780.520248E-3
784.959412E-3
789.770508E-3
794.283485E-3
798.256874E-3
801.231194E-3
803.168106E-3
803.832436E-3
803.649330E-3
802.764702E-3
801.111031E-3
799.416733E-3
797.681808E-3
796.166611E-3
794.904900E-3
793.858910E-3
793.234634E-3
793.069839E-3
793.068123E-3
793.417740E-3
793.727303E-3
794.243431E-3
794.429398E-3
794.365311E-3
793.951035E-3
793.118477E-3
791.951752E-3
790.875435E-3
790.060616E-3
789.618301E-3
789.452934E-3
789.773369E-3
790.173340E-3
790.641975E-3
791.243935E-3
791.523170E-3
791.881943E-3
791.790390E-3
791.636467E-3
791.331482E-3
790.827370E-3
790.346718E-3
789.755630E-3
789.169693E-3
788.366318E-3
787.512589E-3
786.990738E-3
786.277771E-3
785.815430E-3
785.345650E-3
784.883881E-3
784.774590E-3
784.181213E-3
783.930016E-3
783.830452E-3
783.590126E-3
783.413887E-3
783.123207E-3
782.952118E-3
782.773018E-3
782.467461E-3
782.363892E-3
782.163048E-3
782.007408E-3
781.864929E-3
781.619453E-3
781.515312E-3
781.285858E-3
781.166840E-3
781.094742E-3
781.018639E-3
780.925369E-3
780.715370E-3
780.492783E-3
780.307388E-3
780.020142E-3
779.802132E-3
779.576683E-3
779.375267E-3
779.200745E-3
778.989029E-3
778.898621E-3
778.724670E-3
778.382492E-3
778.203392E-3
777.945900E-3
778.091812E-3
777.810860E-3
777.680969E-3
777.549362E-3
777.311325E-3
777.265549E-3
776.971436E-3
776.877022E-3
776.753998E-3
776.399803E-3
776.463318E-3
776.074219E-3
775.882530E-3
775.569534E-3
775.103188E-3
774.873734E-3
774.498940E-3
774.172211E-3
774.174500E-3
774.026299E-3
774.331856E-3
774.949837E-3
776.660728E-3
779.568672E-3
783.370399E-3
788.061905E-3
792.591476E-3
796.904755E-3
800.561142E-3
802.980995E-3
804.339409E-3
804.393768E-3
803.679085E-3
802.552986E-3
800.755119E-3
799.104309E-3
797.440338E-3
796.004105E-3
794.808197E-3
793.896103E-3
793.388557E-3
793.212891E-3
793.247795E-3
793.663216E-3
793.888664E-3
794.304085E-3
794.321823E-3
794.008827E-3
793.408012E-3
792.290497E-3
791.241074E-3
790.290642E-3
789.601707E-3
789.587402E-3
789.657211E-3
789.924431E-3
790.498924E-3
790.926933E-3
791.305733E-3
791.487122E-3
791.859055E-3
791.732025E-3
791.378975E-3
791.095734E-3
790.454292E-3
789.965057E-3
789.439774E-3
788.731956E-3
788.120842E-3
787.363243E-3
786.932373E-3
786.325264E-3
785.893250E-3
785.591698E-3
785.262680E-3
785.062981E-3
784.812355E-3
784.613800E-3
784.274483E-3
784.014130E-3
783.857918E-3
783.586693E-3
783.378410E-3
783.283424E-3
782.891464E-3
782.783318E-3
782.694054E-3
782.604218E-3
782.403946E-3
782.192230E-3
782.016563E-3
781.910133E-3
781.791115E-3
781.677818E-3
781.423187E-3
781.315041E-3
781.138802E-3
780.878448E-3
780.744553E-3
780.417252E-3
780.241013E-3
780.018997E-3
779.822159E-3
779.684830E-3
779.265976E-3
779.130363E-3
778.924370E-3
778.721809E-3
778.609657E-3
778.296089E-3
778.194809E-3
778.063774E-3
777.919006E-3
777.844048E-3
777.646065E-3
777.496147E-3
777.278709E-3
777.018929E-3
776.872444E-3
776.386070E-3
776.161766E-3
775.840759E-3
775.707436E-3
775.527191E-3
775.301743E-3
775.388718E-3
775.421333E-3
775.638199E-3
776.568604E-3
778.396797E-3
781.530762E-3
785.454941E-3
789.654922E-3
793.809700E-3
797.428322E-3
800.209808E-3
801.840019E-3
802.440262E-3
802.274323E-3
801.135635E-3
799.838448E-3
798.146439E-3
796.468735E-3
794.900322E-3
793.533897E-3
792.623520E-3
791.824150E-3
791.342354E-3
791.262817E-3
791.031647E-3
791.269112E-3
791.409874E-3
791.331482E-3
791.024208E-3
790.065193E-3
789.043236E-3
788.230705E-3
787.420464E-3
787.221909E-3
787.244797E-3
787.594986E-3
788.243294E-3
788.833809E-3
789.629173E-3
790.046310E-3
790.406227E-3
790.429687E-3
790.062904E-3
789.902687E-3
789.299583E-3
788.865852E-3
788.208389E-3
787.540054E-3
786.820793E-3
786.106682E-3
785.548210E-3
784.732819E-3
784.114838E-3
783.841324E-3
783.453941E-3
783.152962E-3
782.976723E-3
782.786179E-3
782.623672E-3
782.266045E-3
782.316971E-3
782.107544E-3
782.057190E-3
781.977654E-3
781.677246E-3
781.509018E-3
781.365395E-3
781.223488E-3
781.301880E-3
781.006050E-3
780.945969E-3
780.651283E-3
780.449867E-3
780.372620E-3
780.117416E-3
780.063057E-3
779.936028E-3
779.661369E-3
779.604721E-3
779.329491E-3
779.250526E-3
778.954697E-3
778.681183E-3
778.602791E-3
778.279495E-3
778.064346E-3
777.969933E-3
777.712440E-3
777.681541E-3
777.446365E-3
777.292442E-3
777.184296E-3
776.987457E-3
777.026939E-3
776.610374E-3
776.719093E-3
776.499367E-3
776.233292E-3
776.022720E-3
775.733757E-3
775.540924E-3
775.052834E-3
774.696922E-3
774.628258E-3
774.252892E-3
774.295235E-3
774.293518E-3
774.286652E-3
775.030518E-3
776.715088E-3
779.686546E-3
783.583260E-3
788.012123E-3
792.767715E-3
797.024918E-3
800.610924E-3
803.090286E-3
804.447556E-3
804.814339E-3
804.039001E-3
802.823639E-3
801.203728E-3
799.503136E-3
797.854042E-3
796.297646E-3
795.240211E-3
794.468307E-3
793.918991E-3
794.064903E-3
794.145584E-3
794.448280E-3
794.888306E-3
795.227051E-3
795.548058E-3
795.243645E-3
794.646835E-3
793.522453E-3
792.282486E-3
791.377831E-3
790.629959E-3
790.335274E-3
790.264320E-3
790.490913E-3
790.952682E-3
791.333199E-3
791.864204E-3
792.146301E-3
792.268181E-3
792.413521E-3
792.031860E-3
791.740036E-3
791.223907E-3
790.650558E-3
790.077209E-3
789.468956E-3
788.812637E-3
788.125420E-3
787.432480E-3
787.125778E-3
786.532402E-3
786.107826E-3
785.781670E-3
785.416031E-3
785.277557E-3
784.770584E-3
784.684753E-3
