Notes :


2023-11-06 ¿ÀÈÄ 10:50:51
Volts
Ch : LED 2,
353.716850E-3
353.744888E-3
353.663635E-3
353.603554E-3
353.470230E-3
353.356934E-3
353.521729E-3
353.120613E-3
352.917480E-3
352.746391E-3
352.630234E-3
352.469444E-3
352.366447E-3
351.931572E-3
352.004242E-3
352.008820E-3
351.931000E-3
351.849747E-3
351.789093E-3
351.708412E-3
351.616287E-3
351.517296E-3
351.111603E-3
351.334763E-3
351.402855E-3
351.401138E-3
351.338768E-3
351.318741E-3
351.288986E-3
351.256371E-3
351.151657E-3
350.773430E-3
350.956535E-3
351.217461E-3
351.144791E-3
351.110458E-3
351.120758E-3
351.016617E-3
351.029205E-3
351.005745E-3
350.940514E-3
350.957108E-3
350.781441E-3
350.917625E-3
350.798607E-3
350.788879E-3
350.674438E-3
350.442696E-3
350.468445E-3
350.420952E-3
350.331116E-3
350.251579E-3
350.237846E-3
350.292778E-3
350.612068E-3
351.218033E-3
351.983070E-3
352.742958E-3
353.767204E-3
354.472733E-3
355.179977E-3
355.717850E-3
355.925560E-3
356.126976E-3
356.033134E-3
355.813408E-3
355.705261E-3
355.147362E-3
355.078125E-3
354.878998E-3
354.596901E-3
354.430962E-3
354.266739E-3
354.254723E-3
354.267311E-3
354.235840E-3
354.501343E-3
354.434395E-3
354.461288E-3
354.309082E-3
354.193497E-3
353.917694E-3
353.762627E-3
353.747749E-3
353.607559E-3
353.540611E-3
353.554344E-3
353.494263E-3
353.575516E-3
353.561783E-3
353.639603E-3
353.696823E-3
353.747749E-3
353.751755E-3
353.695679E-3
353.659630E-3
353.606415E-3
353.417587E-3
353.282547E-3
353.189278E-3
352.903748E-3
352.737236E-3
352.610207E-3
352.555275E-3
352.564430E-3
352.479172E-3
352.369881E-3
352.210236E-3
352.154732E-3
352.064323E-3
351.986504E-3
351.874924E-3
351.815987E-3
351.801109E-3
351.747322E-3
351.626587E-3
351.716423E-3
351.611137E-3
351.614571E-3
351.314735E-3
351.372528E-3
351.338768E-3
351.265526E-3
351.412582E-3
351.281548E-3
351.294708E-3
351.302147E-3
351.268959E-3
351.404572E-3
351.321030E-3
351.204872E-3
351.140785E-3
351.002312E-3
351.042938E-3
350.998878E-3
351.024628E-3
350.989723E-3
350.838661E-3
350.894737E-3
350.842094E-3
350.765419E-3
350.728226E-3
350.506783E-3
350.430107E-3
350.424957E-3
350.386620E-3
350.793457E-3
350.974274E-3
351.643181E-3
352.287483E-3
353.039932E-3
353.875351E-3
354.597473E-3
355.421448E-3
356.013107E-3
356.212807E-3
356.392479E-3
356.348419E-3
356.294060E-3
356.088066E-3
355.872345E-3
355.519867E-3
355.173683E-3
354.965973E-3
354.743958E-3
354.662132E-3
354.622078E-3
354.611206E-3
354.683304E-3
354.721642E-3
354.743958E-3
354.845810E-3
354.663277E-3
354.436111E-3
354.313660E-3
354.111099E-3
354.099655E-3
354.031563E-3
354.127693E-3
354.211807E-3
354.092789E-3
354.289055E-3
354.231834E-3
354.366875E-3
354.328537E-3
354.427528E-3
354.381752E-3
354.250145E-3
354.354858E-3
354.168320E-3
354.107666E-3
354.036140E-3
353.780937E-3
353.596687E-3
353.560066E-3
353.406715E-3
353.326607E-3
353.265953E-3
353.230476E-3
353.159523E-3
352.930069E-3
352.942085E-3
352.880287E-3
352.830505E-3
352.867699E-3
352.718925E-3
352.674866E-3
352.573013E-3
352.551270E-3
352.583885E-3
352.494621E-3
352.534103E-3
352.456856E-3
352.474594E-3
352.500343E-3
352.389336E-3
352.406502E-3
352.341270E-3
352.312660E-3
352.294350E-3
352.163887E-3
352.212524E-3
352.215385E-3
352.175903E-3
352.195930E-3
351.987076E-3
352.107811E-3
352.133560E-3
352.111244E-3
351.981926E-3
351.850891E-3
351.729012E-3
351.679802E-3
351.701546E-3
351.521873E-3
351.501274E-3
351.491547E-3
351.408005E-3
351.622581E-3
352.209091E-3
352.855682E-3
353.672218E-3
354.421234E-3
355.225754E-3
355.885506E-3
356.298065E-3
356.723785E-3
356.849098E-3
356.766701E-3
356.566429E-3
356.393623E-3
356.217957E-3
355.898094E-3
355.614853E-3
355.273247E-3
354.986572E-3
354.844666E-3
354.705620E-3
354.691887E-3
354.533958E-3
354.677582E-3
354.633522E-3
354.545975E-3
354.408646E-3
354.205513E-3
353.958321E-3
353.940582E-3
353.910828E-3
353.840446E-3
353.961182E-3
353.982925E-3
354.218102E-3
354.247856E-3
354.196358E-3
354.345703E-3
354.265594E-3
354.384041E-3
354.147720E-3
354.195213E-3
354.027557E-3
353.914261E-3
353.926849E-3
353.653336E-3
353.485107E-3
353.343201E-3
353.172684E-3
353.137779E-3
352.937508E-3
352.716064E-3
352.829361E-3
352.629089E-3
352.570152E-3
352.426529E-3
352.313805E-3
352.253723E-3
352.074623E-3
352.119827E-3
352.015114E-3
351.973343E-3
351.949883E-3
351.826859E-3
351.926422E-3
351.792526E-3
351.758194E-3
351.943588E-3
351.714706E-3
351.824570E-3
351.612854E-3
351.703262E-3
351.663780E-3
351.562500E-3
351.507568E-3
351.443481E-3
351.652908E-3
351.519012E-3
351.342773E-3
351.377106E-3
351.236916E-3
351.115608E-3
351.028061E-3
350.891876E-3
350.924492E-3
350.730515E-3
350.670433E-3
350.685883E-3
350.618362E-3
350.680161E-3
350.934792E-3
351.408577E-3
352.117538E-3
352.839088E-3
353.814697E-3
354.595757E-3
355.257797E-3
355.807686E-3
356.074905E-3
356.330109E-3
356.221962E-3
355.890083E-3
355.876350E-3
355.587387E-3
355.495262E-3
355.139923E-3
354.957390E-3
354.742813E-3
354.578590E-3
354.537964E-3
354.244423E-3
354.400635E-3
354.496765E-3
354.412079E-3
354.505348E-3
354.353714E-3
354.192352E-3
354.004097E-3
353.771210E-3
353.873062E-3
353.717422E-3
353.691101E-3
353.753471E-3
353.729439E-3
353.745461E-3
353.787804E-3
353.832436E-3
353.870773E-3
353.854752E-3
353.851891E-3
353.777504E-3
353.659058E-3
353.655052E-3
353.454781E-3
353.430748E-3
353.150940E-3
352.962685E-3
352.994156E-3
352.712059E-3
352.650261E-3
352.491760E-3
352.391624E-3
352.381325E-3
352.277184E-3
352.106094E-3
351.997375E-3
351.782799E-3
351.833725E-3
351.814842E-3
351.794243E-3
351.757050E-3
351.673508E-3
351.744461E-3
351.676369E-3
351.692390E-3
351.639748E-3
351.599121E-3
351.528740E-3
351.451492E-3
351.448631E-3
351.341057E-3
351.291275E-3
351.318741E-3
351.370239E-3
351.337624E-3
351.266098E-3
351.224899E-3
351.210022E-3
351.048088E-3
351.180267E-3
351.125908E-3
350.906181E-3
351.008606E-3
350.887299E-3
350.794601E-3
350.602341E-3
350.543404E-3
350.542259E-3
350.449562E-3
350.426102E-3
350.343704E-3
350.483322E-3
350.777435E-3
351.294708E-3
352.090073E-3
352.832222E-3
353.627586E-3
354.460144E-3
355.050659E-3
355.756760E-3
356.081200E-3
356.234550E-3
356.175041E-3
355.965614E-3
355.789375E-3
355.570793E-3
355.345917E-3
355.126190E-3
355.002022E-3
354.676437E-3
354.463005E-3
354.523087E-3
354.559708E-3
354.611206E-3
354.668999E-3
354.818344E-3
354.654121E-3
354.422379E-3
354.319954E-3
354.226112E-3
354.056740E-3
354.001236E-3
353.992081E-3
353.934288E-3
353.948593E-3
353.986931E-3
354.103661E-3
354.058456E-3
354.097366E-3
354.183769E-3
354.265022E-3
354.132843E-3
354.096222E-3
354.047012E-3
354.044151E-3
353.868484E-3
353.756332E-3
353.647041E-3
353.502846E-3
353.336906E-3
353.224754E-3
353.110886E-3
353.182983E-3
352.912903E-3
352.923203E-3
352.800179E-3
352.730942E-3
352.700615E-3
352.585030E-3
352.532959E-3
352.548409E-3
352.328682E-3
352.429390E-3
352.308083E-3
352.366447E-3
352.329254E-3
352.266312E-3
352.285767E-3
352.197075E-3
352.227974E-3
352.187920E-3
352.146149E-3
352.186203E-3
352.130699E-3
352.173615E-3
352.181625E-3
352.063751E-3
352.165604E-3
352.027702E-3
352.048302E-3
352.001953E-3
351.955605E-3
351.913834E-3
351.832581E-3
351.778793E-3
351.726723E-3
351.553345E-3
351.600266E-3
351.458359E-3
351.406288E-3
351.283264E-3
351.303864E-3
351.276398E-3
351.260376E-3
351.558495E-3
352.014542E-3
352.717781E-3
353.544044E-3
354.398918E-3
355.148506E-3
355.792236E-3
356.406784E-3
356.694031E-3
356.756973E-3
356.767845E-3
356.540108E-3
356.214523E-3
356.059456E-3
355.895233E-3
355.621147E-3
355.420876E-3
355.123329E-3
355.129051E-3
354.865265E-3
354.920769E-3
354.790878E-3
354.876137E-3
354.924202E-3
354.816055E-3
354.672432E-3
354.472160E-3
354.198647E-3
354.107094E-3
353.988647E-3
354.105377E-3
353.941727E-3
353.976059E-3
354.078484E-3
354.083633E-3
354.154015E-3
354.228401E-3
354.232979E-3
354.313660E-3
354.113388E-3
354.077339E-3
354.073906E-3
353.839874E-3
353.780365E-3
353.587532E-3
353.497696E-3
353.397560E-3
353.239059E-3
353.104019E-3
352.907181E-3
352.853966E-3
352.763557E-3
352.584457E-3
352.516365E-3
352.314377E-3
352.054024E-3
352.144432E-3
352.164459E-3
352.088356E-3
351.972771E-3
351.957893E-3
351.928139E-3
351.838875E-3
351.912117E-3
351.779938E-3
351.728439E-3
351.679802E-3
351.555634E-3
351.590538E-3
351.498413E-3
351.468086E-3
351.481247E-3
351.410866E-3
351.517296E-3
351.447487E-3
351.325035E-3
351.292419E-3
351.230621E-3
351.198006E-3
351.123047E-3
351.120758E-3
350.954247E-3
350.771141E-3
350.755692E-3
350.601196E-3
350.569153E-3
350.572014E-3
350.449562E-3
350.451279E-3
350.376892E-3
350.481033E-3
350.820923E-3
351.322746E-3
352.131271E-3
352.991295E-3
353.779221E-3
354.523659E-3
355.121613E-3
355.665779E-3
355.884933E-3
355.998802E-3
355.867195E-3
355.613136E-3
355.367088E-3
355.106163E-3
354.950523E-3
354.758835E-3
354.441833E-3
354.224968E-3
354.200935E-3
354.113960E-3
354.116821E-3
354.097939E-3
354.159737E-3
354.147720E-3
354.091644E-3
353.983498E-3
353.725433E-3
353.498268E-3
353.366089E-3
353.378677E-3
353.381538E-3
353.370667E-3
353.437042E-3
353.498840E-3
353.544617E-3
353.645325E-3
353.572655E-3
353.652191E-3
353.514862E-3
353.596115E-3
353.523445E-3
353.446770E-3
353.375244E-3
353.109169E-3
353.022766E-3
352.934074E-3
352.712631E-3
352.573013E-3
352.439690E-3
352.407646E-3
352.389336E-3
352.196503E-3
352.313232E-3
352.163887E-3
352.072334E-3
351.941299E-3
351.822281E-3
351.838875E-3
351.728439E-3
351.737022E-3
351.643753E-3
351.540756E-3
351.635170E-3
351.470947E-3
351.516724E-3
351.486969E-3
351.462936E-3
351.419449E-3
351.379395E-3
351.286697E-3
351.254082E-3
351.187134E-3
351.176262E-3
351.186562E-3
351.144791E-3
351.076126E-3
351.028633E-3
351.073837E-3
351.046944E-3
350.795174E-3
350.940514E-3
350.839233E-3
350.858116E-3
350.784302E-3
350.822639E-3
350.680733E-3
350.594330E-3
350.465012E-3
350.384331E-3
350.226974E-3
350.224686E-3
350.190926E-3
350.273895E-3
350.332260E-3
350.682449E-3
351.055527E-3
351.822281E-3
352.729225E-3
353.521729E-3
354.325676E-3
355.024910E-3
355.648041E-3
356.021118E-3
356.156158E-3
356.344414E-3
356.142998E-3
355.870056E-3
355.671501E-3
355.446053E-3
355.246925E-3
355.042076E-3
354.712486E-3
354.819489E-3
354.735374E-3
354.681587E-3
354.680443E-3
354.731369E-3
354.813766E-3
354.723358E-3
354.753685E-3
354.580879E-3
354.298210E-3
354.343414E-3
354.068756E-3
353.967476E-3
353.962326E-3
353.961754E-3
354.034424E-3
353.981781E-3
353.986931E-3
354.028702E-3
354.060745E-3
354.032707E-3
353.993797E-3
353.882790E-3
353.965759E-3
353.827858E-3
353.744316E-3
353.637886E-3
353.423309E-3
353.495407E-3
353.217316E-3
353.156662E-3
352.992439E-3
352.829933E-3
352.787590E-3
352.783585E-3
352.783585E-3
352.643967E-3
352.629662E-3
352.519798E-3
352.482605E-3
352.467728E-3
352.400780E-3
352.372742E-3
352.285194E-3
352.308655E-3
352.265167E-3
352.198792E-3
352.185059E-3
352.195358E-3
352.157021E-3
352.115250E-3
352.055168E-3
351.999092E-3
352.163887E-3
351.949883E-3
351.971626E-3
351.833153E-3
351.928139E-3
351.853752E-3
351.815987E-3
351.767349E-3
351.685524E-3
351.770210E-3
351.714134E-3
351.603699E-3
351.646042E-3
351.545334E-3
351.499557E-3
351.464081E-3
351.467514E-3
351.450348E-3
351.384544E-3
351.307869E-3
351.175690E-3
351.038361E-3
351.073265E-3
350.975990E-3
351.036072E-3
351.189423E-3
351.603127E-3
352.441978E-3
353.101730E-3
353.830719E-3
354.888725E-3
355.606270E-3
356.310654E-3
356.706047E-3
356.980133E-3
357.004738E-3
356.740379E-3
356.674576E-3
356.462288E-3
356.231689E-3
355.983925E-3
355.800247E-3
355.729866E-3
355.569649E-3
355.523872E-3
355.597115E-3
355.474091E-3
355.578232E-3
355.581093E-3
355.642319E-3
355.602264E-3
355.417442E-3
355.265808E-3
354.969978E-3
354.701042E-3
354.711342E-3
354.706192E-3
354.767990E-3
354.805756E-3
354.867554E-3
354.936218E-3
355.070686E-3
355.134773E-3
355.076981E-3
355.026627E-3
355.072975E-3
354.901886E-3
354.909325E-3
354.752541E-3
354.644966E-3
354.698753E-3
354.420662E-3
354.250717E-3
354.066467E-3
353.961754E-3
353.905678E-3
353.754044E-3
353.835869E-3
353.705406E-3
353.695107E-3
353.647614E-3
353.477669E-3
353.502846E-3
353.352928E-3
353.259087E-3
353.250504E-3
353.172112E-3
353.216171E-3
353.133202E-3
353.140640E-3
353.142929E-3
353.181267E-3
353.083420E-3
353.028488E-3
352.982140E-3
352.991867E-3
353.034210E-3
353.193283E-3
352.933502E-3
352.868843E-3
352.809906E-3
352.748680E-3
352.745819E-3
352.677727E-3
352.690887E-3
352.663994E-3
352.617645E-3
352.581024E-3
352.547264E-3
352.411652E-3
352.326965E-3
352.219963E-3
352.143860E-3
352.079201E-3
351.889801E-3
351.681519E-3
351.738167E-3
351.734734E-3
351.718140E-3
351.748466E-3
352.008247E-3
352.548409E-3
353.321457E-3
354.133415E-3
354.903603E-3
355.698967E-3
356.282043E-3
356.853104E-3
357.082558E-3
357.077408E-3
357.104301E-3
356.931496E-3
356.736374E-3
356.447411E-3
356.104088E-3
355.799103E-3
355.514717E-3
355.464935E-3
355.325317E-3
355.236053E-3
355.397415E-3
355.202293E-3
355.276680E-3
355.226326E-3
355.194855E-3
355.060387E-3
354.726219E-3
354.472733E-3
354.299927E-3
354.438972E-3
354.344559E-3
354.284477E-3
354.437256E-3
354.368591E-3
354.418945E-3
354.474449E-3
354.494476E-3
354.486465E-3
354.642105E-3
354.413223E-3
354.396629E-3
354.245567E-3
354.147720E-3
354.002380E-3
353.821564E-3
353.638458E-3
353.415871E-3
353.269958E-3
353.175545E-3
353.029633E-3
353.029060E-3
352.885437E-3
352.773285E-3
352.656555E-3
352.623940E-3
352.571869E-3
352.419662E-3
352.356720E-3
352.377892E-3
352.250290E-3
352.270889E-3
352.142715E-3
352.164459E-3
352.071762E-3
352.066612E-3
352.038002E-3
351.880074E-3
351.979637E-3
351.910973E-3
351.898956E-3
351.872635E-3
351.792526E-3
351.753616E-3
351.698685E-3
351.571655E-3
351.596832E-3
351.586533E-3
351.552200E-3
351.494980E-3
351.416588E-3
351.483536E-3
351.398849E-3
351.405716E-3
351.268387E-3
351.151657E-3
351.049805E-3
350.855255E-3
350.736809E-3
350.765991E-3
350.623512E-3
350.495338E-3
350.491905E-3
350.644684E-3
350.740242E-3
350.970840E-3
351.603699E-3
352.292061E-3
353.133202E-3
353.938293E-3
354.657555E-3
355.525589E-3
356.109238E-3
356.566429E-3
356.639099E-3
356.550980E-3
356.369019E-3
356.178474E-3
356.010818E-3
355.876350E-3
355.518150E-3
355.213737E-3
355.052376E-3
355.031776E-3
355.019188E-3
355.034637E-3
355.146217E-3
355.054092E-3
355.053520E-3
355.078125E-3
355.038071E-3
354.874420E-3
354.573441E-3
354.401779E-3
354.259300E-3
354.176903E-3
354.150009E-3
354.278755E-3
354.187775E-3
354.196930E-3
354.157448E-3
354.198074E-3
354.157448E-3
354.206657E-3
354.192924E-3
354.152870E-3
354.184341E-3
353.949738E-3
