Notes :


2023-11-10 ¿ÀÈÄ 10:04:01
Volts
Ch : LED 2,
319.522476E-3
319.595146E-3
319.390297E-3
319.181442E-3
319.056129E-3
318.865585E-3
318.960571E-3
318.834114E-3
318.866158E-3
319.124222E-3
319.441795E-3
320.245743E-3
321.421623E-3
322.829247E-3
324.530411E-3
325.990677E-3
327.945900E-3
329.384995E-3
330.346870E-3
330.740547E-3
330.623817E-3
330.290794E-3
329.603577E-3
328.790474E-3
328.050041E-3
327.263832E-3
326.699638E-3
326.239014E-3
325.920296E-3
325.815010E-3
325.726318E-3
325.768661E-3
325.908852E-3
326.176071E-3
326.150894E-3
325.985527E-3
325.904846E-3
325.453377E-3
324.866867E-3
324.433708E-3
323.910141E-3
323.558235E-3
323.313904E-3
323.079300E-3
323.138237E-3
323.117638E-3
323.252106E-3
323.364830E-3
323.514748E-3
323.657227E-3
323.612022E-3
323.495293E-3
323.270988E-3
323.056984E-3
322.917938E-3
322.675323E-3
322.442436E-3
322.201538E-3
322.031021E-3
321.801567E-3
321.506310E-3
321.435928E-3
321.211624E-3
320.938110E-3
320.868874E-3
320.710945E-3
320.649719E-3
320.231438E-3
320.296669E-3
320.305252E-3
320.100403E-3
320.075226E-3
320.030594E-3
319.966507E-3
319.988251E-3
319.936752E-3
320.062637E-3
319.984245E-3
319.795990E-3
319.751358E-3
319.545364E-3
319.581413E-3
319.495010E-3
319.485855E-3
319.572830E-3
319.448662E-3
319.517326E-3
319.468117E-3
319.361115E-3
319.326210E-3
319.117928E-3
319.162560E-3
319.033241E-3
318.993187E-3
319.054413E-3
318.945694E-3
318.955994E-3
319.009209E-3
318.964577E-3
318.980598E-3
318.907356E-3
318.562317E-3
318.652725E-3
318.651009E-3
318.733406E-3
318.582916E-3
318.489075E-3
318.346024E-3
318.175507E-3
318.164063E-3
318.175507E-3
318.242455E-3
318.403244E-3
318.552589E-3
319.293022E-3
320.302963E-3
321.826172E-3
323.567390E-3
325.357819E-3
327.240944E-3
328.734970E-3
329.831886E-3
330.377769E-3
330.468178E-3
330.274773E-3
329.533195E-3
328.731537E-3
327.884674E-3
326.904488E-3
326.303101E-3
325.842476E-3
325.488853E-3
325.262260E-3
325.164413E-3
325.317764E-3
325.278282E-3
325.387573E-3
325.807571E-3
325.626755E-3
325.389862E-3
325.034523E-3
324.516106E-3
323.927879E-3
323.428345E-3
323.024940E-3
322.764015E-3
322.626114E-3
322.513390E-3
322.442436E-3
322.656441E-3
322.729111E-3
322.868729E-3
322.972298E-3
322.971153E-3
322.774315E-3
322.565460E-3
322.360611E-3
322.223854E-3
321.945190E-3
321.896553E-3
321.566391E-3
321.336365E-3
321.214485E-3
321.023941E-3
320.720673E-3
320.514679E-3
320.375061E-3
320.236015E-3
320.045471E-3
320.043755E-3
319.792557E-3
319.546509E-3
319.572830E-3
319.441223E-3
319.508743E-3
319.414902E-3
319.459534E-3
319.413757E-3
319.428062E-3
319.385147E-3
319.126511E-3
319.114494E-3
319.194031E-3
319.053841E-3
319.113922E-3
319.033241E-3
319.119644E-3
319.195747E-3
319.117928E-3
319.041252E-3
319.034958E-3
319.054413E-3
319.036102E-3
318.904495E-3
318.857574E-3
318.720818E-3
318.723679E-3
318.743706E-3
318.646431E-3
318.655586E-3
318.653870E-3
318.591499E-3
318.702507E-3
318.528557E-3
318.525696E-3
318.504524E-3
318.367195E-3
318.324280E-3
318.162918E-3
318.103409E-3
317.995834E-3
318.003273E-3
317.906570E-3
317.796135E-3
317.920303E-3
317.778397E-3
317.817307E-3
317.908859E-3
318.231010E-3
318.915939E-3
319.966507E-3
321.486855E-3
323.293877E-3
324.957848E-3
326.874733E-3
328.227997E-3
329.133224E-3
329.655647E-3
329.438782E-3
328.995895E-3
328.133011E-3
327.252388E-3
326.787758E-3
325.816727E-3
325.266266E-3
324.760437E-3
324.515533E-3
324.358177E-3
324.182510E-3
324.231720E-3
324.378204E-3
324.433136E-3
324.479485E-3
324.403954E-3
324.322701E-3
323.947906E-3
323.440361E-3
323.071861E-3
322.477341E-3
322.590637E-3
322.593498E-3
322.719383E-3
322.946548E-3
323.053551E-3
323.252678E-3
323.328781E-3
323.390007E-3
323.385429E-3
323.219490E-3
323.228645E-3
322.984886E-3
322.816658E-3
322.629547E-3
322.340584E-3
322.072220E-3
321.796417E-3
321.293449E-3
321.337509E-3
321.142960E-3
321.165848E-3
321.055984E-3
320.934677E-3
320.927811E-3
320.717239E-3
320.621109E-3
320.769310E-3
320.631981E-3
320.483780E-3
320.349884E-3
320.410538E-3
320.269203E-3
320.163345E-3
320.209694E-3
320.127296E-3
320.191956E-3
320.114136E-3
320.051193E-3
320.058060E-3
319.981956E-3
319.980240E-3
319.937325E-3
319.827461E-3
319.860649E-3
319.747925E-3
319.743347E-3
319.778824E-3
319.775391E-3
319.756508E-3
319.613457E-3
319.670677E-3
319.487000E-3
319.390297E-3
319.411469E-3
319.338799E-3
319.380569E-3
319.326782E-3
319.249535E-3
319.246674E-3
319.058418E-3
319.052696E-3
318.867302E-3
318.763161E-3
318.728828E-3
318.506241E-3
318.461609E-3
318.362045E-3
318.454742E-3
318.491936E-3
318.311119E-3
318.985176E-3
319.805717E-3
321.089172E-3
322.651863E-3
324.472618E-3
326.323128E-3
328.015709E-3
329.339218E-3
330.196381E-3
330.424690E-3
330.353737E-3
329.747772E-3
328.948402E-3
328.196526E-3
327.310181E-3
326.628685E-3
325.987816E-3
325.658226E-3
325.444221E-3
325.150108E-3
325.133514E-3
325.136375E-3
325.207329E-3
325.353241E-3
325.417328E-3
325.365829E-3
325.017929E-3
324.576759E-3
324.173927E-3
323.629189E-3
323.205757E-3
322.887039E-3
322.584343E-3
322.848701E-3
322.563744E-3
322.637558E-3
322.747993E-3
322.816086E-3
322.867584E-3
322.776031E-3
322.867012E-3
322.822952E-3
322.649574E-3
322.456741E-3
322.156334E-3
322.032738E-3
321.830750E-3
321.439362E-3
321.168709E-3
320.805931E-3
320.641708E-3
320.764732E-3
320.465469E-3
320.344162E-3
320.113564E-3
319.888687E-3
319.825172E-3
319.682121E-3
319.561958E-3
319.464111E-3
319.656372E-3
319.431496E-3
319.223213E-3
319.186020E-3
319.032097E-3
319.008064E-3
318.971443E-3
318.990326E-3
318.986893E-3
318.963432E-3
318.977165E-3
318.777466E-3
318.605232E-3
318.652725E-3
318.659592E-3
318.598366E-3
318.638992E-3
318.693352E-3
318.709946E-3
318.475342E-3
318.340874E-3
318.215561E-3
318.129158E-3
318.234444E-3
318.180084E-3
318.474197E-3
318.201256E-3
318.180656E-3
318.211555E-3
318.086243E-3
318.149185E-3
317.944908E-3
317.901421E-3
317.886543E-3
317.868233E-3
317.705154E-3
317.574120E-3
317.514610E-3
317.412758E-3
317.326927E-3
317.262840E-3
317.356682E-3
317.307472E-3
317.644501E-3
318.161774E-3
319.141388E-3
320.484352E-3
322.226715E-3
324.090958E-3
325.931740E-3
327.467537E-3
328.568459E-3
329.376984E-3
329.398155E-3
329.016495E-3
328.413391E-3
327.684975E-3
326.778603E-3
325.970078E-3
325.236511E-3
324.703217E-3
324.550438E-3
324.125862E-3
324.033165E-3
323.899841E-3
323.917007E-3
323.895264E-3
323.835182E-3
323.839188E-3
323.785400E-3
323.555946E-3
323.075867E-3
322.466469E-3
322.019005E-3
321.379852E-3
321.172714E-3
320.952415E-3
320.688629E-3
320.716667E-3
320.705795E-3
320.886040E-3
320.995903E-3
320.981026E-3
321.026802E-3
320.895767E-3
320.703506E-3
320.618248E-3
320.318413E-3
320.138168E-3
319.885254E-3
319.668961E-3
319.420624E-3
319.210625E-3
319.059563E-3
318.862724E-3
318.406105E-3
318.342590E-3
318.154907E-3
318.062782E-3
317.886543E-3
317.834473E-3
317.771530E-3
317.682838E-3
317.741203E-3
317.782402E-3
317.722321E-3
317.549515E-3
317.379570E-3
317.389870E-3
317.259979E-3
317.363548E-3
317.387009E-3
317.271996E-3
317.143250E-3
317.163849E-3
317.209053E-3
317.243958E-3
317.243385E-3
317.274857E-3
317.138100E-3
317.126083E-3
317.151833E-3
317.003632E-3
317.088890E-3
316.941833E-3
316.970444E-3
316.898918E-3
316.843414E-3
316.930962E-3
316.805077E-3
316.934967E-3
316.884041E-3
316.815948E-3
316.836548E-3
316.707802E-3
316.783905E-3
316.752434E-3
316.579056E-3
316.390228E-3
316.458321E-3
316.588783E-3
316.539574E-3
316.348457E-3
316.335869E-3
316.163063E-3
316.148758E-3
316.175079E-3
315.994835E-3
316.325569E-3
316.716385E-3
317.527771E-3
318.756866E-3
320.312691E-3
322.263336E-3
324.049187E-3
325.718880E-3
326.790047E-3
327.449226E-3
327.723885E-3
327.454948E-3
326.832390E-3
325.992393E-3
324.998474E-3
324.301529E-3
323.504448E-3
323.216629E-3
322.818947E-3
322.418976E-3
322.429276E-3
322.387505E-3
322.425270E-3
322.564316E-3
322.511101E-3
322.461891E-3
322.279358E-3
322.099113E-3
321.812439E-3
321.421051E-3
321.132660E-3
320.789337E-3
320.695496E-3
320.426559E-3
320.645714E-3
320.957565E-3
321.105766E-3
321.411896E-3
321.518326E-3
321.427345E-3
321.529198E-3
321.487999E-3
321.032524E-3
321.033096E-3
320.863724E-3
320.792770E-3
320.437431E-3
320.210838E-3
320.004845E-3
319.778824E-3
319.648933E-3
319.684410E-3
319.374847E-3
319.176292E-3
319.037819E-3
319.050980E-3
318.913651E-3
318.838120E-3
318.694496E-3
318.600655E-3
318.616104E-3
318.426704E-3
318.361473E-3
318.518829E-3
318.441582E-3
318.487930E-3
318.395233E-3
318.294525E-3
318.237877E-3
317.853355E-3
317.990112E-3
318.075371E-3
318.198395E-3
318.129158E-3
318.197250E-3
318.130875E-3
318.011284E-3
317.972946E-3
318.068504E-3
317.953491E-3
317.905998E-3
317.801857E-3
317.839050E-3
317.762375E-3
317.576981E-3
317.756653E-3
317.570686E-3
317.492294E-3
317.432213E-3
317.356110E-3
317.310333E-3
317.217636E-3
317.041397E-3
316.918945E-3
316.369629E-3
316.540718E-3
316.522408E-3
316.623116E-3
316.648293E-3
316.918373E-3
317.593575E-3
318.562317E-3
319.905281E-3
321.605301E-3
323.244095E-3
324.982452E-3
326.498222E-3
327.602577E-3
328.055763E-3
328.052902E-3
327.763367E-3
327.017212E-3
326.262474E-3
325.406456E-3
324.592209E-3
324.048615E-3
323.522186E-3
323.186302E-3
323.017502E-3
322.855568E-3
322.867584E-3
322.877884E-3
322.947121E-3
323.034096E-3
322.894478E-3
322.782898E-3
322.300529E-3
321.818161E-3
321.276855E-3
320.709801E-3
320.146751E-3
319.936180E-3
319.937897E-3
320.024872E-3
320.117569E-3
320.306396E-3
320.281219E-3
320.498657E-3
320.498657E-3
320.336723E-3
320.392227E-3
320.198250E-3
319.948196E-3
319.775391E-3
319.541931E-3
319.371414E-3
319.175720E-3
318.770027E-3
318.545151E-3
318.267059E-3
318.099403E-3
317.839622E-3
317.710876E-3
317.627335E-3
317.386436E-3
317.199898E-3
317.080307E-3
316.968727E-3
316.846848E-3
316.619110E-3
316.646004E-3
316.536713E-3
316.454315E-3
316.516113E-3
316.351891E-3
316.320992E-3
316.133881E-3
316.128731E-3
316.147041E-3
316.018295E-3
316.062355E-3
315.999413E-3
316.017723E-3
315.903854E-3
315.777969E-3
315.818024E-3
315.692139E-3
315.589714E-3
315.543365E-3
315.380287E-3
315.384865E-3
315.225792E-3
315.154839E-3
315.107346E-3
315.115929E-3
315.093613E-3
315.043259E-3
315.018082E-3
315.023232E-3
314.810371E-3
314.780617E-3
314.681053E-3
314.694786E-3
314.604378E-3
314.507103E-3
314.445305E-3
314.283943E-3
314.158630E-3
314.287949E-3
314.029312E-3
314.006424E-3
313.963509E-3
314.027596E-3
314.321136E-3
314.836121E-3
316.038895E-3
317.357826E-3
319.109344E-3
320.947266E-3
322.627258E-3
324.256897E-3
325.414467E-3
326.016426E-3
326.114845E-3
325.668526E-3
325.078583E-3
323.847771E-3
323.186302E-3
322.294235E-3
321.605301E-3
321.270561E-3
320.901489E-3
320.753288E-3
320.771027E-3
320.721245E-3
320.863152E-3
320.820236E-3
320.768738E-3
320.734406E-3
320.548439E-3
320.225143E-3
319.715309E-3
319.081879E-3
318.546295E-3
318.030739E-3
317.661095E-3
317.399025E-3
317.301750E-3
317.250824E-3
317.205048E-3
317.249107E-3
317.194748E-3
317.271996E-3
317.334938E-3
317.193031E-3
317.080879E-3
316.846275E-3
316.613960E-3
316.397667E-3
316.138458E-3
315.897560E-3
315.519905E-3
315.212059E-3
315.002632E-3
314.722824E-3
314.551735E-3
314.289665E-3
314.092827E-3
313.993835E-3
313.510323E-3
313.620758E-3
313.552666E-3
313.415337E-3
313.387299E-3
313.162994E-3
313.193321E-3
313.062286E-3
312.991333E-3
312.966156E-3
312.804794E-3
312.843704E-3
312.700081E-3
312.697220E-3
312.701797E-3
312.609100E-3
312.654305E-3
312.587357E-3
312.541008E-3
312.538147E-3
312.360764E-3
312.423706E-3
312.353897E-3
312.381363E-3
312.322998E-3
312.116432E-3
312.157059E-3
312.321281E-3
312.192535E-3
312.129593E-3
311.971664E-3
312.041473E-3
311.959076E-3
311.988831E-3
311.906433E-3
311.779404E-3
311.869240E-3
311.777687E-3
311.854362E-3
311.828041E-3
311.686707E-3
311.718750E-3
311.553383E-3
311.706734E-3
311.512756E-3
311.301041E-3
311.345100E-3
311.351967E-3
311.381721E-3
311.405182E-3
311.488152E-3
311.937332E-3
312.863159E-3
314.074516E-3
315.731049E-3
317.488861E-3
319.404602E-3
321.119499E-3
322.251320E-3
323.125648E-3
323.178864E-3
322.647285E-3
322.151184E-3
321.355820E-3
320.581055E-3
319.814873E-3
319.366264E-3
318.776321E-3
318.353462E-3
318.117714E-3
317.926598E-3
318.045616E-3
318.044472E-3
318.172073E-3
318.284798E-3
318.267632E-3
318.265915E-3
318.090248E-3
317.678261E-3
317.008209E-3
316.443443E-3
316.114426E-3
315.902710E-3
315.822601E-3
315.894127E-3
315.974236E-3
316.344452E-3
316.528702E-3
316.647720E-3
316.838264E-3
316.804504E-3
316.681480E-3
316.481781E-3
316.215134E-3
316.076660E-3
315.519333E-3
315.510750E-3
315.302467E-3
315.096474E-3
314.953423E-3
314.675903E-3
314.596367E-3
314.512825E-3
314.352036E-3
314.238167E-3
314.027596E-3
313.895988E-3
313.798714E-3
313.639069E-3
313.479424E-3
313.303757E-3
313.316917E-3
313.256836E-3
313.328934E-3
313.383293E-3
313.248825E-3
313.207626E-3
313.122368E-3
313.035965E-3
313.011360E-3
312.890053E-3
312.946129E-3
312.958145E-3
312.844849E-3
312.897491E-3
312.885475E-3
312.978172E-3
312.903786E-3
312.820816E-3
312.729263E-3
312.593651E-3
312.801933E-3
312.567329E-3
312.495804E-3
312.531281E-3
312.397957E-3
312.400818E-3
312.301826E-3
312.319565E-3
312.407112E-3
312.284660E-3
312.209702E-3
312.134171E-3
311.987114E-3
311.945343E-3
311.694717E-3
311.525917E-3
311.256981E-3
311.158562E-3
311.265564E-3
311.367989E-3
311.477852E-3
311.552811E-3
311.908150E-3
312.714386E-3
313.830757E-3
315.489578E-3
317.181587E-3
318.869019E-3
320.613098E-3
321.889114E-3
322.802353E-3
323.208046E-3
323.048401E-3
322.659874E-3
321.794701E-3
321.018791E-3
320.220566E-3
319.448662E-3
318.914223E-3
318.428421E-3
318.184090E-3
317.964363E-3
317.904854E-3
318.110275E-3
318.188095E-3
318.223000E-3
318.213272E-3
317.990112E-3
317.712021E-3
317.185020E-3
316.705513E-3
316.144753E-3
315.555382E-3
315.220642E-3
314.924812E-3
314.949989E-3
315.145683E-3
315.267563E-3
315.428925E-3
315.385437E-3
315.447235E-3
315.411758E-3
315.394020E-3
315.282440E-3
314.971733E-3
314.816093E-3
314.531136E-3
314.271927E-3
314.325714E-3
313.837051E-3
313.588715E-3
313.349533E-3
313.031387E-3
312.819099E-3
312.566757E-3
312.464905E-3
312.283516E-3
312.339592E-3
312.131310E-3
311.845207E-3
311.813164E-3
311.744499E-3
311.591721E-3
311.671829E-3
311.512184E-3
311.439514E-3
311.473274E-3
311.218643E-3
311.083031E-3
310.977173E-3
311.072731E-3
311.107063E-3
310.907936E-3
310.996056E-3
310.875893E-3
310.693359E-3
310.832977E-3
310.799217E-3
310.853004E-3
310.754585E-3
310.590363E-3
310.502815E-3
310.389519E-3
310.418701E-3
310.400963E-3
310.422134E-3
310.420990E-3
