Notes :


2023-10-26 ¿ÀÈÄ 10:35:51
Volts
Ch : LED 2,Ch : LED 3,Ch : LED 1,Ch : LED 1 AMBIENT,Ch : LED 2 - LED3,Ch : LED 1 - LED 1 AMBIENT,
418.507576E-3,-4.972458E-3,-5.189896E-3,-5.200195E-3,93.841553E-6,10.299683E-6
417.283630E-3,-5.708885E-3,-5.932617E-3,-6.054497E-3,93.841553E-6,121.879578E-6
418.089294E-3,-5.013084E-3,-5.264854E-3,-5.456543E-3,93.841553E-6,191.688538E-6
417.957687E-3,-5.718040E-3,-5.965805E-3,-6.029892E-3,93.841553E-6,64.086914E-6
419.318390E-3,-4.637146E-3,-4.899216E-3,-5.097771E-3,93.841553E-6,198.554993E-6
419.107819E-3,-4.922676E-3,-5.348969E-3,-5.337524E-3,93.841553E-6,-11.444092E-6
418.507576E-3,-5.696869E-3,-6.273079E-3,-5.986977E-3,93.841553E-6,-286.102295E-6
419.480896E-3,-4.967308E-3,-5.142975E-3,-5.368996E-3,93.841553E-6,226.020813E-6
418.768501E-3,-5.650520E-3,-5.835915E-3,-6.000137E-3,93.841553E-6,164.222717E-6
419.938087E-3,-4.800797E-3,-4.904366E-3,-5.046844E-3,93.841553E-6,142.478943E-6
419.626808E-3,-5.039978E-3,-5.191612E-3,-5.308914E-3,93.841553E-6,117.301941E-6
419.158745E-3,-5.663109E-3,-6.767464E-3,-6.080818E-3,93.841553E-6,-686.645508E-6
419.793892E-3,-4.789925E-3,-5.522346E-3,-5.308342E-3,93.841553E-6,-214.004517E-6
419.305229E-3,-5.720329E-3,-6.080246E-3,-6.147194E-3,93.841553E-6,66.947937E-6
420.415306E-3,-4.721260E-3,-4.995918E-3,-5.362701E-3,93.841553E-6,366.783142E-6
420.424461E-3,-4.744720E-3,-5.239677E-3,-5.508614E-3,93.841553E-6,268.936157E-6
419.249725E-3,-5.782127E-3,-6.046486E-3,-6.226730E-3,93.841553E-6,180.244446E-6
420.768929E-3,-4.883766E-3,-5.011940E-3,-4.887772E-3,93.841553E-6,-124.168396E-6
420.364380E-3,-5.782127E-3,-5.766106E-3,-5.683708E-3,93.841553E-6,-82.397461E-6
421.821785E-3,-4.791069E-3,-5.134392E-3,-5.108643E-3,93.841553E-6,-25.749207E-6
421.892166E-3,-4.965591E-3,-5.265427E-3,-5.228233E-3,93.841553E-6,-37.193298E-6
421.271896E-3,-5.692291E-3,-5.928040E-3,-7.275009E-3,93.841553E-6,1.346970E-3
422.144508E-3,-4.808807E-3,-4.830551E-3,-5.132103E-3,88.119507E-6,301.551819E-6
421.467590E-3,-5.633354E-3,-5.748367E-3,-5.951500E-3,88.119507E-6,203.132629E-6
422.328758E-3,-4.702377E-3,-5.131531E-3,-5.198479E-3,88.119507E-6,66.947937E-6
421.495056E-3,-4.743576E-3,-5.271721E-3,-5.303764E-3,88.119507E-6,32.043457E-6
418.710709E-3,-5.707741E-3,-6.049347E-3,-6.031036E-3,88.119507E-6,-18.310547E-6
418.096161E-3,-4.958725E-3,-4.701233E-3,-4.617691E-3,88.119507E-6,-83.541870E-6
414.719009E-3,-5.617905E-3,-5.545235E-3,-5.743790E-3,88.119507E-6,198.554993E-6
412.117767E-3,-4.722404E-3,-4.915237E-3,-5.178452E-3,88.119507E-6,263.214111E-6
408.423042E-3,-4.891205E-3,-5.104637E-3,-5.274582E-3,88.119507E-6,169.944763E-6
404.438210E-3,-5.736351E-3,-6.077957E-3,-7.316208E-3,88.119507E-6,1.238251E-3
402.680397E-3,-4.891777E-3,-4.650879E-3,-4.909515E-3,88.119507E-6,258.636475E-6
400.087738E-3,-5.512047E-3,-5.710602E-3,-5.974388E-3,88.119507E-6,263.786316E-6
400.052834E-3,-4.712677E-3,-4.887772E-3,-5.199623E-3,88.119507E-6,311.851501E-6
399.898338E-3,-4.939842E-3,-5.248260E-3,-5.147552E-3,88.119507E-6,-100.708008E-6
399.744415E-3,-5.559540E-3,-6.940842E-3,-6.081963E-3,88.119507E-6,-858.879089E-6
401.521111E-3,-4.611397E-3,-4.807663E-3,-4.644585E-3,88.119507E-6,-163.078308E-6
401.987457E-3,-5.362701E-3,-5.855942E-3,-5.889130E-3,88.119507E-6,33.187866E-6
404.152107E-3,-4.554176E-3,-4.986191E-3,-5.298615E-3,88.119507E-6,312.423706E-6
404.994965E-3,-4.845428E-3,-5.021667E-3,-5.493164E-3,88.119507E-6,471.496582E-6
404.871368E-3,-5.722618E-3,-6.016159E-3,-6.180382E-3,88.119507E-6,164.222717E-6
406.183434E-3,-4.685783E-3,-4.559898E-3,-4.593658E-3,88.119507E-6,33.760071E-6
405.805206E-3,-5.447960E-3,-5.698586E-3,-5.768967E-3,88.119507E-6,70.381165E-6
406.537056E-3,-4.716110E-3,-5.041695E-3,-5.192757E-3,88.119507E-6,151.062012E-6
406.274986E-3,-4.886627E-3,-5.047989E-3,-5.402756E-3,88.119507E-6,354.766846E-6
405.120277E-3,-5.677986E-3,-5.940628E-3,-6.004143E-3,88.119507E-6,63.514709E-6
405.719948E-3,-4.291534E-3,-4.356194E-3,-4.578209E-3,88.119507E-6,222.015381E-6
404.484558E-3,-5.421638E-3,-5.563545E-3,-5.537224E-3,88.119507E-6,-26.321411E-6
405.187798E-3,-4.685783E-3,-4.926682E-3,-5.164146E-3,88.119507E-6,237.464905E-6
405.042458E-3,-4.899216E-3,-5.134392E-3,-5.194473E-3,88.119507E-6,60.081482E-6
404.467964E-3,-5.706024E-3,-6.128883E-3,-6.916237E-3,88.119507E-6,787.353516E-6
406.327057E-3,-4.230309E-3,-4.611969E-3,-4.947853E-3,88.119507E-6,335.884094E-6
406.501007E-3,-5.305481E-3,-5.744362E-3,-5.844498E-3,88.119507E-6,100.135803E-6
408.248520E-3,-4.583931E-3,-4.915810E-3,-5.174446E-3,88.119507E-6,258.636475E-6
408.744621E-3,-4.725266E-3,-5.125809E-3,-5.197906E-3,88.119507E-6,72.097778E-6
408.677101E-3,-5.698586E-3,-5.860519E-3,-6.941414E-3,88.119507E-6,1.080894E-3
410.240364E-3,-4.205132E-3,-4.399109E-3,-4.673767E-3,88.119507E-6,274.658203E-6
409.346008E-3,-5.558968E-3,-5.714035E-3,-5.782127E-3,88.119507E-6,68.092346E-6
409.863853E-3,-4.800797E-3,-5.117798E-3,-5.271149E-3,88.119507E-6,153.350830E-6
409.509659E-3,-4.859161E-3,-5.132675E-3,-5.316925E-3,88.119507E-6,184.249878E-6
408.256531E-3,-5.718040E-3,-5.834770E-3,-5.816460E-3,88.119507E-6,-18.310547E-6
409.506798E-3,-4.153061E-3,-4.347610E-3,-4.392242E-3,88.119507E-6,44.631958E-6
408.490562E-3,-5.470276E-3,-5.640221E-3,-5.660820E-3,88.119507E-6,20.599365E-6
409.253883E-3,-4.831696E-3,-5.220222E-3,-5.437088E-3,88.119507E-6,216.865540E-6
409.010124E-3,-4.894638E-3,-5.287170E-3,-5.150986E-3,88.119507E-6,-136.184692E-6
408.476257E-3,-5.826759E-3,-7.335663E-3,-5.869102E-3,88.119507E-6,-1.466560E-3
410.452080E-3,-4.138756E-3,-4.820824E-3,-4.125595E-3,88.119507E-6,-695.228577E-6
409.578323E-3,-5.422211E-3,-5.829048E-3,-5.646515E-3,88.119507E-6,-182.533264E-6
410.785103E-3,-4.712105E-3,-5.208206E-3,-5.439949E-3,88.119507E-6,231.742859E-6
411.046028E-3,-4.752731E-3,-5.401039E-3,-5.498886E-3,88.119507E-6,97.846985E-6
410.805702E-3,-5.716896E-3,-7.295609E-3,-6.057930E-3,88.119507E-6,-1.237679E-3
412.849617E-3,-4.202271E-3,-4.878044E-3,-4.498672E-3,88.119507E-6,-379.371643E-6
412.122345E-3,-5.363274E-3,-5.783272E-3,-5.705452E-3,88.119507E-6,-77.819824E-6
413.235283E-3,-5.021667E-3,-5.407906E-3,-5.311203E-3,88.119507E-6,-96.702576E-6
413.493919E-3,-5.352402E-3,-5.086899E-3,-5.078316E-3,88.119507E-6,-8.583069E-6
412.839317E-3,-5.793571E-3,-5.832481E-3,-6.033325E-3,88.119507E-6,200.843811E-6
414.612579E-3,-4.018021E-3,-4.213715E-3,-4.510117E-3,88.119507E-6,296.401978E-6
413.648987E-3,-5.405045E-3,-5.414200E-3,-5.668259E-3,88.119507E-6,254.058838E-6
414.482117E-3,-4.894638E-3,-5.086899E-3,-5.181313E-3,88.119507E-6,94.413757E-6
414.485550E-3,-4.809952E-3,-4.924393E-3,-5.246544E-3,88.119507E-6,322.151184E-6
413.806343E-3,-7.036972E-3,-5.665970E-3,-5.910873E-3,88.119507E-6,244.903564E-6
415.540123E-3,-4.567337E-3,-4.185677E-3,-4.306984E-3,88.119507E-6,121.307373E-6
414.566803E-3,-5.476570E-3,-5.519485E-3,-5.679703E-3,88.119507E-6,160.217285E-6
415.296936E-3,-5.070305E-3,-5.233383E-3,-5.235100E-3,88.119507E-6,1.716614E-6
415.230560E-3,-4.954147E-3,-5.147552E-3,-5.125237E-3,88.119507E-6,-22.315979E-6
414.558220E-3,-5.687714E-3,-7.064438E-3,-5.761528E-3,88.119507E-6,-1.302910E-3
416.221046E-3,-4.039192E-3,-4.676056E-3,-4.341888E-3,88.119507E-6,-334.167480E-6
415.177917E-3,-5.344391E-3,-5.578995E-3,-5.645943E-3,88.119507E-6,66.947937E-6
415.898895E-3,-4.862595E-3,-5.334091E-3,-5.339241E-3,88.119507E-6,5.149841E-6
415.652275E-3,-4.860878E-3,-5.207634E-3,-5.293465E-3,88.119507E-6,85.830688E-6
414.998817E-3,-5.559540E-3,-7.192612E-3,-5.720901E-3,88.119507E-6,-1.471710E-3
416.774368E-3,-3.907585E-3,-4.854584E-3,-4.410553E-3,88.119507E-6,-444.030762E-6
415.874863E-3,-5.373573E-3,-5.918312E-3,-5.711174E-3,88.119507E-6,-207.138062E-6
416.448212E-3,-5.006218E-3,-5.426788E-3,-5.442810E-3,88.119507E-6,16.021729E-6
416.330910E-3,-4.847717E-3,-5.249977E-3,-5.226517E-3,88.119507E-6,-23.460388E-6
415.948105E-3,-5.535507E-3,-5.724907E-3,-6.223297E-3,88.119507E-6,498.390198E-6
417.448425E-3,-3.975105E-3,-4.230309E-3,-4.598236E-3,88.119507E-6,367.927551E-6
416.417313E-3,-5.401611E-3,-5.548096E-3,-5.816460E-3,88.119507E-6,268.363953E-6
416.886520E-3,-5.034828E-3,-5.150414E-3,-5.426216E-3,88.119507E-6,275.802612E-6
417.076492E-3,-5.009079E-3,-4.942703E-3,-5.323219E-3,88.119507E-6,380.516052E-6
416.468239E-3,-6.459618E-3,-5.654526E-3,-5.821037E-3,88.119507E-6,166.511536E-6
418.255806E-3,-4.270935E-3,-4.286385E-3,-4.317856E-3,88.119507E-6,31.471252E-6
417.236710E-3,-5.275726E-3,-5.467415E-3,-5.767250E-3,88.119507E-6,299.835205E-6
417.836952E-3,-4.693222E-3,-5.258560E-3,-5.300331E-3,88.119507E-6,41.770935E-6
417.945099E-3,-4.934120E-3,-4.939842E-3,-5.076027E-3,88.119507E-6,136.184692E-6
417.462158E-3,-5.556679E-3,-6.610107E-3,-5.539513E-3,88.119507E-6,-1.070595E-3
419.059753E-3,-4.051781E-3,-4.672623E-3,-4.297829E-3,88.119507E-6,-374.794006E-6
417.986870E-3,-5.240250E-3,-5.811310E-3,-5.885696E-3,88.119507E-6,74.386597E-6
418.279839E-3,-4.761314E-3,-5.291176E-3,-5.521774E-3,88.119507E-6,230.598450E-6
418.495560E-3,-4.855728E-3,-5.147552E-3,-5.134392E-3,88.119507E-6,-13.160706E-6
417.960548E-3,-5.552101E-3,-5.675125E-3,-5.755806E-3,88.119507E-6,80.680847E-6
419.587326E-3,-4.071808E-3,-4.239464E-3,-4.261780E-3,88.119507E-6,22.315979E-6
418.605995E-3,-5.377579E-3,-5.657959E-3,-5.645370E-3,88.119507E-6,-12.588501E-6
418.970490E-3,-4.924965E-3,-5.271149E-3,-5.310631E-3,88.119507E-6,39.482117E-6
419.185638E-3,-4.800224E-3,-4.966164E-3,-5.231094E-3,88.119507E-6,264.930725E-6
418.901253E-3,-5.434799E-3,-5.698586E-3,-5.951500E-3,88.119507E-6,252.914429E-6
420.696831E-3,-3.888130E-3,-4.312706E-3,-4.598236E-3,88.119507E-6,285.530090E-6
419.772720E-3,-5.393028E-3,-5.599022E-3,-5.933189E-3,88.119507E-6,334.167480E-6
420.323181E-3,-4.868889E-3,-5.137825E-3,-5.367279E-3,88.119507E-6,229.454041E-6
420.468521E-3,-4.751015E-3,-5.071449E-3,-5.135536E-3,88.119507E-6,64.086914E-6
420.188141E-3,-6.221581E-3,-5.707169E-3,-5.677414E-3,88.119507E-6,-29.754639E-6
421.786880E-3,-4.260635E-3,-4.301262E-3,-4.328156E-3,88.119507E-6,26.893616E-6
420.520592E-3,-5.492592E-3,-5.685997E-3,-5.547523E-3,88.119507E-6,-138.473511E-6
420.925140E-3,-5.046272E-3,-5.210495E-3,-5.421066E-3,88.119507E-6,210.571289E-6
421.142578E-3,-4.777908E-3,-5.053139E-3,-5.197906E-3,88.119507E-6,144.767761E-6
420.184135E-3,-5.324364E-3,-5.679131E-3,-5.785561E-3,88.119507E-6,106.430054E-6
420.816994E-3,-3.956223E-3,-4.366493E-3,-4.537582E-3,88.119507E-6,171.089172E-6
417.965698E-3,-5.439949E-3,-5.763245E-3,-5.771828E-3,88.119507E-6,8.583069E-6
415.781021E-3,-4.890060E-3,-5.345535E-3,-5.444527E-3,88.119507E-6,98.991394E-6
412.789536E-3,-4.809952E-3,-5.078316E-3,-5.267143E-3,88.119507E-6,188.827515E-6
408.654213E-3,-5.270004E-3,-5.513191E-3,-7.037544E-3,88.119507E-6,1.524353E-3
406.760788E-3,-3.894424E-3,-4.333878E-3,-5.076027E-3,88.119507E-6,742.149353E-6
402.646065E-3,-5.431366E-3,-5.688858E-3,-5.978966E-3,88.119507E-6,290.107727E-6
400.922585E-3,-4.862595E-3,-5.277443E-3,-5.474854E-3,88.119507E-6,197.410583E-6
400.144958E-3,-4.745293E-3,-5.073166E-3,-5.257416E-3,88.119507E-6,184.249878E-6
398.201180E-3,-5.413055E-3,-5.574989E-3,-5.805588E-3,88.119507E-6,230.598450E-6
400.840187E-3,-4.060364E-3,-4.526138E-3,-4.443741E-3,88.119507E-6,-82.397461E-6
400.603294E-3,-5.461693E-3,-5.557823E-3,-5.767822E-3,88.119507E-6,209.999084E-6
402.162552E-3,-5.004501E-3,-4.977036E-3,-5.381012E-3,80.108643E-6,403.976440E-6
403.645706E-3,-5.045128E-3,-4.783058E-3,-5.257988E-3,80.108643E-6,474.929810E-6
404.282570E-3,-5.562973E-3,-5.668259E-3,-6.354332E-3,80.108643E-6,686.073303E-6
406.688690E-3,-3.972816E-3,-4.365349E-3,-4.693222E-3,80.108643E-6,327.873230E-6
405.814362E-3,-5.426216E-3,-5.738068E-3,-5.792999E-3,80.108643E-6,54.931641E-6
406.746483E-3,-4.964447E-3,-5.237961E-3,-5.437660E-3,80.108643E-6,199.699402E-6
407.042885E-3,-4.909515E-3,-5.146408E-3,-5.293465E-3,80.108643E-6,147.056580E-6
406.248093E-3,-5.450249E-3,-5.627632E-3,-5.861664E-3,80.108643E-6,234.031677E-6
407.456589E-3,-4.095840E-3,-4.556465E-3,-4.549026E-3,80.108643E-6,-7.438660E-6
405.621529E-3,-5.537796E-3,-5.834198E-3,-5.811882E-3,80.108643E-6,-22.315979E-6
405.677032E-3,-4.965019E-3,-5.338669E-3,-5.422783E-3,80.108643E-6,84.114075E-6
405.768013E-3,-4.951859E-3,-5.148125E-3,-5.396461E-3,80.108643E-6,248.336792E-6
405.207253E-3,-5.466270E-3,-7.016945E-3,-5.797577E-3,80.108643E-6,-1.219368E-3
407.084084E-3,-4.195976E-3,-4.721832E-3,-4.581642E-3,80.108643E-6,-140.190125E-6
406.745911E-3,-5.385017E-3,-5.829048E-3,-5.738068E-3,80.108643E-6,-90.980530E-6
408.097458E-3,-5.046272E-3,-5.443954E-3,-5.612755E-3,80.108643E-6,168.800354E-6
409.041595E-3,-4.904938E-3,-5.187035E-3,-5.386162E-3,80.108643E-6,199.127197E-6
409.033012E-3,-5.554962E-3,-5.799866E-3,-6.457901E-3,80.108643E-6,658.035278E-6
410.571098E-3,-4.144478E-3,-4.530144E-3,-4.624557E-3,80.108643E-6,94.413757E-6
409.142303E-3,-5.488586E-3,-5.809593E-3,-5.831909E-3,80.108643E-6,22.315979E-6
409.193230E-3,-5.002213E-3,-5.503464E-3,-5.748367E-3,80.108643E-6,244.903564E-6
409.055901E-3,-4.963303E-3,-5.398750E-3,-5.406761E-3,80.108643E-6,8.010864E-6
408.083725E-3,-5.483437E-3,-5.743217E-3,-5.957222E-3,80.108643E-6,214.004517E-6
408.965492E-3,-4.304695E-3,-4.664040E-3,-4.613686E-3,80.108643E-6,-50.354004E-6
407.289505E-3,-5.419922E-3,-5.616760E-3,-5.725479E-3,80.108643E-6,108.718872E-6
407.560730E-3,-5.125237E-3,-5.445671E-3,-5.498314E-3,80.108643E-6,52.642822E-6
408.013344E-3,-5.034256E-3,-5.561829E-3,-5.389023E-3,80.108643E-6,-172.805786E-6
407.689476E-3,-5.627632E-3,-5.799866E-3,-5.965805E-3,80.108643E-6,165.939331E-6
409.454155E-3,-4.313850E-3,-4.528427E-3,-4.670906E-3,80.108643E-6,142.478943E-6
408.801842E-3,-5.390739E-3,-5.728340E-3,-5.853081E-3,80.108643E-6,124.740601E-6
409.556007E-3,-5.011368E-3,-5.283165E-3,-5.611038E-3,80.108643E-6,327.873230E-6
410.350800E-3,-4.977036E-3,-5.156708E-3,-5.560112E-3,80.108643E-6,403.404236E-6
410.271263E-3,-5.554962E-3,-6.513405E-3,-5.902863E-3,80.108643E-6,-610.542297E-6
412.069702E-3,-4.353905E-3,-4.738998E-3,-4.601669E-3,80.108643E-6,-137.329102E-6
411.237717E-3,-5.395317E-3,-5.717468E-3,-5.718613E-3,80.108643E-6,1.144409E-6
411.904907E-3,-4.777336E-3,-5.513191E-3,-5.609322E-3,80.108643E-6,96.130371E-6
412.486839E-3,-4.864883E-3,-5.212212E-3,-5.395889E-3,80.108643E-6,183.677673E-6
411.829948E-3,-5.490875E-3,-5.814743E-3,-5.950356E-3,80.108643E-6,135.612488E-6
413.535690E-3,-4.293251E-3,-4.406548E-3,-4.675484E-3,80.108643E-6,268.936157E-6
412.835312E-3,-5.437660E-3,-5.645943E-3,-5.725479E-3,80.108643E-6,79.536438E-6
413.392639E-3,-5.178452E-3,-5.404472E-3,-5.394745E-3,80.108643E-6,-9.727478E-6
413.685608E-3,-5.437660E-3,-5.042267E-3,-5.276871E-3,80.108643E-6,234.603882E-6
413.287926E-3,-5.584717E-3,-5.795860E-3,-5.823898E-3,80.108643E-6,28.038025E-6
414.816856E-3,-4.198265E-3,-4.597092E-3,-4.637718E-3,80.108643E-6,40.626526E-6
413.748550E-3,-5.501175E-3,-5.672264E-3,-5.664253E-3,80.108643E-6,-8.010864E-6
414.195442E-3,-5.326080E-3,-5.205917E-3,-5.660820E-3,80.108643E-6,454.902649E-6
414.336205E-3,-4.896355E-3,-5.126953E-3,-5.496597E-3,80.108643E-6,369.644165E-6
413.990593E-3,-5.692291E-3,-5.851364E-3,-5.962944E-3,80.108643E-6,111.579895E-6
415.413094E-3,-4.216003E-3,-4.488945E-3,-4.734993E-3,80.108643E-6,246.047974E-6
414.303589E-3,-5.293465E-3,-5.721474E-3,-5.636787E-3,80.108643E-6,-84.686279E-6
414.785957E-3,-5.324936E-3,-5.347824E-3,-5.421066E-3,80.108643E-6,73.242187E-6
415.133858E-3,-5.090904E-3,-5.381584E-3,-5.303764E-3,80.108643E-6,-77.819824E-6
414.709282E-3,-5.748940E-3,-5.934906E-3,-5.801582E-3,80.108643E-6,-133.323669E-6
416.051674E-3,-4.272079E-3,-4.697800E-3,-4.700661E-3,80.108643E-6,2.861023E-6
414.895248E-3,-5.354691E-3,-5.662537E-3,-5.661392E-3,80.108643E-6,-1.144409E-6
415.272331E-3,-5.296326E-3,-5.443382E-3,-5.679703E-3,80.108643E-6,236.320496E-6
415.589333E-3,-5.210495E-3,-5.172729E-3,-5.320358E-3,80.108643E-6,147.628784E-6
415.135002E-3,-5.603600E-3,-5.714607E-3,-6.031036E-3,74.386597E-6,316.429138E-6
416.540337E-3,-4.215431E-3,-4.515839E-3,-4.684639E-3,74.386597E-6,168.800354E-6
415.503502E-3,-5.595589E-3,-5.476570E-3,-5.699730E-3,74.386597E-6,223.159790E-6
415.828514E-3,-5.018234E-3,-5.462265E-3,-5.549240E-3,74.386597E-6,86.975098E-6
416.125488E-3,-4.744148E-3,-5.666542E-3,-5.323219E-3,74.386597E-6,-343.322754E-6
415.840530E-3,-5.533791E-3,-6.094551E-3,-7.295036E-3,74.386597E-6,1.200485E-3
417.391205E-3,-4.275513E-3,-4.669762E-3,-5.236816E-3,74.386597E-6,567.054749E-6
416.298866E-3,-5.441093E-3,-5.690575E-3,-5.851936E-3,74.386597E-6,161.361694E-6
416.623306E-3,-5.246544E-3,-5.503464E-3,-5.822754E-3,74.386597E-6,319.290161E-6
416.912270E-3,-4.912376E-3,-5.338669E-3,-5.506897E-3,74.386597E-6,168.228149E-6
415.320969E-3,-5.603600E-3,-5.893707E-3,-5.973244E-3,74.386597E-6,79.536438E-6
417.469025E-3,-4.314423E-3,-4.488373E-3,-4.602814E-3,74.386597E-6,114.440918E-6
416.560936E-3,-5.324364E-3,-5.619049E-3,-5.663109E-3,74.386597E-6,44.059753E-6
417.022705E-3,-5.080605E-3,-5.371857E-3,-5.703735E-3,74.386597E-6,331.878662E-6
417.283058E-3,-4.922676E-3,-5.144691E-3,-5.526352E-3,74.386597E-6,381.660461E-6
417.038155E-3,-5.480003E-3,-5.932617E-3,-6.267929E-3,74.386597E-6,335.311890E-6
418.698120E-3,-4.331017E-3,-4.512405E-3,-4.837418E-3,74.386597E-6,325.012207E-6
417.753983E-3,-5.294609E-3,-5.625343E-3,-5.802727E-3,74.386597E-6,177.383423E-6
418.543053E-3,-5.279160E-3,-5.687714E-3,-5.723190E-3,74.386597E-6,35.476685E-6
419.017410E-3,-5.105209E-3,-5.267143E-3,-5.249405E-3,74.386597E-6,-17.738342E-6
418.601418E-3,-5.511475E-3,-5.980682E-3,-6.082535E-3,74.386597E-6,101.852417E-6
420.109749E-3,-4.137611E-3,-4.475784E-3,-4.738998E-3,74.386597E-6,263.214111E-6
419.192505E-3,-5.422211E-3,-5.553246E-3,-5.494308E-3,74.386597E-6,-58.937073E-6
419.815636E-3,-5.207634E-3,-5.561256E-3,-5.346680E-3,74.386597E-6,-214.576721E-6
419.993019E-3,-4.717827E-3,-5.271149E-3,-5.431938E-3,74.386597E-6,160.789490E-6
419.262886E-3,-5.482292E-3,-6.778908E-3,-6.072807E-3,74.386597E-6,-706.100464E-6
420.469666E-3,-4.203987E-3,-4.930687E-3,-4.821396E-3,74.386597E-6,-109.291077E-6
418.966484E-3,-5.437660E-3,-5.904007E-3,-5.594444E-3,74.386597E-6,-309.562683E-6
418.231201E-3,-5.107498E-3,-5.606461E-3,-5.664825E-3,74.386597E-6,58.364868E-6
416.545486E-3,-4.900360E-3,-5.258560E-3,-5.367851E-3,74.386597E-6,109.291077E-6
413.256454E-3,-5.583000E-3,-6.028748E-3,-7.316208E-3,74.386597E-6,1.287460E-3
411.149597E-3,-4.321289E-3,-4.705811E-3,-5.415916E-3,74.386597E-6,710.105896E-6
406.649780E-3,-5.505753E-3,-5.603027E-3,-5.847931E-3,74.386597E-6,244.903564E-6
403.587341E-3,-5.312920E-3,-5.589867E-3,-5.673981E-3,74.386597E-6,84.114075E-6
400.919724E-3,-5.027962E-3,-5.236816E-3,-5.397034E-3,74.386597E-6,160.217285E-6
397.390366E-3,-5.504608E-3,-6.118584E-3,-6.289101E-3,74.386597E-6,170.516968E-6
398.205757E-3,-4.182243E-3,-4.704666E-3,-4.955864E-3,74.386597E-6,251.197815E-6
397.196388E-3,-5.283165E-3,-5.623627E-3,-5.699730E-3,74.386597E-6,76.103210E-6
397.981453E-3,-5.332947E-3,-5.480003E-3,-5.700874E-3,74.386597E-6,220.870972E-6
399.228859E-3,-5.134964E-3,-5.216789E-3,-5.298615E-3,74.386597E-6,81.825256E-6
399.849129E-3,-7.453537E-3,-6.007576E-3,-6.348610E-3,74.386597E-6,341.033936E-6
402.100182E-3,-5.039978E-3,-4.760742E-3,-4.894066E-3,74.386597E-6,133.323669E-6
402.148819E-3,-5.571556E-3,-5.677986E-3,-5.736923E-3,74.386597E-6,58.937073E-6
403.190804E-3,-5.297470E-3,-5.465126E-3,-5.464554E-3,74.386597E-6,-572.204590E-9
404.072571E-3,-4.760742E-3,-5.231667E-3,-5.391884E-3,74.386597E-6,160.217285E-6
403.609085E-3,-5.718040E-3,-6.035614E-3,-6.370926E-3,74.386597E-6,335.311890E-6
404.975510E-3,-4.430580E-3,-4.783630E-3,-5.137825E-3,74.386597E-6,354.194641E-6
403.717804E-3,-5.442238E-3,-5.870247E-3,-5.717468E-3,74.386597E-6,-152.778625E-6
403.609085E-3,-5.248833E-3,-5.805016E-3,-5.631065E-3,74.386597E-6,-173.950195E-6
403.309822E-3,-4.771042E-3,-5.295753E-3,-5.215073E-3,74.386597E-6,-80.680847E-6
402.317619E-3,-7.378578E-3,-6.174660E-3,-6.350327E-3,74.386597E-6,175.666809E-6
403.429413E-3,-4.965019E-3,-4.815674E-3,-5.051422E-3,74.386597E-6,235.748291E-6
402.438927E-3,-5.574989E-3,-5.503464E-3,-5.791855E-3,74.386597E-6,288.391113E-6
402.992821E-3,-5.260849E-3,-5.733490E-3,-5.584717E-3,74.386597E-6,-148.773193E-6
404.069710E-3,-5.074883E-3,-5.376434E-3,-5.136681E-3,74.386597E-6,-239.753723E-6
404.330063E-3,-5.682564E-3,-6.734276E-3,-6.416130E-3,74.386597E-6,-318.145752E-6
406.686401E-3,-4.460335E-3,-5.137253E-3,-4.781914E-3,74.386597E-6,-355.339050E-6
406.732750E-3,-5.520630E-3,-5.694008E-3,-5.481720E-3,74.386597E-6,-212.287903E-6
407.430267E-3,-5.421066E-3,-5.571556E-3,-5.483437E-3,74.386597E-6,-88.119507E-6
407.913208E-3,-4.987335E-3,-5.050850E-3,-4.997063E-3,74.386597E-6,-53.787231E-6
407.002258E-3,-5.910301E-3,-6.165504E-3,-6.389236E-3,74.386597E-6,223.731995E-6
407.910919E-3,-4.475784E-3,-4.979324E-3,-4.923820E-3,74.386597E-6,-55.503845E-6
406.707001E-3,-5.401611E-3,-5.644798E-3,-5.643654E-3,74.386597E-6,-1.144409E-6
406.335068E-3,-5.426788E-3,-5.573273E-3,-5.639648E-3,74.386597E-6,66.375732E-6
406.484985E-3,-4.900932E-3,-5.172157E-3,-5.382729E-3,74.386597E-6,210.571289E-6
405.594063E-3,-5.991554E-3,-6.344604E-3,-6.507683E-3,74.386597E-6,163.078308E-6
406.860352E-3,-4.549026E-3,-4.893494E-3,-4.968452E-3,74.386597E-6,74.958801E-6
406.128502E-3,-5.422211E-3,-5.609322E-3,-5.413628E-3,74.386597E-6,-195.693970E-6
406.474113E-3,-5.336380E-3,-5.491447E-3,-5.662537E-3,74.386597E-6,171.089172E-6
407.149315E-3,-4.823112E-3,-4.924965E-3,-5.446243E-3,74.386597E-6,521.278381E-6
406.938171E-3,-6.013298E-3,-6.227875E-3,-6.693649E-3,74.386597E-6,465.774536E-6
408.924294E-3,-4.631996E-3,-4.907227E-3,-5.133820E-3,74.386597E-6,226.593018E-6
408.574677E-3,-5.437660E-3,-5.617332E-3,-5.556679E-3,74.386597E-6,-60.653687E-6
409.260750E-3,-5.288887E-3,-5.603600E-3,-5.906296E-3,74.386597E-6,302.696228E-6
409.975433E-3,-4.848289E-3,-5.052567E-3,-5.463409E-3,74.386597E-6,410.842896E-6
409.477615E-3,-6.028748E-3,-6.416702E-3,-7.369995E-3,74.386597E-6,953.292847E-6
411.325836E-3,-4.801369E-3,-4.854584E-3,-5.246544E-3,74.386597E-6,391.960144E-6
410.800552E-3,-5.489159E-3,-5.632782E-3,-5.647659E-3,74.386597E-6,14.877319E-6
411.263466E-3,-5.288315E-3,-5.609322E-3,-5.835915E-3,74.386597E-6,226.593018E-6
411.732674E-3,-4.689217E-3,-5.070877E-3,-5.395889E-3,74.386597E-6,325.012207E-6
409.239578E-3,-5.779839E-3,-6.064796E-3,-6.611824E-3,74.386597E-6,547.027588E-6
412.021637E-3,-4.434013E-3,-4.598808E-3,-5.086327E-3,74.386597E-6,487.518311E-6
411.939240E-3,-5.202484E-3,-5.255127E-3,-5.652237E-3,74.386597E-6,397.109985E-6
412.195015E-3,-5.224800E-3,-5.567551E-3,-5.568123E-3,74.386597E-6,572.204590E-9
412.800407E-3,-4.723549E-3,-5.018806E-3,-5.173302E-3,77.247620E-6,154.495239E-6
410.694695E-3,-5.817032E-3,-6.244469E-3,-6.429863E-3,77.247620E-6,185.394287E-6
412.885666E-3,-4.242325E-3,-4.887772E-3,-5.144691E-3,77.247620E-6,256.919861E-6
412.631035E-3,-5.346107E-3,-5.470848E-3,-5.580711E-3,77.247620E-6,109.863281E-6
412.897110E-3,-5.407333E-3,-5.651665E-3,-5.767822E-3,77.247620E-6,116.157532E-6
413.496208E-3,-4.903793E-3,-5.179596E-3,-5.327797E-3,77.247620E-6,148.200989E-6
412.533760E-3,-6.175232E-3,-6.955147E-3,-6.508827E-3,77.247620E-6,-446.319580E-6
414.053535E-3,-4.531860E-3,-5.194473E-3,-5.049706E-3,77.247620E-6,-144.767761E-6
413.578033E-3,-5.339241E-3,-5.637932E-3,-5.530930E-3,77.247620E-6,-107.002258E-6
413.620949E-3,-5.276299E-3,-5.532646E-3,-5.735779E-3,77.247620E-6,203.132629E-6
414.102745E-3,-4.753304E-3,-5.105782E-3,-5.360413E-3,77.247620E-6,254.631042E-6
413.197517E-3,-6.106567E-3,-6.460190E-3,-6.458473E-3,77.247620E-6,-1.716614E-6
414.687538E-3,-4.558754E-3,-4.831696E-3,-5.121231E-3,77.247620E-6,289.535522E-6
414.377403E-3,-5.100060E-3,-5.543518E-3,-5.553246E-3,77.247620E-6,9.727478E-6
414.427185E-3,-5.185890E-3,-5.418205E-3,-5.797005E-3,77.247620E-6,378.799438E-6
415.040016E-3,-4.741859E-3,-5.521774E-3,-5.229950E-3,77.247620E-6,-291.824341E-6
413.869286E-3,-6.118584E-3,-6.827545E-3,-6.320000E-3,77.247620E-6,-507.545471E-6
415.579605E-3,-4.634285E-3,-5.329514E-3,-4.945564E-3,77.247620E-6,-383.949280E-6
415.003395E-3,-5.236244E-3,-5.609322E-3,-5.471420E-3,77.247620E-6,-137.901306E-6
414.926147E-3,-5.271721E-3,-5.590439E-3,-5.605888E-3,77.247620E-6,15.449524E-6
415.594482E-3,-4.762459E-3,-5.132675E-3,-5.461693E-3,77.247620E-6,329.017639E-6
414.554214E-3,-5.898285E-3,-6.287956E-3,-6.642151E-3,77.247620E-6,354.194641E-6
416.316605E-3,-4.554176E-3,-4.944992E-3,-5.010796E-3,77.247620E-6,65.803528E-6
415.791893E-3,-5.072594E-3,-5.503464E-3,-5.621338E-3,77.247620E-6,117.874146E-6
415.883446E-3,-5.169868E-3,-5.639648E-3,-5.943489E-3,77.247620E-6,303.840637E-6
416.172981E-3,-4.695511E-3,-5.175018E-3,-5.404472E-3,77.247620E-6,229.454041E-6
415.125847E-3,-6.432724E-3,-6.315994E-3,-6.641006E-3,77.247620E-6,325.012207E-6
416.883087E-3,-4.704666E-3,-4.814529E-3,-4.927826E-3,77.247620E-6,113.296509E-6
416.488266E-3,-5.170441E-3,-5.323792E-3,-5.474281E-3,77.247620E-6,150.489807E-6
416.614723E-3,-5.205917E-3,-5.582428E-3,-5.908585E-3,77.247620E-6,326.156616E-6
417.045021E-3,-4.811096E-3,-5.118942E-3,-5.700874E-3,77.247620E-6,581.932068E-6
416.222763E-3,-5.940056E-3,-6.277084E-3,-6.729126E-3,77.247620E-6,452.041626E-6
417.834091E-3,-4.565620E-3,-4.841423E-3,-4.986763E-3,77.247620E-6,145.339966E-6
417.538261E-3,-5.216217E-3,-5.471992E-3,-5.293465E-3,77.247620E-6,-178.527832E-6
417.715073E-3,-5.355835E-3,-5.732918E-3,-5.872536E-3,77.247620E-6,139.617920E-6
418.552208E-3,-5.145264E-3,-5.070877E-3,-5.438232E-3,77.247620E-6,367.355347E-6
417.600060E-3,-5.998993E-3,-6.333733E-3,-6.530571E-3,77.247620E-6,196.838379E-6
419.165039E-3,-4.400826E-3,-5.046272E-3,-5.066872E-3,77.247620E-6,20.599365E-6
418.787384E-3,-5.035973E-3,-5.353546E-3,-5.631638E-3,77.247620E-6,278.091431E-6
418.682098E-3,-5.277443E-3,-5.667686E-3,-5.968094E-3,77.247620E-6,300.407410E-6
418.750763E-3,-4.763603E-3,-5.239105E-3,-5.422783E-3,77.247620E-6,183.677673E-6
416.968346E-3,-5.942345E-3,-6.484222E-3,-6.635857E-3,77.247620E-6,151.634216E-6
418.291855E-3,-4.566765E-3,-5.059433E-3,-4.927254E-3,77.247620E-6,-132.179260E-6
416.416168E-3,-5.226517E-3,-5.530357E-3,-5.567551E-3,77.247620E-6,37.193298E-6
414.083290E-3,-5.287743E-3,-5.895424E-3,-5.797577E-3,77.247620E-6,-97.846985E-6
411.445999E-3,-4.749870E-3,-5.277443E-3,-5.413628E-3,77.247620E-6,136.184692E-6
406.181717E-3,-5.879402E-3,-6.356049E-3,-6.616974E-3,77.247620E-6,260.925293E-6
404.301453E-3,-4.746437E-3,-4.868889E-3,-4.753304E-3,77.247620E-6,-115.585327E-6
400.820732E-3,-5.132675E-3,-5.429649E-3,-5.597878E-3,77.247620E-6,168.228149E-6
398.288727E-3,-5.260277E-3,-5.830193E-3,-6.237602E-3,77.247620E-6,407.409668E-6
397.193527E-3,-5.020523E-3,-5.370140E-3,-5.627060E-3,77.247620E-6,256.919861E-6
395.396233E-3,-6.092262E-3,-6.383514E-3,-6.586075E-3,77.247620E-6,202.560425E-6
396.762657E-3,-4.621124E-3,-4.888916E-3,-5.032539E-3,77.247620E-6,143.623352E-6
397.009277E-3,-5.293465E-3,-5.240250E-3,-5.554962E-3,77.247620E-6,314.712524E-6
397.975731E-3,-5.411911E-3,-5.805588E-3,-6.101990E-3,77.247620E-6,296.401978E-6
399.547005E-3,-5.002785E-3,-5.394173E-3,-5.584145E-3,77.247620E-6,189.971924E-6
399.475479E-3,-6.263351E-3,-6.404686E-3,-6.308556E-3,77.247620E-6,-96.130371E-6
401.637840E-3,-4.648590E-3,-4.939270E-3,-4.664612E-3,77.247620E-6,-274.658203E-6
401.941109E-3,-5.208206E-3,-5.596161E-3,-5.617905E-3,77.247620E-6,21.743774E-6
401.937675E-3,-5.460548E-3,-6.007004E-3,-6.149483E-3,77.247620E-6,142.478943E-6
402.426910E-3,-5.090332E-3,-5.403900E-3,-6.031036E-3,77.247620E-6,627.136230E-6
401.114273E-3,-6.294823E-3,-6.330299E-3,-6.461334E-3,77.247620E-6,131.034851E-6
402.346230E-3,-4.723549E-3,-4.935837E-3,-4.849434E-3,77.247620E-6,-86.402893E-6
401.628685E-3,-5.205917E-3,-5.401039E-3,-5.482292E-3,77.247620E-6,81.253052E-6
400.869942E-3,-5.704308E-3,-5.914879E-3,-5.921173E-3,77.247620E-6,6.294250E-6
400.957489E-3,-5.065155E-3,-5.913162E-3,-5.382729E-3,77.247620E-6,-530.433655E-6
399.597931E-3,-6.091690E-3,-6.588364E-3,-6.242180E-3,77.247620E-6,-346.183777E-6
401.308823E-3,-4.645729E-3,-4.772758E-3,-4.884911E-3,77.247620E-6,112.152100E-6
401.329422E-3,-5.113220E-3,-5.318069E-3,-5.411339E-3,77.247620E-6,93.269348E-6
401.893616E-3,-5.578423E-3,-5.996132E-3,-6.084251E-3,77.247620E-6,88.119507E-6
403.630257E-3,-5.142403E-3,-5.485725E-3,-6.044769E-3,77.247620E-6,559.043884E-6
403.451157E-3,-6.348610E-3,-6.295395E-3,-6.528282E-3,77.247620E-6,232.887268E-6
405.669594E-3,-4.646873E-3,-4.818535E-3,-4.988480E-3,77.247620E-6,169.944763E-6
405.866432E-3,-5.375290E-3,-5.422211E-3,-5.525208E-3,77.247620E-6,102.996826E-6
405.853844E-3,-5.652237E-3,-5.911446E-3,-6.019592E-3,77.247620E-6,108.146667E-6
406.151962E-3,-5.093193E-3,-5.333519E-3,-5.506897E-3,73.814392E-6,173.377991E-6
404.902840E-3,-6.270790E-3,-6.192970E-3,-6.201553E-3,73.814392E-6,8.583069E-6
405.773735E-3,-4.571342E-3,-4.751015E-3,-4.894638E-3,73.814392E-6,143.623352E-6
405.220985E-3,-5.015945E-3,-5.240250E-3,-5.407333E-3,73.814392E-6,167.083740E-6
404.643631E-3,-5.806160E-3,-5.997276E-3,-5.997849E-3,73.814392E-6,572.204590E-9
405.015564E-3,-5.171585E-3,-5.489731E-3,-5.530357E-3,73.814392E-6,40.626526E-6
404.074860E-3,-6.186676E-3,-6.150055E-3,-6.117439E-3,73.814392E-6,-32.615662E-6
405.855560E-3,-4.497528E-3,-4.967880E-3,-4.868889E-3,73.814392E-6,-98.991394E-6
405.656433E-3,-5.105782E-3,-5.346680E-3,-5.350113E-3,73.814392E-6,3.433228E-6
405.636406E-3,-5.716896E-3,-5.834770E-3,-6.212425E-3,73.814392E-6,377.655029E-6
406.620026E-3,-5.237961E-3,-5.346107E-3,-5.482864E-3,73.814392E-6,136.756897E-6
405.938530E-3,-6.079102E-3,-6.043625E-3,-6.019020E-3,73.814392E-6,-24.604797E-6
408.231926E-3,-4.621696E-3,-4.673195E-3,-4.919815E-3,73.814392E-6,246.620178E-6
408.245659E-3,-5.188179E-3,-5.312920E-3,-5.562401E-3,73.814392E-6,249.481201E-6
408.000183E-3,-5.669975E-3,-5.994987E-3,-5.969238E-3,73.814392E-6,-25.749207E-6
409.081650E-3,-5.142403E-3,-5.610466E-3,-5.484009E-3,73.814392E-6,-126.457214E-6
408.282852E-3,-6.130600E-3,-6.315422E-3,-6.040192E-3,73.814392E-6,-275.230408E-6
410.324478E-3,-4.661179E-3,-4.825974E-3,-4.919243E-3,73.814392E-6,93.269348E-6
410.225487E-3,-5.080605E-3,-5.414772E-3,-5.284309E-3,73.814392E-6,-130.462646E-6
409.803772E-3,-5.583000E-3,-6.025887E-3,-6.348610E-3,73.814392E-6,322.723389E-6
410.449791E-3,-5.088615E-3,-5.549812E-3,-5.632210E-3,73.814392E-6,82.397461E-6
409.775162E-3,-5.859947E-3,-5.978394E-3,-6.240463E-3,73.814392E-6,262.069702E-6
411.566734E-3,-4.425430E-3,-4.979324E-3,-5.101204E-3,73.814392E-6,121.879578E-6
411.199951E-3,-5.017662E-3,-5.392456E-3,-5.504036E-3,73.814392E-6,111.579895E-6
410.635185E-3,-5.589867E-3,-5.827332E-3,-6.066513E-3,73.814392E-6,239.181519E-6
411.449432E-3,-5.090904E-3,-5.388451E-3,-5.520058E-3,73.814392E-6,131.607056E-6
410.742187E-3,-5.690002E-3,-5.933762E-3,-6.158066E-3,73.814392E-6,224.304199E-6
412.272835E-3,-4.406548E-3,-4.824257E-3,-5.149269E-3,73.814392E-6,325.012207E-6
411.963844E-3,-5.050278E-3,-5.297470E-3,-5.377007E-3,73.814392E-6,79.536438E-6
411.515808E-3,-5.748367E-3,-5.840492E-3,-5.882263E-3,73.814392E-6,41.770935E-6
412.142944E-3,-5.050278E-3,-5.375290E-3,-5.505753E-3,73.814392E-6,130.462646E-6
411.542130E-3,-5.827332E-3,-5.859947E-3,-6.132889E-3,73.814392E-6,272.941589E-6
413.249588E-3,-4.540443E-3,-4.930687E-3,-5.164146E-3,73.814392E-6,233.459473E-6
412.662506E-3,-5.081177E-3,-5.278587E-3,-5.453682E-3,73.814392E-6,175.094604E-6
412.201881E-3,-5.709457E-3,-6.011581E-3,-6.076241E-3,73.814392E-6,64.659119E-6
412.712860E-3,-5.934906E-3,-5.156708E-3,-5.558968E-3,73.814392E-6,402.259827E-6
412.256241E-3,-6.208420E-3,-5.866241E-3,-6.191826E-3,73.814392E-6,325.584412E-6
413.679314E-3,-4.603386E-3,-4.738426E-3,-5.062866E-3,73.814392E-6,324.440002E-6
413.237000E-3,-5.061722E-3,-5.157280E-3,-5.446243E-3,73.814392E-6,288.963318E-6
412.553787E-3,-5.773544E-3,-5.883408E-3,-6.031609E-3,73.814392E-6,148.200989E-6
412.889099E-3,-5.138397E-3,-5.252838E-3,-5.367851E-3,73.814392E-6,115.013123E-6
412.564087E-3,-5.792999E-3,-5.902863E-3,-6.043625E-3,73.814392E-6,140.762329E-6
414.143372E-3,-4.685783E-3,-4.820251E-3,-4.812241E-3,73.814392E-6,-8.010864E-6
413.972282E-3,-5.034828E-3,-5.487442E-3,-5.359268E-3,73.814392E-6,-128.173828E-6
413.499069E-3,-5.649948E-3,-6.677055E-3,-5.862808E-3,73.814392E-6,-814.247131E-6
414.131355E-3,-5.055428E-3,-5.691147E-3,-5.281448E-3,73.814392E-6,-409.698486E-6
413.525963E-3,-5.925751E-3,-6.212425E-3,-6.043053E-3,73.814392E-6,-169.372559E-6
415.046883E-3,-4.588509E-3,-5.059433E-3,-4.983330E-3,73.814392E-6,-76.103210E-6
414.583969E-3,-5.094910E-3,-5.386734E-3,-5.434227E-3,73.814392E-6,47.492981E-6
413.860703E-3,-5.686569E-3,-6.014442E-3,-5.941772E-3,73.814392E-6,-72.669983E-6
414.629173E-3,-5.020523E-3,-5.288315E-3,-5.387306E-3,73.814392E-6,98.991394E-6
414.371109E-3,-5.646515E-3,-6.017876E-3,-6.130600E-3,73.814392E-6,112.724304E-6
415.844536E-3,-4.611969E-3,-4.903793E-3,-4.942131E-3,73.814392E-6,38.337708E-6
415.668297E-3,-5.062866E-3,-5.318642E-3,-5.518341E-3,73.814392E-6,199.699402E-6
415.308380E-3,-6.125450E-3,-6.000137E-3,-6.066513E-3,73.814392E-6,66.375732E-6
416.233063E-3,-5.171013E-3,-5.297470E-3,-5.397606E-3,73.814392E-6,100.135803E-6
415.962410E-3,-5.894279E-3,-6.146049E-3,-6.173515E-3,73.814392E-6,27.465820E-6
417.372322E-3,-4.670906E-3,-4.975319E-3,-5.001640E-3,73.814392E-6,26.321411E-6
417.117691E-3,-5.019951E-3,-5.299187E-3,-5.414772E-3,73.814392E-6,115.585327E-6
416.737747E-3,-5.637360E-3,-6.672478E-3,-5.977821E-3,73.814392E-6,-694.656372E-6
417.474174E-3,-5.375862E-3,-5.574989E-3,-5.348969E-3,73.814392E-6,-226.020813E-6
416.852760E-3,-5.953789E-3,-6.158638E-3,-6.039619E-3,73.814392E-6,-119.018555E-6
417.974854E-3,-4.746437E-3,-4.927254E-3,-4.965591E-3,73.814392E-6,38.337708E-6
417.859840E-3,-4.951286E-3,-5.265427E-3,-5.330086E-3,73.814392E-6,64.659119E-6
416.916847E-3,-5.576134E-3,-5.777550E-3,-5.872536E-3,73.814392E-6,94.985962E-6
416.824722E-3,-5.078888E-3,-5.330658E-3,-5.598450E-3,73.814392E-6,267.791748E-6
414.777946E-3,-5.817032E-3,-6.053352E-3,-6.104851E-3,73.814392E-6,51.498413E-6
413.787460E-3,-4.480362E-3,-4.911232E-3,-5.000496E-3,73.814392E-6,89.263916E-6
410.354233E-3,-4.764748E-3,-5.319786E-3,-5.395317E-3,73.814392E-6,75.531006E-6
406.289864E-3,-5.447960E-3,-5.940628E-3,-5.997276E-3,73.814392E-6,56.648254E-6
403.452301E-3,-5.477715E-3,-5.368423E-3,-5.222511E-3,73.814392E-6,-145.912170E-6
399.690056E-3,-5.783844E-3,-6.125450E-3,-6.060219E-3,73.814392E-6,-65.231323E-6
398.668671E-3,-4.700661E-3,-5.006790E-3,-5.064583E-3,73.814392E-6,57.792664E-6
396.785545E-3,-4.978180E-3,-5.241394E-3,-5.272293E-3,73.814392E-6,30.899048E-6
395.748711E-3,-6.448174E-3,-5.946350E-3,-5.916595E-3,73.814392E-6,-29.754639E-6
396.786118E-3,-5.261421E-3,-5.841064E-3,-5.225945E-3,73.814392E-6,-615.119934E-6
396.865654E-3,-5.723190E-3,-6.042480E-3,-6.048203E-3,73.814392E-6,5.722046E-6
399.173355E-3,-4.623985E-3,-4.690933E-3,-5.006218E-3,73.814392E-6,315.284729E-6
400.016212E-3,-5.017090E-3,-5.179024E-3,-5.442810E-3,73.814392E-6,263.786316E-6
400.513458E-3,-5.695152E-3,-5.818176E-3,-5.946350E-3,73.814392E-6,128.173828E-6
402.103043E-3,-5.085182E-3,-5.173874E-3,-5.724907E-3,73.814392E-6,551.033020E-6
402.058411E-3,-5.671120E-3,-6.021309E-3,-6.320572E-3,69.236755E-6,299.263000E-6
403.535271E-3,-4.510117E-3,-4.890060E-3,-4.710960E-3,69.236755E-6,-179.100037E-6
403.294945E-3,-5.039406E-3,-5.268288E-3,-5.100060E-3,69.236755E-6,-168.228149E-6
402.523613E-3,-6.085396E-3,-6.009293E-3,-6.008148E-3,69.236755E-6,-1.144409E-6
402.796555E-3,-5.558968E-3,-5.178452E-3,-5.196762E-3,69.236755E-6,18.310547E-6
401.751137E-3,-5.834198E-3,-6.009293E-3,-5.929184E-3,69.236755E-6,-80.108643E-6
402.627754E-3,-4.584503E-3,-4.744148E-3,-4.879761E-3,69.236755E-6,135.612488E-6
401.774025E-3,-4.811668E-3,-5.066872E-3,-5.379295E-3,69.236755E-6,312.423706E-6
400.816727E-3,-5.464554E-3,-5.890846E-3,-5.949783E-3,69.236755E-6,58.937073E-6
402.231789E-3,-4.887772E-3,-5.069733E-3,-5.278587E-3,69.236755E-6,208.854675E-6
402.542496E-3,-5.710602E-3,-5.810738E-3,-6.119156E-3,69.236755E-6,308.418274E-6
404.769516E-3,-4.630280E-3,-4.967308E-3,-5.104065E-3,69.236755E-6,136.756897E-6
405.384064E-3,-4.977608E-3,-5.225945E-3,-5.443954E-3,69.236755E-6,218.009949E-6
405.590630E-3,-5.608177E-3,-5.901718E-3,-6.758308E-3,69.236755E-6,856.590271E-6
406.571388E-3,-4.874039E-3,-5.163002E-3,-5.331230E-3,69.236755E-6,168.228149E-6
405.814934E-3,-5.637932E-3,-5.781555E-3,-6.229019E-3,69.236755E-6,447.463989E-6
406.747055E-3,-4.615402E-3,-4.977608E-3,-5.127525E-3,69.236755E-6,149.917603E-6
405.690193E-3,-5.008507E-3,-5.268860E-3,-5.365562E-3,69.236755E-6,96.702576E-6
404.794693E-3,-5.813026E-3,-5.973816E-3,-6.675911E-3,69.236755E-6,702.095032E-6
404.956055E-3,-4.885483E-3,-5.259705E-3,-5.902290E-3,69.236755E-6,642.585754E-6
404.102898E-3,-5.779266E-3,-5.964661E-3,-6.131744E-3,69.236755E-6,167.083740E-6
404.962349E-3,-4.753304E-3,-4.895210E-3,-5.178452E-3,69.236755E-6,283.241272E-6
404.746628E-3,-5.050850E-3,-5.089188E-3,-5.393600E-3,69.236755E-6,304.412842E-6
403.967285E-3,-5.600166E-3,-5.867958E-3,-6.179237E-3,69.236755E-6,311.279297E-6
405.225563E-3,-4.759598E-3,-5.657959E-3,-5.098915E-3,69.236755E-6,-559.043884E-6
405.177498E-3,-5.573273E-3,-6.066513E-3,-5.793571E-3,69.236755E-6,-272.941589E-6
406.826019E-3,-4.749298E-3,-5.002213E-3,-4.914665E-3,69.236755E-6,-87.547302E-6
407.216835E-3,-4.832840E-3,-5.270576E-3,-5.359268E-3,69.236755E-6,88.691711E-6
406.466103E-3,-5.609894E-3,-6.060791E-3,-6.195831E-3,69.236755E-6,135.040283E-6
408.086014E-3,-4.874611E-3,-5.252266E-3,-5.082321E-3,69.236755E-6,-169.944763E-6
407.979012E-3,-5.752373E-3,-6.010437E-3,-5.913734E-3,69.236755E-6,-96.702576E-6
409.613228E-3,-4.776764E-3,-5.063438E-3,-5.050278E-3,69.236755E-6,-13.160706E-6
409.800339E-3,-4.764748E-3,-5.348969E-3,-5.220222E-3,69.236755E-6,-128.746033E-6
408.500290E-3,-5.538368E-3,-6.091690E-3,-6.109428E-3,69.236755E-6,17.738342E-6
409.951401E-3,-4.686356E-3,-5.176735E-3,-5.382156E-3,69.236755E-6,205.421448E-6
409.504509E-3,-5.639076E-3,-5.862236E-3,-6.023598E-3,69.236755E-6,161.361694E-6
410.840607E-3,-4.694939E-3,-4.870033E-3,-5.031967E-3,69.236755E-6,161.933899E-6
410.758781E-3,-4.809952E-3,-5.042839E-3,-5.131531E-3,69.236755E-6,88.691711E-6
409.495926E-3,-5.672836E-3,-5.932045E-3,-6.059074E-3,69.236755E-6,127.029419E-6
410.838890E-3,-4.860306E-3,-5.118942E-3,-4.871178E-3,69.236755E-6,-247.764587E-6
410.268974E-3,-5.687714E-3,-5.960083E-3,-5.769539E-3,69.236755E-6,-190.544128E-6
411.508942E-3,-4.655457E-3,-5.008507E-3,-5.169296E-3,69.236755E-6,160.789490E-6
411.123276E-3,-5.109215E-3,-5.182457E-3,-5.393600E-3,69.236755E-6,211.143494E-6
410.713577E-3,-6.513405E-3,-5.989265E-3,-6.347466E-3,69.236755E-6,358.200073E-6
411.629105E-3,-5.031395E-3,-5.427933E-3,-5.103493E-3,69.236755E-6,-324.440002E-6
411.114120E-3,-5.743217E-3,-5.992126E-3,-5.783844E-3,69.236755E-6,-208.282471E-6
412.187576E-3,-4.597092E-3,-4.990196E-3,-5.139542E-3,69.236755E-6,149.345398E-6
412.036514E-3,-4.927826E-3,-4.986763E-3,-5.205345E-3,69.236755E-6,218.582153E-6
411.499786E-3,-5.795288E-3,-5.934906E-3,-6.181526E-3,69.236755E-6,246.620178E-6
412.346077E-3,-5.250549E-3,-4.965019E-3,-4.772186E-3,69.236755E-6,-192.832947E-6
411.788750E-3,-5.802155E-3,-5.742645E-3,-5.902290E-3,69.236755E-6,159.645081E-6
412.766647E-3,-4.655457E-3,-5.071449E-3,-5.159569E-3,69.236755E-6,88.119507E-6
412.629890E-3,-4.854584E-3,-5.315781E-3,-5.344391E-3,69.236755E-6,28.610229E-6
411.878014E-3,-5.813026E-3,-6.307411E-3,-6.298828E-3,69.236755E-6,-8.583069E-6
412.839890E-3,-5.037689E-3,-5.010796E-3,-4.681206E-3,69.236755E-6,-329.589844E-6
412.264824E-3,-5.657387E-3,-5.728912E-3,-6.061363E-3,69.236755E-6,332.450867E-6
413.454437E-3,-4.562759E-3,-4.986191E-3,-5.369568E-3,69.236755E-6,383.377075E-6
413.496208E-3,-4.950142E-3,-5.275154E-3,-5.213356E-3,69.236755E-6,-61.798096E-6
412.601280E-3,-5.735779E-3,-5.954933E-3,-6.171799E-3,69.236755E-6,216.865540E-6
413.381195E-3,-4.904366E-3,-4.705238E-3,-4.561615E-3,69.236755E-6,-143.623352E-6
412.775230E-3,-5.706596E-3,-5.564690E-3,-5.834198E-3,69.236755E-6,269.508362E-6
413.751984E-3,-4.700661E-3,-4.855156E-3,-5.015373E-3,69.236755E-6,160.217285E-6
413.686180E-3,-4.809380E-3,-5.304909E-3,-5.381012E-3,69.236755E-6,76.103210E-6
412.982941E-3,-5.783844E-3,-6.162071E-3,-6.334305E-3,69.236755E-6,172.233582E-6
413.992310E-3,-4.840279E-3,-4.640007E-3,-4.737282E-3,69.236755E-6,97.274780E-6
413.579178E-3,-5.512619E-3,-5.611610E-3,-5.948639E-3,69.236755E-6,337.028503E-6
414.723587E-3,-4.768753E-3,-4.954147E-3,-5.335236E-3,69.236755E-6,381.088257E-6
414.833450E-3,-4.950142E-3,-5.197906E-3,-5.490875E-3,69.236755E-6,292.968750E-6
413.134003E-3,-5.654526E-3,-6.067085E-3,-6.184387E-3,69.236755E-6,117.301941E-6
414.951897E-3,-4.593658E-3,-4.603386E-3,-4.591942E-3,69.236755E-6,-11.444092E-6
414.780235E-3,-5.504036E-3,-5.775261E-3,-5.834770E-3,69.236755E-6,59.509277E-6
416.170692E-3,-4.611969E-3,-5.179024E-3,-5.253983E-3,69.236755E-6,74.958801E-6
416.123772E-3,-4.595375E-3,-5.218506E-3,-5.136681E-3,69.236755E-6,-81.825256E-6
415.550423E-3,-5.770111E-3,-6.033897E-3,-6.792641E-3,69.236755E-6,758.743286E-6
416.702843E-3,-4.595375E-3,-4.492950E-3,-4.656029E-3,69.236755E-6,163.078308E-6
416.083145E-3,-5.333519E-3,-5.692291E-3,-5.735779E-3,69.236755E-6,43.487549E-6
417.009544E-3,-4.551888E-3,-4.924965E-3,-5.339813E-3,69.236755E-6,414.848328E-6
416.721725E-3,-4.864883E-3,-5.230522E-3,-5.295753E-3,69.236755E-6,65.231323E-6
414.085579E-3,-5.832481E-3,-6.065369E-3,-6.082535E-3,69.236755E-6,17.166138E-6
414.348793E-3,-4.629707E-3,-4.577065E-3,-4.578781E-3,69.236755E-6,1.716614E-6
411.987305E-3,-5.755806E-3,-5.814743E-3,-5.817032E-3,69.236755E-6,2.288818E-6
410.241508E-3,-4.733276E-3,-4.958153E-3,-5.242538E-3,69.236755E-6,284.385681E-6
406.673241E-3,-4.983330E-3,-5.049706E-3,-5.274010E-3,69.236755E-6,224.304199E-6
402.432632E-3,-5.778122E-3,-6.035614E-3,-6.095695E-3,69.236755E-6,60.081482E-6
400.259399E-3,-4.170227E-3,-4.515839E-3,-4.448891E-3,69.236755E-6,-66.947937E-6
396.667099E-3,-5.592728E-3,-5.782127E-3,-5.710602E-3,69.236755E-6,-71.525574E-6
395.702362E-3,-4.666328E-3,-5.001640E-3,-5.203629E-3,69.236755E-6,201.988220E-6
394.721031E-3,-4.751015E-3,-5.081177E-3,-5.122948E-3,69.236755E-6,41.770935E-6
393.943977E-3,-5.687714E-3,-5.991554E-3,-6.148911E-3,69.236755E-6,157.356262E-6
395.862579E-3,-4.162216E-3,-4.471207E-3,-4.563332E-3,69.236755E-6,92.124939E-6
395.979881E-3,-5.389023E-3,-5.585861E-3,-5.659103E-3,69.236755E-6,73.242187E-6
397.834396E-3,-4.805946E-3,-5.070877E-3,-5.033684E-3,69.236755E-6,-37.193298E-6
398.396301E-3,-4.967308E-3,-5.227089E-3,-5.105209E-3,69.236755E-6,-121.879578E-6
398.578835E-3,-5.702019E-3,-5.806160E-3,-5.778694E-3,69.236755E-6,-27.465820E-6
400.727463E-3,-3.927040E-3,-4.269218E-3,-4.349899E-3,69.236755E-6,80.680847E-6
399.943542E-3,-5.493736E-3,-5.564690E-3,-5.641937E-3,69.236755E-6,77.247620E-6
400.857353E-3,-4.661751E-3,-5.067444E-3,-5.183601E-3,69.236755E-6,116.157532E-6
400.533485E-3,-4.938698E-3,-5.125809E-3,-5.232811E-3,69.236755E-6,107.002258E-6
399.417114E-3,-5.801582E-3,-5.910301E-3,-5.949211E-3,69.236755E-6,38.909912E-6
400.462532E-3,-4.131317E-3,-4.330444E-3,-4.402542E-3,69.236755E-6,72.097778E-6
399.060059E-3,-5.288315E-3,-5.648232E-3,-5.431938E-3,69.236755E-6,-216.293335E-6
399.141884E-3,-4.610252E-3,-5.038261E-3,-5.141830E-3,69.236755E-6,103.569031E-6
398.861504E-3,-4.889488E-3,-5.236244E-3,-5.012512E-3,70.381165E-6,-223.731995E-6
397.856712E-3,-5.698013E-3,-5.896568E-3,-5.966949E-3,70.381165E-6,70.381165E-6
400.259399E-3,-3.884697E-3,-4.256058E-3,-4.427719E-3,70.381165E-6,171.661377E-6
400.152397E-3,-5.299759E-3,-5.641365E-3,-5.583572E-3,70.381165E-6,-57.792664E-6
401.776886E-3,-4.679489E-3,-5.151558E-3,-5.407906E-3,70.381165E-6,256.347656E-6
402.604866E-3,-4.840851E-3,-5.072021E-3,-5.260277E-3,70.381165E-6,188.255310E-6
402.627182E-3,-5.711174E-3,-5.913162E-3,-6.105423E-3,70.381165E-6,192.260742E-6
404.782104E-3,-4.071236E-3,-4.204559E-3,-4.527283E-3,70.381165E-6,322.723389E-6
403.959274E-3,-5.331230E-3,-5.571556E-3,-5.711174E-3,70.381165E-6,139.617920E-6
404.327774E-3,-4.751587E-3,-5.335808E-3,-5.450821E-3,70.381165E-6,115.013123E-6
403.839684E-3,-5.042267E-3,-5.370140E-3,-5.307770E-3,70.381165E-6,-62.370300E-6
402.658081E-3,-5.728912E-3,-5.908012E-3,-5.862236E-3,70.381165E-6,-45.776367E-6
403.810501E-3,-3.996277E-3,-4.276657E-3,-4.434586E-3,70.381165E-6,157.928467E-6
402.382278E-3,-5.332947E-3,-5.530930E-3,-5.626488E-3,70.381165E-6,95.558167E-6
402.939034E-3,-4.983902E-3,-5.197906E-3,-5.145264E-3,70.381165E-6,-52.642822E-6
403.093529E-3,-4.995918E-3,-5.211067E-3,-5.185890E-3,70.381165E-6,-25.177002E-6
402.600861E-3,-5.663109E-3,-5.889702E-3,-5.814171E-3,70.381165E-6,-75.531006E-6
404.423332E-3,-3.964233E-3,-4.364204E-3,-4.437447E-3,70.381165E-6,73.242187E-6
403.595352E-3,-5.294037E-3,-5.693436E-3,-5.804443E-3,70.381165E-6,111.007690E-6
404.694557E-3,-4.728699E-3,-5.405617E-3,-5.434227E-3,70.381165E-6,28.610229E-6
405.028725E-3,-4.640579E-3,-5.150414E-3,-5.079460E-3,70.381165E-6,-70.953369E-6
404.689407E-3,-5.726051E-3,-7.174873E-3,-5.759811E-3,70.381165E-6,-1.415062E-3
406.702423E-3,-4.099274E-3,-4.776764E-3,-4.437447E-3,70.381165E-6,-339.317322E-6
406.029510E-3,-5.296898E-3,-5.793571E-3,-5.865669E-3,70.381165E-6,72.097778E-6
407.202530E-3,-4.767036E-3,-5.303764E-3,-5.290604E-3,70.381165E-6,-13.160706E-6
407.505226E-3,-4.803658E-3,-5.440521E-3,-5.309486E-3,70.381165E-6,-131.034851E-6
406.982803E-3,-5.489159E-3,-6.000137E-3,-5.833626E-3,70.381165E-6,-166.511536E-6
408.779526E-3,-3.856087E-3,-4.379654E-3,-4.569054E-3,70.381165E-6,189.399719E-6
407.916069E-3,-5.273437E-3,-5.704308E-3,-5.853081E-3,70.381165E-6,148.773193E-6
408.546066E-3,-4.867172E-3,-5.236816E-3,-5.577850E-3,70.381165E-6,341.033936E-6
408.825874E-3,-4.727554E-3,-5.061722E-3,-5.357552E-3,70.381165E-6,295.829773E-6
408.136940E-3,-6.686211E-3,-5.750084E-3,-5.842781E-3,70.381165E-6,92.697144E-6
409.781456E-3,-4.441452E-3,-4.491234E-3,-4.554749E-3,70.381165E-6,63.514709E-6
408.591270E-3,-5.426788E-3,-5.716896E-3,-6.006432E-3,70.381165E-6,289.535522E-6
409.368896E-3,-4.741859E-3,-5.300903E-3,-5.506325E-3,70.381165E-6,205.421448E-6
409.405518E-3,-4.564476E-3,-5.122375E-3,-5.279732E-3,70.381165E-6,157.356262E-6
408.934593E-3,-6.265068E-3,-5.784988E-3,-5.912590E-3,70.381165E-6,127.601624E-6
410.695839E-3,-4.281807E-3,-4.443741E-3,-4.449463E-3,70.381165E-6,5.722046E-6
409.663010E-3,-5.403328E-3,-5.763817E-3,-5.736351E-3,70.381165E-6,-27.465820E-6
410.148239E-3,-4.990768E-3,-5.447388E-3,-5.336952E-3,70.381165E-6,-110.435486E-6
410.347366E-3,-5.011940E-3,-4.965019E-3,-5.112076E-3,70.381165E-6,147.056580E-6
409.695053E-3,-5.592155E-3,-5.472565E-3,-5.969810E-3,70.381165E-6,497.245789E-6
411.540413E-3,-3.979111E-3,-4.153633E-3,-4.695511E-3,70.381165E-6,541.877747E-6
410.419464E-3,-5.439377E-3,-5.744362E-3,-5.742073E-3,70.381165E-6,-2.288818E-6
410.751915E-3,-4.958153E-3,-5.244827E-3,-5.250549E-3,70.381165E-6,5.722046E-6
411.017418E-3,-4.720116E-3,-4.973030E-3,-5.078316E-3,70.381165E-6,105.285645E-6
410.350800E-3,-5.533791E-3,-5.561829E-3,-7.048416E-3,70.381165E-6,1.486588E-3
411.954689E-3,-4.067802E-3,-4.195404E-3,-5.006790E-3,70.381165E-6,811.386108E-6
411.001396E-3,-5.511475E-3,-5.629349E-3,-5.873108E-3,70.381165E-6,243.759155E-6
411.487198E-3,-5.089188E-3,-5.172729E-3,-5.482292E-3,70.381165E-6,309.562683E-6
411.807632E-3,-4.824257E-3,-4.966164E-3,-5.272293E-3,70.381165E-6,306.129456E-6
411.256599E-3,-5.834198E-3,-5.583000E-3,-5.825615E-3,70.381165E-6,242.614746E-6
412.962914E-3,-4.192543E-3,-4.211426E-3,-4.563332E-3,70.381165E-6,351.905823E-6
411.788750E-3,-5.455971E-3,-5.478859E-3,-5.941772E-3,70.381165E-6,462.913513E-6
412.335777E-3,-4.766464E-3,-5.176735E-3,-5.446243E-3,70.381165E-6,269.508362E-6
412.670517E-3,-4.757309E-3,-4.978752E-3,-5.248833E-3,70.381165E-6,270.080566E-6
412.141800E-3,-5.407906E-3,-6.325150E-3,-5.898857E-3,70.381165E-6,-426.292419E-6
413.714790E-3,-4.014015E-3,-4.571915E-3,-4.654884E-3,70.381165E-6,82.969666E-6
412.463951E-3,-5.153275E-3,-5.762100E-3,-5.854797E-3,70.381165E-6,92.697144E-6
412.915421E-3,-4.758453E-3,-5.284882E-3,-5.636787E-3,70.381165E-6,351.905823E-6
413.378334E-3,-4.557610E-3,-5.204201E-3,-5.387306E-3,70.381165E-6,183.105469E-6
412.688255E-3,-5.518341E-3,-5.688858E-3,-7.054138E-3,70.381165E-6,1.365280E-3
414.229774E-3,-4.002571E-3,-4.373360E-3,-5.071449E-3,70.381165E-6,698.089600E-6
413.176918E-3,-5.447388E-3,-5.748367E-3,-6.051636E-3,70.381165E-6,303.268433E-6
413.867569E-3,-5.025673E-3,-5.308342E-3,-5.496597E-3,70.381165E-6,188.255310E-6
414.098740E-3,-4.605103E-3,-5.132103E-3,-5.263710E-3,70.381165E-6,131.607056E-6
413.578606E-3,-6.517982E-3,-5.628204E-3,-5.831909E-3,70.381165E-6,203.704834E-6
415.305519E-3,-4.348183E-3,-4.273224E-3,-4.681206E-3,70.381165E-6,407.981873E-6
414.294434E-3,-5.723190E-3,-5.715179E-3,-5.714035E-3,70.381165E-6,-1.144409E-6
414.912987E-3,-5.186462E-3,-5.383301E-3,-5.524635E-3,70.381165E-6,141.334534E-6
415.303230E-3,-4.966736E-3,-5.066299E-3,-5.162430E-3,70.381165E-6,96.130371E-6
415.201378E-3,-5.609322E-3,-6.332588E-3,-5.757523E-3,70.381165E-6,-575.065613E-6
416.428185E-3,-4.103279E-3,-4.689217E-3,-4.446030E-3,70.381165E-6,-243.186951E-6
415.225410E-3,-5.566978E-3,-5.790138E-3,-5.874825E-3,70.381165E-6,84.686279E-6
415.687752E-3,-4.911232E-3,-5.490875E-3,-5.571556E-3,70.381165E-6,80.680847E-6
415.805054E-3,-4.775620E-3,-5.074310E-3,-5.320930E-3,70.381165E-6,246.620178E-6
414.621162E-3,-5.578995E-3,-5.783844E-3,-5.758095E-3,70.381165E-6,-25.749207E-6
414.813995E-3,-4.135895E-3,-4.563904E-3,-4.598808E-3,70.381165E-6,34.904480E-6
411.278343E-3,-5.425072E-3,-5.718613E-3,-6.006432E-3,70.381165E-6,287.818909E-6
408.880806E-3,-5.168724E-3,-5.338669E-3,-5.481720E-3,70.381165E-6,143.051147E-6
405.473900E-3,-4.856873E-3,-5.158997E-3,-5.375862E-3,70.381165E-6,216.865540E-6
401.282501E-3,-5.367279E-3,-5.774117E-3,-5.898285E-3,70.381165E-6,124.168396E-6
399.072647E-3,-4.030609E-3,-4.362488E-3,-4.586792E-3,70.381165E-6,224.304199E-6
395.003700E-3,-5.436516E-3,-5.736923E-3,-5.791855E-3,70.381165E-6,54.931641E-6
393.630409E-3,-4.978752E-3,-5.446815E-3,-5.465698E-3,70.381165E-6,18.882751E-6
392.930031E-3,-5.025673E-3,-5.064583E-3,-5.197334E-3,70.381165E-6,132.751465E-6
392.301750E-3,-5.528069E-3,-5.833626E-3,-6.624413E-3,70.381165E-6,790.786743E-6
394.432640E-3,-4.198265E-3,-4.615402E-3,-4.795074E-3,60.653687E-6,179.672241E-6
393.984604E-3,-5.421638E-3,-5.772972E-3,-5.986977E-3,60.653687E-6,214.004517E-6
395.604515E-3,-5.073166E-3,-5.425072E-3,-5.630493E-3,60.653687E-6,205.421448E-6
396.682549E-3,-4.855156E-3,-5.473137E-3,-5.142403E-3,60.653687E-6,-330.734253E-6
396.950340E-3,-6.799507E-3,-5.754662E-3,-5.949783E-3,60.653687E-6,195.121765E-6
398.872948E-3,-4.594231E-3,-4.479790E-3,-4.639435E-3,60.653687E-6,159.645081E-6
397.730255E-3,-5.716896E-3,-5.639076E-3,-5.844498E-3,60.653687E-6,205.421448E-6
398.122215E-3,-5.119514E-3,-5.228233E-3,-5.430794E-3,60.653687E-6,202.560425E-6
398.419189E-3,-4.948425E-3,-5.104065E-3,-5.343819E-3,60.653687E-6,239.753723E-6
397.310257E-3,-5.597305E-3,-5.754089E-3,-5.892563E-3,60.653687E-6,138.473511E-6
398.200607E-3,-4.378510E-3,-4.576492E-3,-4.677773E-3,60.653687E-6,101.280212E-6
396.431923E-3,-5.452538E-3,-5.819321E-3,-5.793571E-3,60.653687E-6,-25.749207E-6
396.570969E-3,-5.174446E-3,-5.462265E-3,-5.785561E-3,60.653687E-6,323.295593E-6
396.381569E-3,-4.883766E-3,-5.355263E-3,-5.389595E-3,60.653687E-6,34.332275E-6
395.953560E-3,-5.510330E-3,-6.901932E-3,-5.994987E-3,60.653687E-6,-906.944275E-6
397.794914E-3,-4.177666E-3,-4.819107E-3,-4.642296E-3,60.653687E-6,-176.811218E-6
397.270775E-3,-5.512047E-3,-5.895424E-3,-5.826759E-3,60.653687E-6,-68.664551E-6
398.945045E-3,-5.129242E-3,-5.514908E-3,-5.502892E-3,60.653687E-6,-12.016296E-6
400.269127E-3,-4.871750E-3,-5.457687E-3,-5.482292E-3,60.653687E-6,24.604797E-6
400.696564E-3,-5.407333E-3,-5.960083E-3,-7.497597E-3,60.653687E-6,1.537514E-3
402.639771E-3,-4.268074E-3,-4.651451E-3,-5.161858E-3,60.653687E-6,510.406494E-6
401.814651E-3,-5.552673E-3,-5.674553E-3,-5.738068E-3,60.653687E-6,63.514709E-6
402.167702E-3,-5.178452E-3,-5.654526E-3,-5.670547E-3,60.653687E-6,16.021729E-6
402.168846E-3,-5.069160E-3,-5.394745E-3,-5.404472E-3,60.653687E-6,9.727478E-6
401.406097E-3,-5.599594E-3,-5.971527E-3,-6.069374E-3,60.653687E-6,97.846985E-6
402.319336E-3,-4.357910E-3,-4.563904E-3,-4.704666E-3,60.653687E-6,140.762329E-6
400.847054E-3,-5.647659E-3,-5.549240E-3,-5.620193E-3,60.653687E-6,70.953369E-6
401.209259E-3,-5.212784E-3,-5.550957E-3,-5.389023E-3,60.653687E-6,-161.933899E-6
401.276207E-3,-4.820824E-3,-5.186462E-3,-5.283165E-3,60.653687E-6,96.702576E-6
400.820732E-3,-5.471992E-3,-7.083321E-3,-5.718613E-3,60.653687E-6,-1.364708E-3
402.353668E-3,-4.306984E-3,-4.918098E-3,-4.485512E-3,60.653687E-6,-432.586670E-6
401.666451E-3,-5.310631E-3,-5.763245E-3,-5.691719E-3,60.653687E-6,-71.525574E-6
402.402306E-3,-4.976463E-3,-5.513191E-3,-5.562401E-3,60.653687E-6,49.209595E-6
403.225136E-3,-4.846573E-3,-5.227089E-3,-5.423927E-3,60.653687E-6,196.838379E-6
403.049469E-3,-5.560112E-3,-5.978394E-3,-5.948639E-3,60.653687E-6,-29.754639E-6
404.756355E-3,-4.285240E-3,-4.720116E-3,-4.654884E-3,60.653687E-6,-65.231323E-6
404.121780E-3,-5.261993E-3,-5.857086E-3,-5.802155E-3,60.653687E-6,-54.931641E-6
404.855347E-3,-4.935837E-3,-5.439949E-3,-5.581284E-3,60.653687E-6,141.334534E-6
405.400658E-3,-4.784203E-3,-5.189896E-3,-5.199051E-3,60.653687E-6,9.155273E-6
405.202103E-3,-5.337524E-3,-5.775261E-3,-5.842781E-3,60.653687E-6,67.520142E-6
406.686401E-3,-4.175377E-3,-4.444885E-3,-4.593086E-3,60.653687E-6,148.200989E-6
405.899620E-3,-5.514336E-3,-5.767250E-3,-5.795860E-3,60.653687E-6,28.610229E-6
406.587982E-3,-5.317497E-3,-5.410194E-3,-5.629349E-3,60.653687E-6,219.154358E-6
406.806564E-3,-5.095482E-3,-5.204201E-3,-5.355263E-3,60.653687E-6,151.062012E-6
405.301094E-3,-5.608749E-3,-5.905151E-3,-5.975533E-3,60.653687E-6,70.381165E-6
407.278633E-3,-4.283524E-3,-4.557610E-3,-4.700661E-3,60.653687E-6,143.051147E-6
406.661224E-3,-5.383873E-3,-5.525208E-3,-5.795288E-3,60.653687E-6,270.080566E-6
407.347298E-3,-5.162430E-3,-5.264854E-3,-5.585861E-3,60.653687E-6,321.006775E-6
407.649994E-3,-4.912949E-3,-5.137825E-3,-5.743790E-3,60.653687E-6,605.964661E-6
407.274055E-3,-5.630493E-3,-5.829048E-3,-6.111717E-3,60.653687E-6,282.669067E-6
408.614731E-3,-4.307556E-3,-4.596519E-3,-4.723549E-3,60.653687E-6,127.029419E-6
407.599068E-3,-5.143547E-3,-5.613899E-3,-5.828476E-3,60.653687E-6,214.576721E-6
407.981873E-3,-5.094337E-3,-5.321503E-3,-5.486870E-3,60.653687E-6,165.367126E-6
408.408165E-3,-4.978752E-3,-5.299759E-3,-5.189896E-3,60.653687E-6,-109.863281E-6
407.841682E-3,-5.550385E-3,-5.968666E-3,-7.028389E-3,60.653687E-6,1.059723E-3
409.335136E-3,-4.110146E-3,-4.828262E-3,-5.106354E-3,60.653687E-6,278.091431E-6
408.273697E-3,-5.280876E-3,-5.825043E-3,-5.871391E-3,60.653687E-6,46.348572E-6
408.538055E-3,-5.072594E-3,-5.617332E-3,-5.661392E-3,60.653687E-6,44.059753E-6
408.874512E-3,-4.874611E-3,-5.138969E-3,-5.391884E-3,60.653687E-6,252.914429E-6
408.518600E-3,-7.094765E-3,-5.797577E-3,-5.922318E-3,60.653687E-6,124.740601E-6
409.883308E-3,-4.847717E-3,-4.603958E-3,-4.630852E-3,60.653687E-6,26.893616E-6
409.059906E-3,-5.601883E-3,-5.572128E-3,-5.611610E-3,60.653687E-6,39.482117E-6
409.471893E-3,-5.088043E-3,-5.566406E-3,-5.579567E-3,60.653687E-6,13.160706E-6
409.881020E-3,-4.761314E-3,-5.397034E-3,-5.232239E-3,60.653687E-6,-164.794922E-6
409.637833E-3,-5.432510E-3,-6.012726E-3,-6.107712E-3,60.653687E-6,94.985962E-6
411.032867E-3,-4.102135E-3,-4.615974E-3,-4.730415E-3,60.653687E-6,114.440918E-6
410.041809E-3,-5.280304E-3,-5.701447E-3,-5.829048E-3,60.653687E-6,127.601624E-6
410.440063E-3,-5.308342E-3,-5.648232E-3,-5.533218E-3,60.653687E-6,-115.013123E-6
410.115623E-3,-4.906082E-3,-5.229950E-3,-5.362129E-3,60.653687E-6,132.179260E-6
410.066414E-3,-5.647087E-3,-5.914879E-3,-6.110573E-3,60.653687E-6,195.693970E-6
411.669731E-3,-4.276657E-3,-4.619408E-3,-4.760742E-3,60.653687E-6,141.334534E-6
410.656929E-3,-5.402756E-3,-5.680275E-3,-5.710602E-3,60.653687E-6,30.326843E-6
411.139870E-3,-5.140686E-3,-5.569839E-3,-5.534935E-3,60.653687E-6,-34.904480E-6
411.390495E-3,-4.859161E-3,-5.288887E-3,-5.410194E-3,60.653687E-6,121.307373E-6
410.861206E-3,-5.536079E-3,-5.849648E-3,-7.814598E-3,60.653687E-6,1.964951E-3
412.275124E-3,-4.359055E-3,-4.820824E-3,-5.297470E-3,60.653687E-6,476.646423E-6
411.367607E-3,-5.352402E-3,-5.699730E-3,-5.918312E-3,60.653687E-6,218.582153E-6
411.726379E-3,-5.135536E-3,-5.514336E-3,-5.860519E-3,60.653687E-6,346.183777E-6
412.073135E-3,-5.257416E-3,-5.164719E-3,-5.464554E-3,60.653687E-6,299.835205E-6
411.647415E-3,-5.833054E-3,-5.818748E-3,-6.183243E-3,60.653687E-6,364.494324E-6
413.171768E-3,-4.448318E-3,-4.565048E-3,-4.910660E-3,60.653687E-6,345.611572E-6
412.403297E-3,-5.318642E-3,-5.590439E-3,-5.690002E-3,60.653687E-6,99.563599E-6
412.755775E-3,-5.266571E-3,-5.463982E-3,-5.652809E-3,60.653687E-6,188.827515E-6
413.334846E-3,-4.744720E-3,-5.134392E-3,-5.261993E-3,60.653687E-6,127.601624E-6
412.224770E-3,-5.671692E-3,-5.969238E-3,-6.072235E-3,60.653687E-6,102.996826E-6
414.240646E-3,-4.383087E-3,-4.685211E-3,-4.876328E-3,60.653687E-6,191.116333E-6
413.382912E-3,-5.458832E-3,-5.692291E-3,-5.797005E-3,60.653687E-6,104.713440E-6
413.515091E-3,-5.285454E-3,-5.597878E-3,-5.732918E-3,60.653687E-6,135.040283E-6
413.905907E-3,-4.929543E-3,-5.266571E-3,-5.368996E-3,60.653687E-6,102.424622E-6
413.084793E-3,-5.590439E-3,-6.147194E-3,-6.679916E-3,60.653687E-6,532.722473E-6
414.228630E-3,-4.232025E-3,-4.678345E-3,-4.994774E-3,60.653687E-6,316.429138E-6
412.382698E-3,-5.296898E-3,-5.661964E-3,-5.593300E-3,60.653687E-6,-68.664551E-6
411.103821E-3,-5.256844E-3,-5.494308E-3,-5.739212E-3,60.653687E-6,244.903564E-6
408.810425E-3,-4.790497E-3,-5.207634E-3,-5.493164E-3,63.514709E-6,285.530090E-6
404.953766E-3,-5.760384E-3,-5.947495E-3,-6.392670E-3,63.514709E-6,445.175171E-6
402.838898E-3,-4.411697E-3,-4.668045E-3,-5.001640E-3,63.514709E-6,333.595276E-6
398.503304E-3,-5.237389E-3,-5.772400E-3,-5.735207E-3,63.514709E-6,-37.193298E-6
395.802498E-3,-5.169868E-3,-5.521202E-3,-5.727768E-3,63.514709E-6,206.565857E-6
394.080734E-3,-4.734993E-3,-5.149841E-3,-5.227661E-3,63.514709E-6,77.819824E-6
392.341805E-3,-5.684280E-3,-6.168938E-3,-6.434441E-3,63.514709E-6,265.502930E-6
393.364334E-3,-4.214287E-3,-4.684067E-3,-5.073166E-3,63.514709E-6,389.099121E-6
392.798424E-3,-5.197906E-3,-5.573273E-3,-5.628204E-3,63.514709E-6,54.931641E-6
393.748856E-3,-5.602455E-3,-5.748940E-3,-5.653381E-3,63.514709E-6,-95.558167E-6
395.284653E-3,-5.021667E-3,-5.230522E-3,-5.332947E-3,63.514709E-6,102.424622E-6
395.894623E-3,-5.890846E-3,-6.265640E-3,-7.399178E-3,63.514709E-6,1.133537E-3
398.221779E-3,-4.548454E-3,-4.914093E-3,-5.296326E-3,63.514709E-6,382.232666E-6
398.092461E-3,-5.441093E-3,-5.707741E-3,-5.730057E-3,63.514709E-6,22.315979E-6
398.781395E-3,-5.219078E-3,-5.680275E-3,-5.707169E-3,63.514709E-6,26.893616E-6
399.464607E-3,-4.722404E-3,-5.093765E-3,-5.176735E-3,63.514709E-6,82.969666E-6
398.581696E-3,-5.819321E-3,-6.302834E-3,-6.265640E-3,63.514709E-6,-37.193298E-6
399.585915E-3,-4.598808E-3,-5.037689E-3,-4.730988E-3,63.514709E-6,-306.701660E-6
398.111343E-3,-5.420494E-3,-5.580139E-3,-5.354691E-3,63.514709E-6,-225.448608E-6
397.793770E-3,-5.349541E-3,-5.422783E-3,-5.504036E-3,63.514709E-6,81.253052E-6
397.829819E-3,-4.950142E-3,-5.076027E-3,-5.047417E-3,63.514709E-6,-28.610229E-6
396.814156E-3,-6.064796E-3,-6.188393E-3,-6.223297E-3,63.514709E-6,34.904480E-6
398.269844E-3,-4.510689E-3,-5.173874E-3,-4.786491E-3,63.514709E-6,-387.382507E-6
398.042679E-3,-5.425072E-3,-5.532074E-3,-5.543518E-3,63.514709E-6,11.444092E-6
398.932457E-3,-5.314636E-3,-5.470848E-3,-5.591011E-3,63.514709E-6,120.162964E-6
400.455093E-3,-4.913521E-3,-5.010796E-3,-5.320930E-3,63.514709E-6,310.134888E-6
399.694061E-3,-5.843353E-3,-6.170082E-3,-6.413269E-3,63.514709E-6,243.186951E-6
402.390289E-3,-4.595375E-3,-4.895210E-3,-4.837990E-3,63.514709E-6,-57.220459E-6
401.937103E-3,-5.256844E-3,-5.562973E-3,-5.529213E-3,63.514709E-6,-33.760071E-6
402.155113E-3,-5.143547E-3,-5.568695E-3,-5.692291E-3,63.514709E-6,123.596191E-6
402.193451E-3,-4.867744E-3,-5.019951E-3,-5.242538E-3,63.514709E-6,222.587585E-6
400.882530E-3,-7.896423E-3,-6.081963E-3,-6.419563E-3,63.514709E-6,337.600708E-6
401.724815E-3,-5.348396E-3,-4.789352E-3,-5.141258E-3,63.514709E-6,351.905823E-6
400.714302E-3,-5.433655E-3,-5.556679E-3,-5.514908E-3,63.514709E-6,-41.770935E-6
400.540352E-3,-5.381012E-3,-5.533791E-3,-5.607033E-3,63.514709E-6,73.242187E-6
400.696564E-3,-4.860878E-3,-5.192757E-3,-5.406761E-3,63.514709E-6,214.004517E-6
399.045181E-3,-5.970955E-3,-6.253624E-3,-6.437302E-3,63.514709E-6,183.677673E-6
401.387215E-3,-4.605675E-3,-4.907799E-3,-4.986763E-3,63.514709E-6,78.964233E-6
401.029015E-3,-5.384445E-3,-5.279160E-3,-5.554962E-3,63.514709E-6,275.802612E-6
401.703644E-3,-5.296898E-3,-5.419922E-3,-5.415916E-3,63.514709E-6,-4.005432E-6
402.676392E-3,-5.003929E-3,-5.082893E-3,-5.225372E-3,63.514709E-6,142.478943E-6
402.173996E-3,-6.112289E-3,-7.102776E-3,-6.340027E-3,63.514709E-6,-762.748718E-6
404.201889E-3,-4.415131E-3,-5.178452E-3,-5.022240E-3,63.514709E-6,-156.211853E-6
403.997040E-3,-5.019951E-3,-5.481148E-3,-5.559540E-3,63.514709E-6,78.392029E-6
404.533195E-3,-5.213356E-3,-5.553818E-3,-5.801010E-3,63.514709E-6,247.192383E-6
405.174637E-3,-4.848862E-3,-5.021667E-3,-5.246544E-3,63.514709E-6,224.876404E-6
404.268837E-3,-6.030464E-3,-6.304550E-3,-6.365204E-3,63.514709E-6,60.653687E-6
405.979729E-3,-4.511833E-3,-5.002213E-3,-4.870605E-3,63.514709E-6,-131.607056E-6
405.594063E-3,-5.306053E-3,-5.489731E-3,-5.502892E-3,63.514709E-6,13.160706E-6
405.828094E-3,-5.364418E-3,-5.603027E-3,-5.739784E-3,63.514709E-6,136.756897E-6
406.516457E-3,-4.824257E-3,-5.003357E-3,-5.193901E-3,63.514709E-6,190.544128E-6
405.574608E-3,-6.146049E-3,-6.270790E-3,-6.516266E-3,63.514709E-6,245.475769E-6
407.266045E-3,-4.651451E-3,-5.060005E-3,-5.013084E-3,63.514709E-6,-46.920776E-6
406.634331E-3,-5.081749E-3,-5.443954E-3,-5.393600E-3,63.514709E-6,-50.354004E-6
406.733322E-3,-5.239105E-3,-5.401611E-3,-5.735207E-3,63.514709E-6,333.595276E-6
407.373619E-3,-5.008507E-3,-5.248260E-3,-5.259705E-3,63.514709E-6,11.444092E-6
406.248665E-3,-6.208992E-3,-6.441307E-3,-6.643867E-3,63.514709E-6,202.560425E-6
408.037949E-3,-4.525566E-3,-4.918098E-3,-5.181313E-3,63.514709E-6,263.214111E-6
407.613945E-3,-5.294609E-3,-5.459976E-3,-5.641365E-3,63.514709E-6,181.388855E-6
407.435417E-3,-5.371857E-3,-5.554962E-3,-5.859947E-3,63.514709E-6,304.985046E-6
408.231926E-3,-5.101204E-3,-5.161285E-3,-5.309486E-3,63.514709E-6,148.200989E-6
406.998253E-3,-6.682205E-3,-6.242752E-3,-6.518555E-3,63.514709E-6,275.802612E-6
408.710289E-3,-5.011940E-3,-4.862595E-3,-5.154419E-3,63.514709E-6,291.824341E-6
408.159256E-3,-5.347252E-3,-5.418205E-3,-5.558395E-3,63.514709E-6,140.190125E-6
408.176422E-3,-5.433083E-3,-5.565262E-3,-5.873680E-3,63.514709E-6,308.418274E-6
408.673668E-3,-5.002785E-3,-5.243111E-3,-5.463409E-3,63.514709E-6,220.298767E-6
407.677460E-3,-6.129456E-3,-6.477928E-3,-6.409836E-3,63.514709E-6,-68.092346E-6
409.405518E-3,-4.510689E-3,-4.969597E-3,-5.089760E-3,63.514709E-6,120.162964E-6
409.062767E-3,-5.075455E-3,-5.616760E-3,-5.510330E-3,63.514709E-6,-106.430054E-6
408.945465E-3,-5.162430E-3,-5.829048E-3,-6.059647E-3,63.514709E-6,230.598450E-6
409.501076E-3,-4.866028E-3,-5.265427E-3,-5.620766E-3,63.514709E-6,355.339050E-6
408.439064E-3,-6.079674E-3,-6.492805E-3,-6.798363E-3,63.514709E-6,305.557251E-6
410.036659E-3,-4.748726E-3,-5.057716E-3,-5.071449E-3,63.514709E-6,13.732910E-6
409.556580E-3,-5.190468E-3,-5.432510E-3,-5.571556E-3,63.514709E-6,139.045715E-6
409.709358E-3,-5.363274E-3,-5.584717E-3,-5.972099E-3,63.514709E-6,387.382507E-6
410.204887E-3,-4.852295E-3,-5.277443E-3,-5.456543E-3,63.514709E-6,179.100037E-6
408.621025E-3,-6.144905E-3,-6.352615E-3,-6.654167E-3,63.514709E-6,301.551819E-6
410.533333E-3,-4.730415E-3,-4.873466E-3,-4.925537E-3,63.514709E-6,52.070618E-6
410.052109E-3,-5.141258E-3,-5.415916E-3,-5.450821E-3,57.792664E-6,34.904480E-6
410.144234E-3,-5.366135E-3,-5.812454E-3,-5.904579E-3,57.792664E-6,92.124939E-6
410.790253E-3,-4.962730E-3,-5.730629E-3,-5.426216E-3,57.792664E-6,-304.412842E-6
409.767151E-3,-6.160927E-3,-6.573486E-3,-6.483078E-3,57.792664E-6,-90.408325E-6
411.258316E-3,-4.725266E-3,-4.828262E-3,-4.997063E-3,57.792664E-6,168.800354E-6
410.837746E-3,-5.231667E-3,-5.320358E-3,-5.452538E-3,57.792664E-6,132.179260E-6
410.834885E-3,-5.327225E-3,-5.678558E-3,-6.048775E-3,57.792664E-6,370.216370E-6
411.583900E-3,-5.007362E-3,-5.267143E-3,-5.643654E-3,57.792664E-6,376.510620E-6
410.735321E-3,-6.467056E-3,-6.373787E-3,-6.501961E-3,57.792664E-6,128.173828E-6
412.325478E-3,-4.775620E-3,-4.864883E-3,-4.871178E-3,57.792664E-6,6.294250E-6
411.976433E-3,-5.153275E-3,-5.561829E-3,-5.447388E-3,57.792664E-6,-114.440918E-6
412.180138E-3,-5.410767E-3,-6.155777E-3,-5.992126E-3,57.792664E-6,-163.650513E-6
412.752914E-3,-4.935837E-3,-5.385590E-3,-5.478859E-3,57.792664E-6,93.269348E-6
411.738396E-3,-6.164932E-3,-6.584930E-3,-6.351471E-3,57.792664E-6,-233.459473E-6
413.171768E-3,-4.554176E-3,-4.925537E-3,-4.872322E-3,57.792664E-6,-53.215027E-6
412.776375E-3,-5.070305E-3,-5.402756E-3,-5.397606E-3,57.792664E-6,-5.149841E-6
412.849045E-3,-5.621910E-3,-5.883408E-3,-5.798149E-3,57.792664E-6,-85.258484E-6
413.182640E-3,-5.021095E-3,-5.227661E-3,-5.434227E-3,57.792664E-6,206.565857E-6
411.286354E-3,-6.244469E-3,-6.286812E-3,-6.372643E-3,57.792664E-6,85.830688E-6
411.729813E-3,-4.621124E-3,-4.744720E-3,-4.793930E-3,57.792664E-6,49.209595E-6
409.164619E-3,-5.098915E-3,-5.382729E-3,-5.339241E-3,57.792664E-6,-43.487549E-6
406.069565E-3,-5.597305E-3,-6.054497E-3,-5.977821E-3,57.792664E-6,-76.675415E-6
403.132439E-3,-5.558968E-3,-5.255699E-3,-5.370140E-3,57.792664E-6,114.440918E-6
398.484993E-3,-6.306267E-3,-6.231308E-3,-6.173515E-3,57.792664E-6,-57.792664E-6
396.575546E-3,-4.709244E-3,-4.751015E-3,-4.756165E-3,57.792664E-6,5.149841E-6
393.358040E-3,-5.089760E-3,-5.436516E-3,-5.447388E-3,57.792664E-6,10.871887E-6
391.302681E-3,-5.581284E-3,-5.775261E-3,-5.861092E-3,57.792664E-6,85.830688E-6
390.765953E-3,-5.050278E-3,-5.368996E-3,-5.414200E-3,57.792664E-6,45.204163E-6
389.689636E-3,-6.139755E-3,-6.303406E-3,-6.071663E-3,57.792664E-6,-231.742859E-6
391.802216E-3,-4.602814E-3,-4.725838E-3,-4.905510E-3,57.792664E-6,179.672241E-6
392.114639E-3,-4.931831E-3,-5.168152E-3,-5.259705E-3,57.792664E-6,91.552734E-6
393.014717E-3,-5.699730E-3,-5.936050E-3,-6.003571E-3,57.792664E-6,67.520142E-6
394.920158E-3,-5.274582E-3,-5.494881E-3,-5.396461E-3,57.792664E-6,-98.419189E-6
394.722748E-3,-6.088829E-3,-6.191826E-3,-6.104851E-3,57.792664E-6,-86.975098E-6
397.041321E-3,-4.550171E-3,-4.879761E-3,-4.875755E-3,57.792664E-6,-4.005432E-6
396.977234E-3,-5.183029E-3,-5.137253E-3,-5.587006E-3,57.792664E-6,449.752808E-6
396.739769E-3,-5.602455E-3,-5.829048E-3,-6.687355E-3,57.792664E-6,858.306885E-6
397.262764E-3,-5.182457E-3,-5.387306E-3,-5.576134E-3,57.792664E-6,188.827515E-6
395.873451E-3,-5.846214E-3,-6.218147E-3,-6.238747E-3,57.792664E-6,20.599365E-6
397.223854E-3,-4.457474E-3,-4.955864E-3,-5.137825E-3,57.792664E-6,181.961060E-6
396.298027E-3,-4.923248E-3,-5.324936E-3,-5.353546E-3,57.792664E-6,28.610229E-6
395.421410E-3,-5.538940E-3,-5.948067E-3,-5.925751E-3,57.792664E-6,-22.315979E-6
395.920944E-3,-4.945564E-3,-5.374718E-3,-5.362701E-3,57.792664E-6,-12.016296E-6
394.846344E-3,-5.819321E-3,-6.012726E-3,-6.196404E-3,57.792664E-6,183.677673E-6
397.159767E-3,-4.484367E-3,-4.704666E-3,-4.975319E-3,57.792664E-6,270.652771E-6
397.377777E-3,-5.029678E-3,-5.197334E-3,-5.464554E-3,57.792664E-6,267.219543E-6
397.592354E-3,-5.586433E-3,-5.932617E-3,-6.110573E-3,57.792664E-6,177.955627E-6
399.474335E-3,-5.375290E-3,-5.296326E-3,-5.490303E-3,57.792664E-6,193.977356E-6
399.699211E-3,-6.081963E-3,-6.031609E-3,-6.088257E-3,57.792664E-6,56.648254E-6
401.930809E-3,-4.510117E-3,-4.821396E-3,-5.106354E-3,57.792664E-6,284.957886E-6
401.580048E-3,-4.925537E-3,-5.249405E-3,-5.640221E-3,57.792664E-6,390.815735E-6
400.893974E-3,-5.602455E-3,-5.847359E-3,-6.077385E-3,57.792664E-6,230.026245E-6
401.002693E-3,-5.013084E-3,-5.289459E-3,-5.537796E-3,57.792664E-6,248.336792E-6
399.865150E-3,-5.684280E-3,-6.019020E-3,-6.227303E-3,57.792664E-6,208.282471E-6
401.099968E-3,-4.469490E-3,-4.818535E-3,-5.003929E-3,57.792664E-6,185.394287E-6
400.503159E-3,-4.839706E-3,-5.229950E-3,-5.308914E-3,57.792664E-6,78.964233E-6
399.454308E-3,-5.705452E-3,-5.949783E-3,-6.134605E-3,57.792664E-6,184.822083E-6
399.683189E-3,-5.041695E-3,-5.396461E-3,-5.403900E-3,57.792664E-6,7.438660E-6
399.338722E-3,-6.028748E-3,-6.081963E-3,-6.085396E-3,57.792664E-6,3.433228E-6
401.046753E-3,-4.593086E-3,-4.850006E-3,-5.011940E-3,57.792664E-6,161.933899E-6
400.864792E-3,-5.076599E-3,-5.045700E-3,-5.208778E-3,57.792664E-6,163.078308E-6
400.833893E-3,-5.698586E-3,-5.754089E-3,-6.369781E-3,57.792664E-6,615.692139E-6
401.806641E-3,-5.096054E-3,-5.207634E-3,-5.491447E-3,57.792664E-6,283.813477E-6
401.443291E-3,-5.949211E-3,-5.931473E-3,-6.084824E-3,57.792664E-6,153.350830E-6
403.281212E-3,-4.673195E-3,-4.869461E-3,-4.954147E-3,57.792664E-6,84.686279E-6
403.300667E-3,-4.970741E-3,-5.109215E-3,-5.169296E-3,57.792664E-6,60.081482E-6
403.202248E-3,-5.508614E-3,-5.788422E-3,-6.546593E-3,57.792664E-6,758.171082E-6
404.115486E-3,-4.831696E-3,-5.300903E-3,-5.544662E-3,57.792664E-6,243.759155E-6
403.880310E-3,-5.631638E-3,-6.120872E-3,-6.131172E-3,57.792664E-6,10.299683E-6
405.374908E-3,-4.507256E-3,-4.914093E-3,-4.938698E-3,57.792664E-6,24.604797E-6
405.029869E-3,-5.107498E-3,-5.358696E-3,-5.248833E-3,57.792664E-6,-109.863281E-6
404.697990E-3,-5.657387E-3,-5.829048E-3,-6.511688E-3,57.792664E-6,682.640076E-6
405.623245E-3,-5.005646E-3,-5.245972E-3,-5.928040E-3,58.937073E-6,682.067871E-6
405.025864E-3,-5.610466E-3,-5.992699E-3,-6.199837E-3,58.937073E-6,207.138062E-6
406.447220E-3,-4.535294E-3,-4.977036E-3,-5.054283E-3,58.937073E-6,77.247620E-6
406.339073E-3,-5.117798E-3,-5.157852E-3,-5.324936E-3,58.937073E-6,167.083740E-6
405.726242E-3,-5.663109E-3,-6.689072E-3,-5.830193E-3,58.937073E-6,-858.879089E-6
406.380272E-3,-5.964088E-3,-5.419922E-3,-5.313492E-3,58.937073E-6,-106.430054E-6
405.887032E-3,-6.235886E-3,-6.093979E-3,-6.160927E-3,58.937073E-6,66.947937E-6
407.320976E-3,-4.715538E-3,-4.864883E-3,-5.106354E-3,58.937073E-6,241.470337E-6
407.056618E-3,-5.164146E-3,-5.112076E-3,-5.386734E-3,58.937073E-6,274.658203E-6
406.541634E-3,-5.986404E-3,-5.816460E-3,-6.025314E-3,58.937073E-6,208.854675E-6
407.365036E-3,-5.066299E-3,-5.523491E-3,-5.421638E-3,58.937073E-6,-101.852417E-6
406.834030E-3,-5.867958E-3,-6.021881E-3,-6.215858E-3,58.937073E-6,193.977356E-6
408.186150E-3,-4.615402E-3,-4.930687E-3,-5.132675E-3,58.937073E-6,201.988220E-6
407.855415E-3,-4.938126E-3,-5.149841E-3,-5.560684E-3,58.937073E-6,410.842896E-6
407.407951E-3,-6.068230E-3,-5.771255E-3,-6.110001E-3,58.937073E-6,338.745117E-6
408.108902E-3,-5.208206E-3,-5.257988E-3,-5.318642E-3,58.937073E-6,60.653687E-6
407.400513E-3,-5.829048E-3,-5.982971E-3,-6.133461E-3,58.937073E-6,150.489807E-6
408.752060E-3,-4.636002E-3,-5.047417E-3,-5.278587E-3,58.937073E-6,231.170654E-6
408.706284E-3,-4.916382E-3,-5.450249E-3,-5.342102E-3,58.937073E-6,-108.146667E-6
408.329201E-3,-5.812454E-3,-5.972672E-3,-6.012726E-3,58.937073E-6,40.054321E-6
409.003830E-3,-5.126953E-3,-5.270576E-3,-6.104851E-3,58.937073E-6,834.274292E-6
408.345795E-3,-5.719757E-3,-5.948639E-3,-6.470490E-3,58.937073E-6,521.850586E-6
409.768295E-3,-4.540443E-3,-4.806519E-3,-5.098915E-3,58.937073E-6,292.396545E-6
409.591484E-3,-4.749298E-3,-5.236244E-3,-5.244827E-3,58.937073E-6,8.583069E-6
409.169769E-3,-6.041336E-3,-5.843353E-3,-5.981255E-3,58.937073E-6,137.901306E-6
409.835815E-3,-5.388451E-3,-5.222511E-3,-5.389023E-3,58.937073E-6,166.511536E-6
409.315681E-3,-5.887413E-3,-5.983543E-3,-6.113434E-3,58.937073E-6,129.890442E-6
410.667229E-3,-4.684639E-3,-4.867744E-3,-5.134392E-3,58.937073E-6,266.647339E-6
410.433197E-3,-4.980469E-3,-5.239105E-3,-5.521202E-3,58.937073E-6,282.096863E-6
409.949112E-3,-5.548096E-3,-5.867958E-3,-6.147766E-3,58.937073E-6,279.808044E-6
410.647774E-3,-5.001068E-3,-5.236244E-3,-5.459976E-3,58.937073E-6,223.731995E-6
409.930229E-3,-5.767250E-3,-5.982971E-3,-6.125450E-3,58.937073E-6,142.478943E-6
411.179924E-3,-4.622269E-3,-4.978180E-3,-4.879761E-3,58.937073E-6,-98.419189E-6
410.857773E-3,-5.269432E-3,-5.225372E-3,-5.343246E-3,58.937073E-6,117.874146E-6
410.345650E-3,-5.706024E-3,-5.865097E-3,-5.950928E-3,58.937073E-6,85.830688E-6
411.022568E-3,-5.492020E-3,-5.210495E-3,-5.299759E-3,58.937073E-6,89.263916E-6
410.500717E-3,-5.993843E-3,-6.074524E-3,-6.117439E-3,58.937073E-6,42.915344E-6
411.873436E-3,-4.771042E-3,-4.956436E-3,-5.032539E-3,58.937073E-6,76.103210E-6
411.511803E-3,-5.239105E-3,-5.104065E-3,-5.327797E-3,58.937073E-6,223.731995E-6
411.000824E-3,-5.720901E-3,-5.792427E-3,-6.521416E-3,58.937073E-6,728.988647E-6
411.412811E-3,-4.932976E-3,-5.176735E-3,-5.356407E-3,58.937073E-6,179.672241E-6
411.367607E-3,-5.807877E-3,-5.926323E-3,-6.091118E-3,58.937073E-6,164.794922E-6
412.635612E-3,-4.704094E-3,-4.964447E-3,-4.938698E-3,58.937073E-6,-25.749207E-6
412.390137E-3,-4.976463E-3,-5.127525E-3,-5.075455E-3,58.937073E-6,-52.070618E-6
412.119484E-3,-5.655670E-3,-5.861092E-3,-5.967522E-3,58.937073E-6,106.430054E-6
413.054466E-3,-4.894066E-3,-5.134964E-3,-5.270576E-3,58.937073E-6,135.612488E-6
412.474251E-3,-5.789566E-3,-5.941772E-3,-6.146049E-3,58.937073E-6,204.277039E-6
413.755989E-3,-4.604530E-3,-4.888916E-3,-5.089760E-3,58.937073E-6,200.843811E-6
413.346863E-3,-4.883194E-3,-5.235672E-3,-5.364990E-3,58.937073E-6,129.318237E-6
412.752342E-3,-5.667686E-3,-6.049347E-3,-6.128311E-3,58.937073E-6,78.964233E-6
413.001823E-3,-4.959297E-3,-5.344963E-3,-5.130386E-3,58.937073E-6,-214.576721E-6
411.043167E-3,-5.692291E-3,-6.051636E-3,-5.978394E-3,58.937073E-6,-73.242187E-6
410.355949E-3,-4.674339E-3,-5.091476E-3,-5.027962E-3,58.937073E-6,-63.514709E-6
407.240868E-3,-4.771042E-3,-5.307198E-3,-5.188179E-3,58.937073E-6,-119.018555E-6
403.330421E-3,-5.577850E-3,-6.309700E-3,-6.172943E-3,58.937073E-6,-136.756897E-6
400.320625E-3,-4.772186E-3,-5.270576E-3,-5.819321E-3,58.937073E-6,548.744202E-6
396.042824E-3,-5.695724E-3,-6.036186E-3,-6.055641E-3,58.937073E-6,19.454956E-6
394.417763E-3,-4.714966E-3,-5.189896E-3,-5.119514E-3,58.937073E-6,-70.381165E-6
392.052269E-3,-4.864311E-3,-5.311203E-3,-5.279732E-3,58.937073E-6,-31.471252E-6
390.321922E-3,-5.528069E-3,-6.098557E-3,-6.229019E-3,58.937073E-6,130.462646E-6
390.984535E-3,-4.801369E-3,-5.252266E-3,-5.504036E-3,58.937073E-6,251.770020E-6
390.442085E-3,-5.737495E-3,-5.949783E-3,-6.063080E-3,58.937073E-6,113.296509E-6
392.444229E-3,-4.575348E-3,-5.029678E-3,-5.052567E-3,58.937073E-6,22.888184E-6
393.438721E-3,-4.880905E-3,-5.299187E-3,-5.133820E-3,58.937073E-6,-165.367126E-6
393.867302E-3,-5.822182E-3,-6.061363E-3,-5.988121E-3,58.937073E-6,-73.242187E-6
395.538139E-3,-4.848289E-3,-5.150986E-3,-5.072594E-3,58.937073E-6,-78.392029E-6
395.599365E-3,-5.747223E-3,-5.926323E-3,-5.813599E-3,58.937073E-6,-112.724304E-6
397.170639E-3,-4.709816E-3,-5.030823E-3,-4.963303E-3,58.937073E-6,-67.520142E-6
397.039604E-3,-4.986191E-3,-5.326653E-3,-5.515480E-3,58.937073E-6,188.827515E-6
395.281219E-3,-5.742073E-3,-6.032181E-3,-6.135750E-3,58.937073E-6,103.569031E-6
396.463394E-3,-4.922104E-3,-5.326080E-3,-5.047417E-3,58.937073E-6,-278.663635E-6
395.397377E-3,-5.776405E-3,-5.803871E-3,-6.019020E-3,58.937073E-6,215.148926E-6
395.946121E-3,-4.724693E-3,-4.985046E-3,-5.227089E-3,58.937073E-6,242.042542E-6
395.562172E-3,-4.855156E-3,-5.217934E-3,-5.336380E-3,58.937073E-6,118.446350E-6
394.638634E-3,-5.561829E-3,-6.061935E-3,-6.196976E-3,58.937073E-6,135.040283E-6
394.658089E-3,-4.705238E-3,-5.025101E-3,-4.985619E-3,58.937073E-6,-39.482117E-6
394.493294E-3,-5.695724E-3,-5.855370E-3,-5.870247E-3,58.937073E-6,14.877319E-6
396.216202E-3,-4.880333E-3,-4.987907E-3,-5.196762E-3,58.937073E-6,208.854675E-6
397.028160E-3,-4.943848E-3,-5.133247E-3,-5.508614E-3,58.937073E-6,375.366211E-6
397.504234E-3,-6.821823E-3,-5.980110E-3,-6.225586E-3,58.937073E-6,245.475769E-6
399.299812E-3,-5.345535E-3,-5.150414E-3,-4.621124E-3,58.937073E-6,-529.289246E-6
399.398232E-3,-5.881119E-3,-5.893707E-3,-5.770111E-3,58.937073E-6,-123.596191E-6
400.882530E-3,-4.689217E-3,-5.050278E-3,-5.196762E-3,58.937073E-6,146.484375E-6
400.576401E-3,-4.864311E-3,-5.306053E-3,-5.103493E-3,58.937073E-6,-202.560425E-6
399.893188E-3,-5.802727E-3,-6.745720E-3,-6.069374E-3,58.937073E-6,-676.345825E-6
400.638199E-3,-5.000496E-3,-5.047417E-3,-4.476357E-3,58.937073E-6,-571.060181E-6
399.426842E-3,-5.620766E-3,-5.896568E-3,-5.717468E-3,58.937073E-6,-179.100037E-6
400.141525E-3,-4.717255E-3,-5.016518E-3,-5.092049E-3,58.937073E-6,75.531006E-6
399.897766E-3,-5.020523E-3,-5.076027E-3,-5.521774E-3,58.937073E-6,445.747375E-6
398.853493E-3,-6.521988E-3,-5.854225E-3,-6.215858E-3,58.937073E-6,361.633301E-6
399.897766E-3,-5.196762E-3,-4.518127E-3,-4.668045E-3,58.937073E-6,149.917603E-6
399.434280E-3,-5.688286E-3,-5.735779E-3,-5.766678E-3,58.937073E-6,30.899048E-6
400.881958E-3,-4.731560E-3,-5.124664E-3,-5.247116E-3,58.937073E-6,122.451782E-6
400.911713E-3,-5.096626E-3,-5.112648E-3,-5.199051E-3,61.225891E-6,86.402893E-6
400.585556E-3,-5.740356E-3,-6.010437E-3,-7.204056E-3,61.225891E-6,1.193619E-3
401.836967E-3,-4.593658E-3,-4.499245E-3,-4.840279E-3,61.225891E-6,341.033936E-6
401.866722E-3,-5.286598E-3,-5.775261E-3,-5.892563E-3,61.225891E-6,117.301941E-6
403.091240E-3,-4.538727E-3,-5.045700E-3,-5.307198E-3,61.225891E-6,261.497498E-6
403.530693E-3,-4.820251E-3,-5.112076E-3,-5.386734E-3,61.225891E-6,274.658203E-6
402.220345E-3,-5.665398E-3,-5.922318E-3,-6.122017E-3,61.225891E-6,199.699402E-6
403.801346E-3,-4.337883E-3,-4.444885E-3,-4.490089E-3,61.225891E-6,45.204163E-6
403.694916E-3,-5.393600E-3,-5.643654E-3,-5.843925E-3,61.225891E-6,200.271606E-6
404.957771E-3,-4.554176E-3,-4.978752E-3,-5.271721E-3,61.225891E-6,292.968750E-6
405.155182E-3,-4.815102E-3,-5.079460E-3,-5.405045E-3,61.225891E-6,325.584412E-6
404.485703E-3,-5.871391E-3,-7.075310E-3,-6.038475E-3,61.225891E-6,-1.036835E-3
405.808640E-3,-4.317284E-3,-4.765892E-3,-4.478073E-3,61.225891E-6,-287.818909E-6
405.204964E-3,-5.508614E-3,-5.835915E-3,-5.611610E-3,61.225891E-6,-224.304199E-6
406.107330E-3,-4.759026E-3,-5.015945E-3,-5.303764E-3,61.225891E-6,287.818909E-6
406.349373E-3,-5.016518E-3,-4.972458E-3,-5.310631E-3,61.225891E-6,338.172913E-6
405.381775E-3,-5.912590E-3,-6.604958E-3,-6.045341E-3,61.225891E-6,-559.616089E-6
406.721878E-3,-4.079819E-3,-4.646873E-3,-4.506111E-3,61.225891E-6,-140.762329E-6
406.068993E-3,-5.606461E-3,-5.648804E-3,-5.791283E-3,61.225891E-6,142.478943E-6
406.923866E-3,-4.823112E-3,-5.073738E-3,-5.211639E-3,61.225891E-6,137.901306E-6
406.814575E-3,-4.844856E-3,-5.222511E-3,-5.259132E-3,61.225891E-6,36.621094E-6
406.137085E-3,-5.704308E-3,-6.032181E-3,-5.837631E-3,61.225891E-6,-194.549561E-6
407.691765E-3,-4.049492E-3,-4.531860E-3,-4.487801E-3,61.225891E-6,-44.059753E-6
406.623459E-3,-5.368423E-3,-5.520630E-3,-5.718613E-3,61.225891E-6,197.982788E-6
407.597351E-3,-4.767609E-3,-4.997063E-3,-5.314636E-3,61.225891E-6,317.573547E-6
407.493782E-3,-4.797935E-3,-5.023384E-3,-5.283165E-3,61.225891E-6,259.780884E-6
406.786537E-3,-5.687141E-3,-5.720901E-3,-6.517410E-3,61.225891E-6,796.508789E-6
408.298302E-3,-4.094696E-3,-4.294968E-3,-4.565048E-3,61.225891E-6,270.080566E-6
407.247162E-3,-5.416489E-3,-5.850220E-3,-5.678558E-3,61.225891E-6,-171.661377E-6
408.011055E-3,-4.682350E-3,-5.019951E-3,-5.237961E-3,61.225891E-6,218.009949E-6
407.985878E-3,-4.876328E-3,-4.839134E-3,-5.086327E-3,61.225891E-6,247.192383E-6
406.265259E-3,-5.717468E-3,-5.700302E-3,-5.764961E-3,61.225891E-6,64.659119E-6
408.855057E-3,-4.163361E-3,-4.345894E-3,-4.181671E-3,61.225891E-6,-164.222717E-6
407.881165E-3,-5.316353E-3,-5.636215E-3,-5.591583E-3,61.225891E-6,-44.631958E-6
408.892250E-3,-4.735565E-3,-5.177307E-3,-5.347252E-3,61.225891E-6,169.944763E-6
409.142876E-3,-4.831123E-3,-5.005646E-3,-5.157280E-3,61.225891E-6,151.634216E-6
408.562088E-3,-5.599594E-3,-5.902863E-3,-5.859947E-3,61.225891E-6,-42.915344E-6
410.163689E-3,-3.987694E-3,-4.108429E-3,-4.419708E-3,61.225891E-6,311.279297E-6
408.969498E-3,-5.240250E-3,-5.485153E-3,-5.654526E-3,61.225891E-6,169.372559E-6
409.867287E-3,-4.769897E-3,-5.106354E-3,-5.450249E-3,61.225891E-6,343.894958E-6
409.862137E-3,-4.844284E-3,-5.041695E-3,-5.319214E-3,61.225891E-6,277.519226E-6
409.458733E-3,-5.426216E-3,-7.087898E-3,-5.767822E-3,61.225891E-6,-1.320076E-3
411.219406E-3,-3.908157E-3,-4.651451E-3,-4.409409E-3,61.225891E-6,-242.042542E-6
410.092735E-3,-5.346680E-3,-5.486298E-3,-5.774117E-3,61.225891E-6,287.818909E-6
410.699272E-3,-5.073738E-3,-5.167580E-3,-5.280304E-3,61.225891E-6,112.724304E-6
410.702133E-3,-5.026817E-3,-5.010223E-3,-5.182457E-3,61.225891E-6,172.233582E-6
409.902763E-3,-5.708313E-3,-5.693436E-3,-5.821037E-3,61.225891E-6,127.601624E-6
411.414528E-3,-4.063797E-3,-4.360771E-3,-4.551888E-3,61.225891E-6,191.116333E-6
410.355377E-3,-5.156708E-3,-5.566978E-3,-5.853081E-3,61.225891E-6,286.102295E-6
411.005402E-3,-4.795647E-3,-5.070877E-3,-5.607605E-3,61.225891E-6,536.727905E-6
411.155891E-3,-4.783630E-3,-4.971886E-3,-5.361557E-3,61.225891E-6,389.671326E-6
410.444069E-3,-5.529213E-3,-5.772972E-3,-5.925751E-3,61.225891E-6,152.778625E-6
412.316895E-3,-3.971672E-3,-4.048347E-3,-4.543304E-3,61.225891E-6,494.956970E-6
411.334991E-3,-5.340385E-3,-5.538368E-3,-5.724335E-3,61.225891E-6,185.966492E-6
412.005615E-3,-4.816818E-3,-5.231667E-3,-5.451393E-3,61.225891E-6,219.726562E-6
412.212181E-3,-4.804802E-3,-5.060005E-3,-5.193901E-3,61.225891E-6,133.895874E-6
411.799049E-3,-6.603813E-3,-5.695724E-3,-5.791283E-3,61.225891E-6,95.558167E-6
413.441849E-3,-4.301262E-3,-4.313278E-3,-4.381371E-3,61.225891E-6,68.092346E-6
412.283134E-3,-5.394173E-3,-5.716324E-3,-5.871964E-3,61.225891E-6,155.639648E-6
412.929153E-3,-5.039406E-3,-5.338097E-3,-5.384445E-3,61.225891E-6,46.348572E-6
413.263893E-3,-4.891205E-3,-5.172157E-3,-5.236244E-3,61.225891E-6,64.086914E-6
412.459373E-3,-5.550385E-3,-6.520844E-3,-5.649948E-3,61.225891E-6,-870.895386E-6
413.848686E-3,-4.081535E-3,-4.666328E-3,-4.366493E-3,61.225891E-6,-299.835205E-6
