Notes :


2023-11-06 ¿ÀÈÄ 10:17:32
Volts
Ch : LED 2,
481.296158E-3
481.329918E-3
481.343651E-3
481.319046E-3
481.137657E-3
480.932236E-3
480.676460E-3
480.354309E-3
480.000687E-3
479.991531E-3
479.990959E-3
480.004692E-3
480.012131E-3
480.109406E-3
480.216408E-3
480.252457E-3
480.326271E-3
480.130577E-3
480.274773E-3
480.297661E-3
480.262184E-3
480.175209E-3
479.984665E-3
479.895401E-3
479.743767E-3
479.604721E-3
479.265404E-3
479.351807E-3
479.245949E-3
479.207039E-3
479.108620E-3
478.988457E-3
478.785896E-3
478.751564E-3
478.536415E-3
478.583908E-3
478.411102E-3
478.349876E-3
478.302956E-3
478.254318E-3
478.170776E-3
478.118706E-3
478.014565E-3
477.892113E-3
477.773666E-3
477.739906E-3
477.583694E-3
477.507591E-3
477.521896E-3
477.401733E-3
477.276993E-3
477.292442E-3
477.198029E-3
477.168274E-3
477.205467E-3
477.250671E-3
477.125359E-3
477.095032E-3
477.079010E-3
476.950836E-3
476.996613E-3
476.966286E-3
477.021790E-3
476.834106E-3
476.731110E-3
476.517677E-3
476.458740E-3
476.291656E-3
476.205254E-3
476.129150E-3
476.046753E-3
475.964928E-3
475.884247E-3
475.919151E-3
476.020432E-3
476.435852E-3
477.264977E-3
478.396797E-3
479.708290E-3
480.912209E-3
482.045174E-3
482.857132E-3
483.447647E-3
483.771515E-3
483.815575E-3
483.669662E-3
483.360672E-3
482.866287E-3
482.574463E-3
482.258034E-3
481.920433E-3
481.585693E-3
481.418610E-3
481.301308E-3
481.301308E-3
481.285858E-3
481.277275E-3
481.406021E-3
481.427765E-3
481.355667E-3
481.155968E-3
480.884743E-3
480.581474E-3
480.397797E-3
480.276489E-3
480.391502E-3
480.335426E-3
480.409813E-3
480.468750E-3
480.623245E-3
480.634689E-3
480.694199E-3
480.703926E-3
480.729675E-3
480.824661E-3
480.789185E-3
480.802917E-3
480.681038E-3
480.398369E-3
480.185509E-3
480.092812E-3
479.938316E-3
479.859352E-3
479.744339E-3
479.588127E-3
479.457092E-3
479.410172E-3
479.281998E-3
479.121208E-3
478.990746E-3
478.985023E-3
478.840828E-3
478.522682E-3
478.546143E-3
478.370476E-3
478.412819E-3
478.258896E-3
478.135872E-3
477.969360E-3
477.817726E-3
477.709579E-3
477.650642E-3
477.555084E-3
477.472115E-3
477.408028E-3
477.406883E-3
477.297592E-3
477.208328E-3
477.008057E-3
476.973152E-3
476.963425E-3
476.843262E-3
476.801491E-3
476.814651E-3
476.646423E-3
476.612091E-3
476.514244E-3
476.493073E-3
476.311111E-3
476.101112E-3
476.079941E-3
476.060486E-3
475.797272E-3
475.651360E-3
475.588417E-3
475.555801E-3
475.405312E-3
475.609589E-3
476.205254E-3
476.949120E-3
478.100967E-3
479.386139E-3
480.437279E-3
481.395721E-3
482.116699E-3
482.816505E-3
482.937241E-3
482.767296E-3
482.572174E-3
482.243156E-3
481.842041E-3
481.497002E-3
481.157112E-3
480.862427E-3
480.726242E-3
480.513954E-3
480.446434E-3
480.349731E-3
480.381203E-3
480.500793E-3
480.635262E-3
480.649567E-3
480.520821E-3
480.317116E-3
479.918289E-3
479.761505E-3
479.551506E-3
479.415894E-3
479.492569E-3
479.639626E-3
479.771233E-3
479.902840E-3
479.867363E-3
480.049896E-3
480.076790E-3
480.063629E-3
480.202103E-3
480.143166E-3
480.215263E-3
480.144882E-3
480.013275E-3
479.747200E-3
479.615021E-3
479.497147E-3
479.376984E-3
479.282570E-3
479.122925E-3
479.031944E-3
478.976440E-3
478.867722E-3
478.679466E-3
478.721237E-3
478.483772E-3
478.351021E-3
478.254890E-3
478.160477E-3
478.045464E-3
478.107262E-3
477.997971E-3
477.846909E-3
477.671814E-3
477.559090E-3
477.500153E-3
477.416611E-3
477.312469E-3
477.284431E-3
477.236938E-3
477.109909E-3
477.022362E-3
476.982880E-3
476.973724E-3
476.970863E-3
476.918793E-3
476.846695E-3
476.848412E-3
476.842117E-3
476.822662E-3
476.729965E-3
476.606941E-3
476.550865E-3
476.487923E-3
476.399231E-3
476.323128E-3
476.174927E-3
476.221275E-3
476.011276E-3
475.805855E-3
475.694847E-3
475.594711E-3
475.464249E-3
475.405312E-3
475.488853E-3
475.813293E-3
476.671600E-3
477.576256E-3
478.812790E-3
480.066490E-3
481.174850E-3
482.182503E-3
482.946396E-3
483.428764E-3
483.566666E-3
483.485985E-3
483.320045E-3
482.959557E-3
482.604790E-3
482.267761E-3
481.893539E-3
481.696129E-3
481.432343E-3
481.379700E-3
481.444931E-3
481.372261E-3
481.468391E-3
481.515312E-3
481.546783E-3
481.514168E-3
481.349373E-3
481.114769E-3
480.778885E-3
480.634689E-3
480.499649E-3
480.339432E-3
480.243874E-3
480.258751E-3
480.283928E-3
480.398941E-3
480.371475E-3
480.475616E-3
480.568886E-3
480.697060E-3
480.687904E-3
480.701637E-3
480.698204E-3
480.644417E-3
480.483055E-3
480.273056E-3
480.166054E-3
480.115128E-3
480.006409E-3
479.952621E-3
479.873085E-3
479.827309E-3
479.796410E-3
479.685974E-3
479.632759E-3
479.463959E-3
479.279709E-3
479.264259E-3
479.184723E-3
479.035378E-3
478.959846E-3
478.811646E-3
478.713226E-3
478.470039E-3
478.539848E-3
478.462601E-3
478.359604E-3
478.274918E-3
478.226852E-3
478.106689E-3
478.086090E-3
478.080368E-3
478.022575E-3
477.921295E-3
477.791977E-3
477.779961E-3
477.687263E-3
477.626038E-3
477.651787E-3
477.606583E-3
477.580261E-3
477.478409E-3
477.359962E-3
477.253532E-3
477.280998E-3
477.220345E-3
477.159119E-3
477.045250E-3
476.881027E-3
476.727676E-3
476.355171E-3
476.316261E-3
476.311684E-3
476.190376E-3
476.146889E-3
476.182938E-3
476.245880E-3
476.368904E-3
476.898193E-3
477.710152E-3
478.952980E-3
480.200386E-3
481.462669E-3
482.515526E-3
483.304596E-3
483.760643E-3
483.847046E-3
483.654213E-3
483.415604E-3
483.032227E-3
482.761002E-3
482.390213E-3
482.003975E-3
481.690979E-3
481.462669E-3
481.267548E-3
481.198883E-3
481.308174E-3
481.260681E-3
481.286430E-3
481.309319E-3
481.277275E-3
481.126785E-3
480.873299E-3
480.501366E-3
480.364609E-3
480.136871E-3
480.085945E-3
480.099106E-3
480.188942E-3
480.307961E-3
480.346298E-3
480.497932E-3
480.457306E-3
480.674171E-3
480.730820E-3
480.770874E-3
480.762291E-3
480.725098E-3
480.608368E-3
480.406952E-3
480.242729E-3
480.227852E-3
479.990959E-3
479.688263E-3
479.619598E-3
479.509735E-3
479.451370E-3
479.329491E-3
479.137230E-3
479.077148E-3
479.018211E-3
478.854561E-3
478.794479E-3
478.582191E-3
478.452301E-3
478.290939E-3
478.291512E-3
478.189087E-3
478.047180E-3
477.885818E-3
477.679253E-3
477.561951E-3
477.469254E-3
477.381706E-3
477.261543E-3
477.080727E-3
477.024078E-3
476.947403E-3
476.681900E-3
476.717949E-3
476.566887E-3
476.487350E-3
476.434708E-3
476.315117E-3
476.232147E-3
476.140022E-3
475.973511E-3
475.836182E-3
475.749779E-3
475.642776E-3
475.561523E-3
475.336075E-3
475.299454E-3
475.166702E-3
475.081444E-3
475.076294E-3
475.000763E-3
475.093460E-3
475.365829E-3
475.944901E-3
476.989746E-3
478.197098E-3
479.431915E-3
480.585480E-3
481.523895E-3
482.234001E-3
482.422256E-3
482.528687E-3
482.405090E-3
482.168770E-3
481.880379E-3
481.591415E-3
481.205177E-3
480.879593E-3
480.603790E-3
480.308533E-3
480.191231E-3
480.086517E-3
480.091095E-3
480.156898E-3
480.209541E-3
480.066490E-3
480.039024E-3
479.881096E-3
479.599571E-3
479.378700E-3
479.161263E-3
479.069710E-3
479.027939E-3
479.111481E-3
479.087448E-3
479.375839E-3
479.593849E-3
479.649925E-3
479.748344E-3
479.794693E-3
479.866791E-3
479.938889E-3
479.941750E-3
479.968071E-3
479.800987E-3
479.601860E-3
479.497147E-3
479.290009E-3
479.122925E-3
478.832817E-3
478.797340E-3
478.675461E-3
478.710937E-3
478.566742E-3
478.353882E-3
478.207397E-3
478.072357E-3
478.010559E-3
477.882957E-3
477.785110E-3
477.650070E-3
477.350235E-3
477.350807E-3
477.264404E-3
477.215767E-3
477.149391E-3
477.126503E-3
476.981163E-3
476.904488E-3
476.762581E-3
476.788330E-3
476.685333E-3
476.688194E-3
476.629829E-3
476.421547E-3
476.412392E-3
476.307678E-3
476.243019E-3
476.257896E-3
476.087379E-3
476.079369E-3
476.040459E-3
476.098251E-3
476.022720E-3
475.934601E-3
475.907707E-3
475.880241E-3
475.732040E-3
475.476837E-3
475.389862E-3
475.245094E-3
475.104904E-3
475.044250E-3
474.981880E-3
474.950981E-3
474.884605E-3
475.041962E-3
475.632477E-3
476.462746E-3
477.519608E-3
478.769875E-3
480.048752E-3
481.109619E-3
481.979370E-3
482.585335E-3
482.756424E-3
482.724380E-3
482.599640E-3
482.282639E-3
481.947899E-3
481.592560E-3
481.239510E-3
480.923653E-3
480.821800E-3
480.566597E-3
480.515099E-3
480.607224E-3
480.638695E-3
480.796051E-3
480.987740E-3
480.962563E-3
480.808067E-3
480.747986E-3
480.469322E-3
480.257607E-3
480.077934E-3
480.013275E-3
479.909134E-3
479.958344E-3
479.997826E-3
480.059052E-3
479.976082E-3
480.181503E-3
480.351448E-3
480.535126E-3
480.602646E-3
480.627251E-3
480.590057E-3
480.549431E-3
480.459023E-3
480.271912E-3
480.265617E-3
480.162621E-3
479.971504E-3
479.866219E-3
479.794693E-3
479.688835E-3
479.536057E-3
479.461670E-3
479.411316E-3
479.268837E-3
479.208755E-3
479.067421E-3
479.017067E-3
478.939247E-3
478.828812E-3
478.726959E-3
478.591919E-3
478.644562E-3
478.478050E-3
478.408241E-3
478.373909E-3
478.252602E-3
478.306389E-3
478.130150E-3
478.074074E-3
477.983093E-3
477.892113E-3
477.856636E-3
477.783966E-3
477.740479E-3
477.730751E-3
477.635765E-3
477.644348E-3
477.570534E-3
477.569962E-3
477.553368E-3
477.450371E-3
477.414894E-3
477.410316E-3
477.228355E-3
477.106476E-3
477.029228E-3
476.825523E-3
476.779175E-3
476.799774E-3
476.687050E-3
476.566887E-3
476.491356E-3
476.403236E-3
476.403236E-3
476.477051E-3
476.905060E-3
477.658081E-3
478.692627E-3
479.942894E-3
481.174850E-3
482.290077E-3
483.153534E-3
483.682823E-3
483.872223E-3
483.994102E-3
483.674812E-3
483.381271E-3
482.979012E-3
482.634544E-3
482.353020E-3
481.973648E-3
481.747627E-3
481.505013E-3
481.383705E-3
481.378555E-3
481.365395E-3
481.564522E-3
481.618309E-3
481.609154E-3
481.477547E-3
481.279564E-3
481.052399E-3
480.682182E-3
480.499077E-3
480.432129E-3
480.460739E-3
480.519676E-3
480.542564E-3
480.659866E-3
480.790901E-3
480.867577E-3
481.002045E-3
481.093597E-3
481.075287E-3
481.062126E-3
480.966568E-3
480.875015E-3
480.726814E-3
480.530548E-3
480.419540E-3
480.150604E-3
480.060768E-3
479.962349E-3
479.827309E-3
479.665947E-3
479.473686E-3
479.369545E-3
479.201317E-3
479.089165E-3
478.987312E-3
478.761292E-3
478.684044E-3
478.614235E-3
478.460312E-3
478.400803E-3
478.289223E-3
478.193665E-3
477.965355E-3
477.827454E-3
477.775383E-3
477.588272E-3
477.416611E-3
477.445793E-3
477.410316E-3
477.396011E-3
477.344513E-3
477.302742E-3
477.319336E-3
477.142525E-3
477.092743E-3
476.899338E-3
476.815796E-3
476.770020E-3
476.740837E-3
476.590919E-3
476.458740E-3
476.411819E-3
476.221848E-3
476.085091E-3
475.974655E-3
475.835609E-3
475.805283E-3
475.770950E-3
475.578117E-3
475.839043E-3
476.279640E-3
477.223778E-3
478.391075E-3
479.558945E-3
480.735397E-3
481.677818E-3
482.376480E-3
482.769585E-3
482.981300E-3
482.874298E-3
482.589340E-3
482.308960E-3
482.037735E-3
481.743050E-3
481.364822E-3
481.086731E-3
480.861855E-3
480.687332E-3
480.609512E-3
480.560875E-3
480.600929E-3
480.744553E-3
480.864716E-3
480.774307E-3
480.564308E-3
480.101967E-3
479.883385E-3
479.742050E-3
479.633904E-3
479.651642E-3
479.699135E-3
479.690552E-3
479.762650E-3
479.833603E-3
479.904556E-3
479.963493E-3
480.099106E-3
480.173492E-3
480.150604E-3
480.150604E-3
480.083084E-3
480.057335E-3
479.938889E-3
479.838753E-3
479.700851E-3
479.524612E-3
479.328346E-3
479.170418E-3
479.117203E-3
479.033089E-3
479.052544E-3
478.853416E-3
478.663445E-3
478.673744E-3
478.466606E-3
478.384209E-3
478.202248E-3
478.185081E-3
478.115845E-3
478.155899E-3
477.964211E-3
477.866936E-3
477.678108E-3
477.547646E-3
477.463531E-3
477.436066E-3
477.410889E-3
477.275848E-3
477.198029E-3
477.152252E-3
477.091026E-3
477.105904E-3
477.091599E-3
477.015495E-3
476.963425E-3
476.907349E-3
476.879311E-3
476.652718E-3
476.768875E-3
476.724243E-3
476.645851E-3
476.609230E-3
476.499939E-3
476.328850E-3
476.205254E-3
476.050186E-3
475.960350E-3
475.873947E-3
475.828171E-3
475.808144E-3
475.939178E-3
476.501656E-3
477.476692E-3
478.637695E-3
479.885101E-3
481.068993E-3
482.017708E-3
482.787323E-3
483.260536E-3
483.452225E-3
483.477974E-3
483.290291E-3
483.119774E-3
482.766151E-3
482.272339E-3
482.118416E-3
481.870651E-3
481.693840E-3
481.519890E-3
481.510162E-3
481.578827E-3
481.724739E-3
481.925583E-3
481.891823E-3
481.966209E-3
481.855202E-3
481.642914E-3
481.467819E-3
481.223488E-3
481.060410E-3
480.953979E-3
480.988312E-3
480.971146E-3
481.014061E-3
481.089020E-3
481.233215E-3
481.372261E-3
481.471825E-3
481.532478E-3
481.619453E-3
481.630325E-3
481.488991E-3
481.410599E-3
481.388855E-3
481.328201E-3
481.196594E-3
481.012917E-3
480.873299E-3
480.796623E-3
480.694199E-3
480.626106E-3
480.601501E-3
480.462456E-3
480.382919E-3
480.295372E-3
480.156326E-3
480.003548E-3
480.071068E-3
480.020714E-3
479.807854E-3
479.708862E-3
479.582405E-3
479.512024E-3
479.321480E-3
479.323196E-3
479.292870E-3
479.013634E-3
479.019928E-3
479.007339E-3
478.963852E-3
478.974724E-3
479.002762E-3
478.943825E-3
478.894615E-3
478.820229E-3
478.773880E-3
478.689194E-3
478.641701E-3
478.553009E-3
478.495216E-3
478.448296E-3
478.307533E-3
478.194237E-3
478.031158E-3
478.086090E-3
477.892685E-3
477.742767E-3
477.733612E-3
477.686691E-3
477.654076E-3
477.621460E-3
477.807426E-3
478.308105E-3
479.162407E-3
480.281639E-3
481.489563E-3
482.673454E-3
483.644485E-3
484.350014E-3
484.760857E-3
484.903908E-3
484.751129E-3
484.491348E-3
484.149742E-3
483.844757E-3
483.534050E-3
483.237076E-3
482.933235E-3
482.794189E-3
482.575035E-3
482.534409E-3
482.526970E-3
482.621384E-3
482.715225E-3
482.815933E-3
482.661438E-3
482.468605E-3
482.172203E-3
481.858063E-3
481.632042E-3
481.438065E-3
481.426620E-3
481.435776E-3
481.579971E-3
481.686974E-3
481.858063E-3
481.943893E-3
481.992531E-3
482.116127E-3
482.066345E-3
481.996536E-3
481.919861E-3
481.826591E-3
481.644630E-3
481.598282E-3
481.377983E-3
481.184006E-3
481.115913E-3
480.902481E-3
480.769730E-3
480.675316E-3
480.567741E-3
480.454445E-3
480.353165E-3
480.337715E-3
480.151749E-3
479.987526E-3
479.861069E-3
479.849052E-3
479.722023E-3
479.582405E-3
479.469681E-3
479.310608E-3
479.154968E-3
478.882599E-3
478.904343E-3
478.843117E-3
478.767014E-3
478.676605E-3
478.646278E-3
478.572464E-3
478.553581E-3
478.555870E-3
478.516960E-3
478.396797E-3
478.292084E-3
478.150749E-3
478.061485E-3
477.907562E-3
477.627754E-3
477.513885E-3
477.375984E-3
477.287865E-3
477.109909E-3
476.912498E-3
476.727676E-3
476.648140E-3
476.661301E-3
476.931953E-3
477.548218E-3
478.159332E-3
479.153824E-3
480.402374E-3
481.427765E-3
482.484055E-3
483.255386E-3
483.685684E-3
483.900833E-3
483.838463E-3
483.642769E-3
483.415031E-3
483.131218E-3
482.804489E-3
482.557869E-3
482.327843E-3
482.139587E-3
481.965637E-3
482.007408E-3
481.963921E-3
482.068062E-3
482.133293E-3
482.124138E-3
482.101250E-3
481.850052E-3
