Notes :


2023-11-10 ¿ÀÈÄ 10:00:59
Volts
Ch : LED 2,
325.510025E-3
325.353813E-3
325.237083E-3
325.432205E-3
325.426483E-3
325.808716E-3
326.525116E-3
327.812004E-3
329.818726E-3
332.069778E-3
334.626389E-3
337.177277E-3
339.162254E-3
340.897179E-3
341.905403E-3
342.379761E-3
342.336273E-3
341.692543E-3
340.777016E-3
339.702988E-3
338.612366E-3
337.726021E-3
336.946678E-3
336.532402E-3
336.167908E-3
336.176491E-3
336.313820E-3
336.480331E-3
336.890030E-3
337.025642E-3
337.146950E-3
337.127495E-3
336.832237E-3
336.368752E-3
335.684967E-3
334.957123E-3
334.363747E-3
333.789253E-3
333.533478E-3
333.567810E-3
333.625031E-3
333.782387E-3
333.801270E-3
334.043884E-3
334.174347E-3
334.291077E-3
334.277916E-3
334.006119E-3
333.860779E-3
333.541489E-3
333.273697E-3
332.983017E-3
332.586479E-3
332.513809E-3
332.185364E-3
331.799126E-3
331.541634E-3
331.154823E-3
330.877876E-3
330.594635E-3
330.314255E-3
330.194092E-3
329.863358E-3
329.752922E-3
329.541206E-3
329.549217E-3
329.456520E-3
329.308319E-3
329.217911E-3
329.062271E-3
328.837967E-3
328.801346E-3
328.641701E-3
328.644562E-3
328.491211E-3
328.254318E-3
328.381348E-3
328.195953E-3
328.207970E-3
328.113556E-3
328.099823E-3
327.909851E-3
327.859497E-3
327.667809E-3
327.466965E-3
327.396584E-3
327.278709E-3
327.131081E-3
327.134514E-3
327.000618E-3
326.946831E-3
327.137947E-3
326.921654E-3
326.737404E-3
326.610947E-3
326.471329E-3
326.342010E-3
326.157188E-3
326.085091E-3
325.864792E-3
325.582695E-3
325.421906E-3
325.219917E-3
325.190735E-3
325.080299E-3
324.946404E-3
325.033379E-3
325.245094E-3
326.206398E-3
327.675819E-3
329.664230E-3
332.013130E-3
334.296227E-3
336.564445E-3
338.429832E-3
339.734459E-3
340.471458E-3
340.328407E-3
339.662933E-3
338.749695E-3
337.629890E-3
336.539268E-3
335.369110E-3
334.545135E-3
333.888817E-3
333.538628E-3
333.420753E-3
333.366966E-3
333.554077E-3
333.724594E-3
333.937454E-3
334.002113E-3
333.917999E-3
333.835030E-3
333.385849E-3
332.665443E-3
331.983948E-3
331.535912E-3
331.300735E-3
331.277847E-3
331.280136E-3
331.536484E-3
331.646347E-3
331.954193E-3
332.131004E-3
332.377625E-3
332.477760E-3
332.250595E-3
332.092667E-3
331.763077E-3
331.624031E-3
331.442070E-3
331.046104E-3
330.864716E-3
330.531693E-3
330.159187E-3
329.884529E-3
329.523468E-3
329.323769E-3
328.902054E-3
328.733826E-3
328.722382E-3
328.558731E-3
328.487778E-3
328.427124E-3
328.278923E-3
328.166771E-3
328.137016E-3
328.050613E-3
328.011703E-3
327.750206E-3
327.680397E-3
327.581406E-3
327.651215E-3
327.544785E-3
327.421188E-3
327.440643E-3
327.345657E-3
327.372551E-3
327.266121E-3
327.278137E-3
327.251244E-3
327.149391E-3
327.195740E-3
327.200890E-3
327.182007E-3
327.178001E-3
327.163124E-3
327.188301E-3
327.034378E-3
326.847267E-3
326.812935E-3
326.573753E-3
326.422691E-3
326.196098E-3
325.884247E-3
325.824738E-3
325.658798E-3
325.610733E-3
325.499725E-3
325.404167E-3
325.570107E-3
325.970650E-3
327.004051E-3
328.607368E-3
330.667305E-3
333.000183E-3
335.176277E-3
337.502861E-3
339.475822E-3
340.727806E-3
341.528320E-3
341.455078E-3
340.942383E-3
340.061760E-3
338.994026E-3
337.922287E-3
336.901474E-3
336.109543E-3
335.734177E-3
335.373688E-3
335.446930E-3
335.477257E-3
335.705566E-3
335.781097E-3
335.850906E-3
335.991669E-3
335.939598E-3
335.930443E-3
335.458374E-3
334.759140E-3
334.299660E-3
333.641052E-3
333.232498E-3
332.884598E-3
332.793045E-3
332.914352E-3
332.942390E-3
333.078575E-3
333.240509E-3
333.372116E-3
333.593559E-3
333.598709E-3
333.645630E-3
333.527184E-3
333.273125E-3
333.024788E-3
332.633400E-3
332.313538E-3
332.013702E-3
331.703568E-3
331.458092E-3
331.000900E-3
330.794907E-3
330.662727E-3
330.396080E-3
330.193520E-3
330.109406E-3
329.964638E-3
329.734039E-3
329.569817E-3
329.647636E-3
329.427910E-3
329.329491E-3
329.204750E-3
329.029083E-3
328.995323E-3
328.800774E-3
328.803062E-3
328.801346E-3
328.714371E-3
328.723526E-3
328.714371E-3
328.674889E-3
328.569603E-3
328.413391E-3
328.368187E-3
328.292656E-3
328.147316E-3
328.085518E-3
328.022003E-3
327.812004E-3
327.769661E-3
327.799416E-3
327.711296E-3
327.631187E-3
327.670097E-3
327.576256E-3
327.432632E-3
327.261543E-3
327.123642E-3
327.131653E-3
326.908493E-3
326.907921E-3
326.741982E-3
326.559448E-3
326.489639E-3
326.248741E-3
326.185799E-3
326.063919E-3
325.822449E-3
325.883675E-3
325.998688E-3
326.636124E-3
327.890396E-3
329.824448E-3
332.337570E-3
334.788322E-3
337.117195E-3
339.208603E-3
341.003609E-3
342.205238E-3
342.665863E-3
342.517090E-3
341.919136E-3
340.873718E-3
339.945030E-3
338.782310E-3
337.956619E-3
337.233925E-3
336.758423E-3
336.578751E-3
336.454010E-3
336.631393E-3
337.062836E-3
337.138367E-3
337.311172E-3
337.353516E-3
337.352943E-3
337.283707E-3
336.784172E-3
336.201096E-3
335.541344E-3
334.897041E-3
334.426689E-3
334.228134E-3
334.168625E-3
334.081078E-3
334.119987E-3
334.285355E-3
334.354019E-3
334.625816E-3
334.659004E-3
334.704781E-3
334.549141E-3
334.313965E-3
334.095383E-3
333.859062E-3
333.612442E-3
333.104324E-3
332.846832E-3
332.679176E-3
332.372475E-3
332.061768E-3
331.857491E-3
331.584549E-3
331.340790E-3
331.078148E-3
331.019211E-3
330.849266E-3
330.616951E-3
330.508804E-3
330.307388E-3
330.226135E-3
330.106544E-3
329.929733E-3
329.915428E-3
329.682541E-3
329.588127E-3
329.583549E-3
329.422188E-3
329.442215E-3
329.277420E-3
329.243660E-3
329.214478E-3
328.966713E-3
328.799629E-3
328.733253E-3
328.803062E-3
328.682327E-3
328.530121E-3
328.442574E-3
328.232002E-3
328.151894E-3
328.053474E-3
328.082085E-3
328.040886E-3
327.852631E-3
327.621460E-3
327.566528E-3
327.408600E-3
327.412033E-3
327.333069E-3
327.259254E-3
327.196884E-3
326.910782E-3
326.836395E-3
326.628685E-3
326.463890E-3
326.351166E-3
326.115417E-3
326.056480E-3
325.705147E-3
325.658798E-3
325.687981E-3
325.728035E-3
326.162910E-3
327.060699E-3
328.732109E-3
330.833817E-3
333.211899E-3
335.559082E-3
337.692261E-3
339.368820E-3
340.653419E-3
341.083717E-3
341.008186E-3
340.358734E-3
339.478683E-3
338.338852E-3
337.196732E-3
336.365318E-3
335.523033E-3
334.862137E-3
334.604073E-3
334.334564E-3
334.431839E-3
334.482193E-3
334.693336E-3
334.895325E-3
334.974289E-3
335.084152E-3
334.788895E-3
334.319687E-3
333.718872E-3
333.067131E-3
332.684326E-3
332.422829E-3
332.276344E-3
332.308388E-3
332.441711E-3
332.803917E-3
332.986450E-3
333.238792E-3
333.515739E-3
333.514023E-3
333.409309E-3
333.135796E-3
332.888031E-3
332.616234E-3
332.160187E-3
331.848335E-3
331.502724E-3
331.276703E-3
331.052399E-3
330.853844E-3
330.608368E-3
330.327988E-3
330.089378E-3
329.921150E-3
329.678535E-3
329.573822E-3
329.326057E-3
329.286575E-3
329.196739E-3
329.077148E-3
329.065704E-3
328.855133E-3
328.887177E-3
328.769875E-3
328.664017E-3
328.747559E-3
328.518105E-3
328.369331E-3
328.353882E-3
328.183937E-3
328.158188E-3
328.055191E-3
328.059196E-3
328.064346E-3
327.929306E-3
327.952766E-3
327.864647E-3
327.778816E-3
327.717590E-3
327.564812E-3
327.515602E-3
327.570534E-3
327.442360E-3
327.467537E-3
327.242088E-3
327.206039E-3
327.110481E-3
326.981163E-3
326.899910E-3
326.712227E-3
326.456451E-3
326.268768E-3
326.130867E-3
326.004982E-3
325.879097E-3
325.825882E-3
325.732613E-3
325.764084E-3
326.090240E-3
326.809502E-3
328.341293E-3
330.219841E-3
332.510948E-3
334.952545E-3
337.323761E-3
339.461517E-3
341.071129E-3
342.011261E-3
342.307663E-3
341.935730E-3
341.245651E-3
340.268326E-3
339.170837E-3
338.165474E-3
337.310028E-3
336.780167E-3
336.433411E-3
336.363602E-3
336.356735E-3
336.357307E-3
336.470604E-3
336.706924E-3
336.907768E-3
336.912918E-3
336.617661E-3
336.433983E-3
335.910416E-3
335.334206E-3
334.816360E-3
334.257889E-3
333.998108E-3
333.782387E-3
333.693695E-3
333.780670E-3
333.809280E-3
333.971786E-3
334.159470E-3
334.340286E-3
334.578323E-3
334.459305E-3
334.387207E-3
334.118843E-3
333.753204E-3
333.657074E-3
333.215332E-3
332.949829E-3
332.582474E-3
332.296371E-3
332.065773E-3
331.741333E-3
331.462097E-3
331.355667E-3
331.029510E-3
330.878448E-3
330.619240E-3
330.602646E-3
330.443001E-3
330.340576E-3
330.302811E-3
330.162048E-3
329.954338E-3
329.815292E-3
329.740906E-3
329.718590E-3
329.514885E-3
329.483986E-3
329.442787E-3
329.473114E-3
329.482841E-3
329.438210E-3
329.477119E-3
329.431343E-3
329.238510E-3
329.116058E-3
328.845406E-3
328.870010E-3
328.857994E-3
328.733826E-3
328.695488E-3
328.528976E-3
328.536415E-3
328.409386E-3
328.352165E-3
328.361320E-3
328.260040E-3
328.068352E-3
328.168488E-3
328.019142E-3
327.959633E-3
327.776527E-3
327.757645E-3
327.592850E-3
327.483559E-3
327.466965E-3
327.307892E-3
327.171707E-3
326.987457E-3
326.890755E-3
326.817513E-3
326.525116E-3
326.630402E-3
326.955986E-3
327.814293E-3
329.380417E-3
331.367683E-3
333.801842E-3
336.326408E-3
338.738251E-3
340.982437E-3
342.502213E-3
343.607140E-3
343.775940E-3
343.393135E-3
342.678452E-3
341.622162E-3
340.566444E-3
339.563942E-3
338.677025E-3
338.137436E-3
337.585258E-3
337.466812E-3
337.458229E-3
337.564087E-3
337.695694E-3
337.802696E-3
338.006401E-3
338.076210E-3
337.968063E-3
337.883377E-3
337.267113E-3
336.757851E-3
335.921288E-3
335.299301E-3
334.897041E-3
334.561157E-3
334.620094E-3
334.606934E-3
334.774590E-3
334.942245E-3
335.100746E-3
335.269547E-3
335.319328E-3
335.210609E-3
334.997177E-3
334.764862E-3
334.553719E-3
334.190369E-3
333.998680E-3
333.772087E-3
333.419609E-3
333.146095E-3
332.851410E-3
332.521820E-3
332.346725E-3
331.942749E-3
331.697273E-3
331.466103E-3
331.184578E-3
331.075859E-3
330.910492E-3
330.772018E-3
330.646706E-3
330.331421E-3
330.374336E-3
330.175209E-3
330.188370E-3
330.048752E-3
329.885674E-3
329.767227E-3
329.589272E-3
329.534912E-3
329.320335E-3
329.451942E-3
329.490852E-3
329.385567E-3
329.261398E-3
329.089165E-3
328.960419E-3
328.870583E-3
328.716660E-3
328.797340E-3
328.611374E-3
328.431702E-3
328.381348E-3
328.235435E-3
328.187943E-3
328.085518E-3
327.944183E-3
327.841759E-3
327.550507E-3
327.551651E-3
327.490997E-3
327.388573E-3
327.275276E-3
327.119637E-3
326.974869E-3
326.869011E-3
326.668739E-3
326.549721E-3
326.290512E-3
326.225853E-3
326.009560E-3
325.848770E-3
325.827026E-3
325.679970E-3
325.834465E-3
326.630402E-3
327.890396E-3
329.841614E-3
332.100677E-3
334.505081E-3
336.893463E-3
338.963127E-3
340.486908E-3
341.215324E-3
341.325760E-3
340.847397E-3
339.967918E-3
338.944817E-3
337.769508E-3
336.799049E-3
335.822868E-3
335.102463E-3
334.782028E-3
334.357452E-3
334.259605E-3
334.293365E-3
334.336281E-3
334.614372E-3
334.658432E-3
334.630966E-3
334.498215E-3
334.186363E-3
333.536911E-3
332.898903E-3
332.381058E-3
332.172203E-3
332.029724E-3
332.109833E-3
332.210541E-3
332.484055E-3
332.835388E-3
333.064842E-3
333.208466E-3
333.294868E-3
333.293724E-3
333.092308E-3
332.777596E-3
332.637405E-3
332.168198E-3
331.970787E-3
331.548500E-3
331.187439E-3
330.931664E-3
330.591202E-3
330.418396E-3
330.121994E-3
329.748344E-3
329.588699E-3
329.348373E-3
329.184151E-3
329.032516E-3
328.877449E-3
328.848839E-3
328.729820E-3
328.607941E-3
328.304100E-3
328.368187E-3
328.310394E-3
328.168488E-3
328.033447E-3
327.964211E-3
327.833748E-3
327.872658E-3
327.733040E-3
327.569962E-3
327.568245E-3
327.484131E-3
327.521896E-3
327.381706E-3
327.339363E-3
327.278137E-3
327.148819E-3
327.135658E-3
326.995468E-3
326.990318E-3
326.933098E-3
326.767731E-3
326.656723E-3
326.610947E-3
326.616669E-3
326.562309E-3
326.500511E-3
326.438141E-3
326.264191E-3
326.160049E-3
326.012421E-3
325.766373E-3
325.660515E-3
325.341225E-3
325.309181E-3
325.132370E-3
325.015068E-3
324.995613E-3
325.057983E-3
325.532341E-3
326.526260E-3
328.030586E-3
330.198669E-3
332.492065E-3
334.898186E-3
337.181854E-3
339.201736E-3
340.736961E-3
341.396141E-3
341.616440E-3
341.140938E-3
340.314674E-3
339.544487E-3
338.428688E-3
337.398148E-3
336.572456E-3
335.873795E-3
335.551071E-3
335.378265E-3
335.298729E-3
335.279846E-3
335.386848E-3
335.608864E-3
335.729027E-3
335.807419E-3
335.871506E-3
335.612297E-3
335.145378E-3
334.465599E-3
333.834457E-3
333.498001E-3
333.064842E-3
332.870293E-3
332.770729E-3
332.835960E-3
332.958984E-3
333.120346E-3
333.617592E-3
333.693123E-3
333.838463E-3
333.741760E-3
333.535194E-3
333.323479E-3
333.096886E-3
332.811928E-3
332.500076E-3
332.177925E-3
331.923866E-3
331.461525E-3
331.186295E-3
330.892181E-3
330.634117E-3
330.520821E-3
330.333138E-3
330.180931E-3
329.984093E-3
329.688835E-3
329.529190E-3
329.371262E-3
329.240227E-3
329.121208E-3
329.070282E-3
328.965569E-3
328.867149E-3
328.797913E-3
328.783607E-3
328.638840E-3
328.662872E-3
328.523254E-3
328.443146E-3
328.325272E-3
328.257751E-3
328.352165E-3
328.130722E-3
328.086090E-3
328.095818E-3
327.901268E-3
327.948761E-3
327.856064E-3
327.774811E-3
327.722740E-3
327.524757E-3
327.382851E-3
327.265549E-3
327.217484E-3
327.127647E-3
326.906776E-3
326.873589E-3
326.822662E-3
327.007484E-3
326.909065E-3
326.721382E-3
326.780891E-3
326.606941E-3
326.513100E-3
326.402092E-3
326.205254E-3
326.170349E-3
325.995255E-3
325.888252E-3
325.732040E-3
325.491714E-3
325.358391E-3
325.311470E-3
325.302315E-3
325.393867E-3
325.786400E-3
326.702499E-3
328.440857E-3
330.535126E-3
332.909203E-3
335.463524E-3
337.917709E-3
339.983368E-3
341.441917E-3
342.251587E-3
342.400932E-3
341.938019E-3
341.014481E-3
339.932442E-3
338.833809E-3
337.655067E-3
336.949539E-3
336.252022E-3
336.055756E-3
335.872650E-3
335.742188E-3
335.910988E-3
335.909271E-3
336.111832E-3
336.360741E-3
336.403656E-3
336.439133E-3
336.212540E-3
335.722733E-3
335.165977E-3
334.469604E-3
334.012985E-3
333.584404E-3
333.378983E-3
333.319473E-3
333.193016E-3
333.336639E-3
333.475113E-3
333.670807E-3
333.892822E-3
333.976364E-3
334.004974E-3
333.793259E-3
333.619308E-3
333.225632E-3
332.947540E-3
332.778740E-3
332.312393E-3
332.011986E-3
331.809425E-3
331.498718E-3
331.310463E-3
331.102180E-3
330.990028E-3
330.691910E-3
330.431557E-3
330.247307E-3
330.026436E-3
329.861069E-3
329.734612E-3
329.601288E-3
329.555511E-3
329.528618E-3
329.348946E-3
329.213333E-3
329.013634E-3
329.041100E-3
328.885460E-3
328.827095E-3
328.723526E-3
328.664017E-3
328.646278E-3
328.562737E-3
328.411674E-3
328.324699E-3
328.284073E-3
328.241730E-3
328.170204E-3
328.250885E-3
327.964783E-3
327.706146E-3
327.663803E-3
327.523613E-3
327.410316E-3
327.293587E-3
327.218056E-3
327.169418E-3
327.080154E-3
326.942825E-3
326.874161E-3
326.673889E-3
326.640129E-3
326.489639E-3
326.519966E-3
326.451302E-3
326.262474E-3
326.098251E-3
326.083946E-3
325.975800E-3
325.833321E-3
325.588417E-3
325.455093E-3
325.205040E-3
325.082016E-3
325.020218E-3
324.986458E-3
