Notes :


2023-10-27 ¿ÀÈÄ 11:29:44
Volts
Ch : LED 2,Ch : LED 3,
370.959091E-3,214.378166E-3
374.228096E-3,213.260651E-3
378.674126E-3,212.752533E-3
381.994057E-3,212.168312E-3
386.853218E-3,213.506126E-3
388.355827E-3,212.667274E-3
389.367485E-3,212.116814E-3
390.176582E-3,212.602615E-3
388.872528E-3,212.005806E-3
388.972664E-3,213.424873E-3
386.393166E-3,212.921333E-3
384.307480E-3,212.500763E-3
383.131599E-3,213.254929E-3
380.911446E-3,212.631798E-3
380.879974E-3,214.180183E-3
379.134178E-3,213.429451E-3
378.027534E-3,213.155365E-3
378.369141E-3,213.597679E-3
377.717400E-3,212.753105E-3
379.274368E-3,214.070892E-3
379.488945E-3,213.515854E-3
378.761101E-3,212.698746E-3
379.617691E-3,213.027191E-3
378.787994E-3,212.475014E-3
379.514694E-3,213.788223E-3
378.505898E-3,213.797379E-3
376.902008E-3,213.116455E-3
376.852226E-3,213.736725E-3
375.753593E-3,212.713623E-3
376.838493E-3,213.880348E-3
376.873398E-3,213.916397E-3
376.497459E-3,213.098717E-3
377.760315E-3,213.426590E-3
377.334023E-3,212.553406E-3
379.004288E-3,213.311005E-3
378.889847E-3,213.325310E-3
378.453827E-3,212.837219E-3
378.655815E-3,213.337898E-3
377.565193E-3,212.729645E-3
377.919388E-3,213.566208E-3
377.039337E-3,213.586807E-3
376.037407E-3,213.177681E-3
375.617981E-3,213.768196E-3
374.213791E-3,213.202286E-3
374.585724E-3,214.393616E-3
373.437881E-3,213.914680E-3
372.453690E-3,213.585091E-3
372.589874E-3,214.082336E-3
371.363068E-3,213.714981E-3
372.220802E-3,214.897156E-3
371.118164E-3,214.609909E-3
370.647812E-3,213.690376E-3
370.946503E-3,214.335823E-3
370.056152E-3,213.764763E-3
371.270943E-3,215.085983E-3
370.493889E-3,214.673996E-3
369.784927E-3,213.574219E-3
370.515060E-3,214.072037E-3
369.755173E-3,213.752747E-3
370.864677E-3,214.878845E-3
370.549965E-3,214.576149E-3
369.367790E-3,213.690948E-3
370.336533E-3,214.199638E-3
369.495964E-3,213.574791E-3
370.520782E-3,214.859390E-3
370.569420E-3,214.796448E-3
369.597244E-3,213.796234E-3
369.776344E-3,214.830780E-3
369.090843E-3,213.831711E-3
369.972038E-3,214.730072E-3
370.087624E-3,214.992142E-3
368.889999E-3,213.880920E-3
369.604111E-3,214.854240E-3
368.550682E-3,214.007950E-3
369.161797E-3,214.768982E-3
369.188690E-3,214.893723E-3
367.970467E-3,213.973045E-3
368.515205E-3,214.716911E-3
367.632294E-3,214.077187E-3
367.982483E-3,214.713478E-3
367.699814E-3,214.896584E-3
366.772842E-3,214.469147E-3
366.748238E-3,215.132904E-3
366.153717E-3,214.554977E-3
366.829491E-3,215.241623E-3
366.329384E-3,215.444183E-3
365.939140E-3,214.104652E-3
366.470718E-3,214.861679E-3
365.653610E-3,214.593887E-3
366.703606E-3,215.734291E-3
366.197205E-3,215.527153E-3
365.563774E-3,214.824486E-3
366.164017E-3,215.402985E-3
365.393829E-3,214.673996E-3
366.269875E-3,215.644455E-3
366.163445E-3,215.713692E-3
365.060806E-3,214.590454E-3
365.628433E-3,215.596962E-3
364.798164E-3,214.858246E-3
365.402985E-3,215.647888E-3
365.484810E-3,215.858459E-3
364.101791E-3,213.915825E-3
364.857674E-3,215.039635E-3
364.064026E-3,214.743233E-3
365.092278E-3,215.586090E-3
365.824127E-3,215.775490E-3
366.446114E-3,214.418221E-3
370.185471E-3,215.019035E-3
373.163223E-3,213.422585E-3
378.055573E-3,213.698959E-3
382.480431E-3,213.629723E-3
385.450745E-3,211.659050E-3
389.136314E-3,212.575150E-3
389.907074E-3,211.831856E-3
391.031456E-3,212.455559E-3
390.702438E-3,212.639809E-3
388.764381E-3,211.859322E-3
387.820816E-3,212.925339E-3
385.293388E-3,212.092781E-3
384.344673E-3,213.280106E-3
382.414055E-3,213.212585E-3
380.752373E-3,212.433815E-3
380.504036E-3,213.602257E-3
379.169655E-3,212.877846E-3
379.806519E-3,213.691521E-3
379.738426E-3,213.294411E-3
379.501534E-3,212.405205E-3
380.360413E-3,213.620567E-3
380.146408E-3,212.739372E-3
381.853867E-3,213.578224E-3
381.720543E-3,213.221169E-3
381.254196E-3,212.405205E-3
381.590652E-3,213.724709E-3
380.403900E-3,212.829208E-3
380.307198E-3,213.581085E-3
378.928185E-3,213.681221E-3
376.541519E-3,212.814903E-3
377.300262E-3,214.290619E-3
376.730919E-3,213.258362E-3
377.679062E-3,213.793945E-3
377.935410E-3,213.670349E-3
377.402115E-3,212.110519E-3
378.659821E-3,213.916397E-3
378.073883E-3,212.831497E-3
378.551102E-3,213.333321E-3
378.461838E-3,213.655472E-3
377.106857E-3,212.752533E-3
377.718544E-3,214.465141E-3
376.128387E-3,213.064957E-3
376.293182E-3,213.450623E-3
375.752449E-3,213.790512E-3
374.221230E-3,212.074471E-3
374.483871E-3,214.149284E-3
372.900009E-3,213.269806E-3
372.987556E-3,213.796806E-3
372.653961E-3,214.333534E-3
370.964813E-3,213.185692E-3
371.989059E-3,214.612198E-3
370.491600E-3,213.476372E-3
370.702744E-3,213.914108E-3
370.539665E-3,213.975334E-3
368.757820E-3,213.292122E-3
370.491600E-3,214.682007E-3
369.387245E-3,213.316727E-3
369.806671E-3,213.824844E-3
369.709396E-3,213.834572E-3
368.875122E-3,213.426018E-3
370.141983E-3,214.709473E-3
368.829918E-3,213.613701E-3
369.524002E-3,214.176178E-3
369.457054E-3,214.077187E-3
368.700027E-3,213.574219E-3
369.963455E-3,214.833641E-3
368.741798E-3,213.563919E-3
368.975258E-3,214.133263E-3
368.762970E-3,214.258575E-3
367.461205E-3,213.713264E-3
369.146919E-3,215.008736E-3
367.868614E-3,213.610840E-3
368.240547E-3,214.044571E-3
367.968750E-3,214.226532E-3
367.086411E-3,213.563347E-3
368.218231E-3,214.811897E-3
367.062378E-3,214.001656E-3
367.564774E-3,214.839935E-3
367.288971E-3,214.501762E-3
366.204071E-3,213.906097E-3
367.248344E-3,215.190125E-3
365.937424E-3,214.125824E-3
366.438675E-3,214.799309E-3
366.058159E-3,214.756966E-3
363.793373E-3,214.130402E-3
365.695381E-3,215.582085E-3
364.575577E-3,214.484596E-3
365.511131E-3,215.182686E-3
365.032196E-3,214.849663E-3
364.004517E-3,214.142990E-3
365.433311E-3,215.492249E-3
364.193344E-3,214.485168E-3
364.600182E-3,214.879990E-3
364.598465E-3,215.183258E-3
363.714409E-3,214.312363E-3
365.100861E-3,215.895081E-3
363.938713E-3,214.482880E-3
364.218521E-3,214.628792E-3
364.232254E-3,215.078545E-3
361.926842E-3,214.469147E-3
363.908958E-3,215.865326E-3
362.730217E-3,214.546967E-3
363.091850E-3,214.979553E-3
363.097000E-3,215.268517E-3
362.219238E-3,214.645386E-3
363.538170E-3,216.232681E-3
362.060165E-3,214.698029E-3
363.004303E-3,215.080833E-3
364.260864E-3,215.218163E-3
365.620422E-3,213.954735E-3
370.102501E-3,214.886856E-3
372.760963E-3,213.089561E-3
377.379227E-3,213.015747E-3
381.402969E-3,212.848091E-3
383.878326E-3,211.044502E-3
387.161636E-3,212.881279E-3
386.606026E-3,211.554337E-3
386.909866E-3,212.327957E-3
386.103630E-3,212.413788E-3
383.835983E-3,211.933708E-3
383.414841E-3,213.237190E-3
380.362701E-3,212.143135E-3
379.088974E-3,212.999725E-3
377.720833E-3,213.209724E-3
375.925827E-3,212.565422E-3
376.554680E-3,213.973045E-3
374.836922E-3,212.601471E-3
375.301552E-3,213.201714E-3
375.575066E-3,213.219452E-3
375.262642E-3,212.659836E-3
377.043915E-3,213.823128E-3
376.416206E-3,212.444687E-3
377.058220E-3,212.913895E-3
377.181816E-3,213.220596E-3
376.119232E-3,212.445259E-3
376.720047E-3,213.722992E-3
374.761963E-3,212.834358E-3
374.826050E-3,213.326454E-3
374.383163E-3,213.558197E-3
373.138618E-3,212.578583E-3
374.658966E-3,214.014816E-3
374.014664E-3,212.734795E-3
374.830055E-3,213.225174E-3
375.359344E-3,213.508987E-3
375.091553E-3,212.670708E-3
376.682854E-3,213.966751E-3
375.627136E-3,212.773705E-3
375.699234E-3,212.923050E-3
375.796509E-3,213.264084E-3
374.258995E-3,212.581444E-3
375.163651E-3,214.254570E-3
373.258781E-3,213.220596E-3
372.789574E-3,213.333321E-3
372.255707E-3,213.784218E-3
371.034622E-3,213.083839E-3
371.993065E-3,214.581299E-3
370.149422E-3,213.447189E-3
370.085907E-3,213.660049E-3
369.843292E-3,213.889503E-3
367.738152E-3,213.314438E-3
369.655609E-3,214.950371E-3
368.256569E-3,213.385963E-3
368.743515E-3,213.932991E-3
368.733788E-3,214.229965E-3
367.935562E-3,213.725281E-3
369.339752E-3,215.063095E-3
367.675209E-3,213.344193E-3
368.418503E-3,213.982201E-3
368.286324E-3,214.078903E-3
367.804527E-3,213.803673E-3
368.809891E-3,214.889717E-3
367.489243E-3,213.455772E-3
368.017387E-3,214.011955E-3
368.103790E-3,214.420509E-3
367.391968E-3,213.749886E-3
368.677711E-3,215.055656E-3
367.169952E-3,213.375664E-3
367.683792E-3,214.187050E-3
367.739868E-3,214.494896E-3
367.006302E-3,213.185692E-3
368.104935E-3,214.743233E-3
366.626930E-3,213.791084E-3
366.819763E-3,214.427948E-3
366.926193E-3,214.661407E-3
365.817261E-3,213.962173E-3
366.760826E-3,215.108871E-3
365.273666E-3,214.126968E-3
365.517426E-3,214.734650E-3
365.559196E-3,214.945793E-3
364.840508E-3,214.220810E-3
365.754318E-3,215.202141E-3
364.387894E-3,214.163589E-3
364.764404E-3,214.707184E-3
364.945221E-3,214.922333E-3
363.912964E-3,214.326096E-3
365.134048E-3,215.520287E-3
363.742447E-3,214.459991E-3
363.815689E-3,214.997864E-3
363.984489E-3,215.128326E-3
363.214302E-3,214.543533E-3
364.395905E-3,215.545464E-3
363.032341E-3,214.554977E-3
363.187981E-3,214.945793E-3
363.246918E-3,215.315437E-3
362.162018E-3,214.709473E-3
362.955666E-3,215.685081E-3
361.815834E-3,214.723206E-3
362.136841E-3,215.326881E-3
362.319374E-3,215.103722E-3
362.206650E-3,214.439964E-3
364.420509E-3,215.543175E-3
365.349770E-3,213.914108E-3
369.101715E-3,213.953590E-3
373.086548E-3,213.442612E-3
376.690292E-3,212.536240E-3
381.771469E-3,213.569069E-3
383.455467E-3,212.057304E-3
385.940552E-3,212.105942E-3
386.878395E-3,212.167168E-3
386.275864E-3,211.629868E-3
386.600304E-3,212.795448E-3
383.773613E-3,211.692810E-3
382.605171E-3,212.239265E-3
380.883980E-3,212.346840E-3
378.774834E-3,212.057304E-3
378.281593E-3,213.156509E-3
375.921249E-3,212.184906E-3
375.708961E-3,212.682152E-3
375.457191E-3,212.785721E-3
374.861526E-3,211.510849E-3
376.222229E-3,212.842369E-3
375.602531E-3,212.120819E-3
376.386452E-3,212.565422E-3
377.212143E-3,212.766838E-3
376.746368E-3,212.162590E-3
377.675056E-3,213.246346E-3
376.350975E-3,212.258720E-3
376.130676E-3,212.635803E-3
375.527000E-3,213.099861E-3
373.913956E-3,212.477875E-3
374.522781E-3,213.907242E-3
373.176384E-3,212.729645E-3
373.463058E-3,213.130188E-3
373.956299E-3,213.007164E-3
372.770691E-3,212.475014E-3
375.239182E-3,213.939285E-3
374.436378E-3,212.289047E-3
374.940491E-3,212.472725E-3
375.294113E-3,212.614632E-3
374.753952E-3,212.471008E-3
375.579071E-3,213.712120E-3
373.849297E-3,212.465858E-3
373.820686E-3,212.832642E-3
373.351479E-3,212.981987E-3
372.005653E-3,212.674141E-3
372.268867E-3,213.800240E-3
370.561981E-3,213.007164E-3
370.505333E-3,213.094711E-3
370.161438E-3,213.230324E-3
368.994713E-3,211.817551E-3
369.776344E-3,213.935280E-3
368.123817E-3,213.162231E-3
367.919540E-3,213.523293E-3
368.070030E-3,213.855743E-3
367.062950E-3,213.299561E-3
368.444824E-3,214.739799E-3
367.090988E-3,213.297272E-3
367.212868E-3,213.665771E-3
367.405701E-3,213.997078E-3
366.497612E-3,213.379669E-3
367.872620E-3,214.767265E-3
366.613770E-3,213.494682E-3
367.068672E-3,213.700676E-3
367.284966E-3,213.842583E-3
366.763687E-3,213.539886E-3
367.628288E-3,214.627075E-3
366.510773E-3,213.413429E-3
366.782570E-3,213.881493E-3
367.046356E-3,214.211082E-3
365.673637E-3,213.546753E-3
367.335892E-3,214.986420E-3
366.348267E-3,213.835716E-3
366.430664E-3,213.981056E-3
366.594887E-3,214.254570E-3
364.768410E-3,213.713837E-3
366.411209E-3,215.154648E-3
365.301704E-3,213.970757E-3
365.285110E-3,214.137840E-3
365.259933E-3,214.158440E-3
364.363861E-3,213.733864E-3
365.521431E-3,215.291977E-3
363.838005E-3,213.749886E-3
364.048004E-3,213.789940E-3
363.847733E-3,214.223671E-3
363.273239E-3,213.940430E-3
364.319229E-3,214.974976E-3
362.565422E-3,213.976479E-3
362.857246E-3,214.474869E-3
362.866402E-3,214.568710E-3
362.103653E-3,213.889503E-3
363.165092E-3,215.237617E-3
362.028694E-3,214.066887E-3
362.346268E-3,214.501762E-3
362.432671E-3,214.795303E-3
361.075401E-3,214.168739E-3
362.711334E-3,215.172958E-3
361.901093E-3,214.301491E-3
362.260437E-3,214.326668E-3
362.227249E-3,214.826202E-3
360.783577E-3,214.351845E-3
362.271881E-3,215.612984E-3
361.123466E-3,214.579582E-3
361.403275E-3,214.809036E-3
361.332321E-3,215.039635E-3
360.354424E-3,214.441681E-3
361.499405E-3,215.864754E-3
360.376740E-3,214.875984E-3
360.758972E-3,214.768410E-3
361.795235E-3,214.932060E-3
363.076973E-3,213.739014E-3
367.373085E-3,214.851952E-3
370.266724E-3,213.319016E-3
374.309921E-3,212.644386E-3
378.667259E-3,212.142563E-3
381.654739E-3,211.451912E-3
385.339165E-3,212.841225E-3
385.515404E-3,211.637878E-3
385.815239E-3,211.775780E-3
385.600662E-3,211.951447E-3
383.543587E-3,211.190987E-3
383.266068E-3,213.028336E-3
380.159569E-3,211.767197E-3
378.408051E-3,211.853027E-3
377.236748E-3,212.338257E-3
374.002647E-3,211.693954E-3
375.409126E-3,213.321877E-3
374.030685E-3,212.236977E-3
373.870468E-3,212.227821E-3
374.410057E-3,212.324524E-3
373.049355E-3,211.608124E-3
375.414848E-3,212.628937E-3
374.783707E-3,211.702538E-3
375.697517E-3,211.841011E-3
375.933838E-3,212.029839E-3
375.308418E-3,211.447906E-3
375.940132E-3,212.323952E-3
374.226379E-3,211.580658E-3
373.500824E-3,211.930847E-3
372.640228E-3,212.124252E-3
371.503258E-3,210.645676E-3
372.141266E-3,212.291908E-3
371.396255E-3,211.619568E-3
371.704674E-3,212.163162E-3
372.448540E-3,212.273598E-3
372.211075E-3,211.537170E-3
373.600388E-3,212.861252E-3
372.727776E-3,212.072182E-3
372.933197E-3,211.984062E-3
373.231316E-3,212.385178E-3
372.101784E-3,211.475372E-3
373.191833E-3,213.109016E-3
371.321297E-3,212.057877E-3
370.697021E-3,212.110519E-3
370.383453E-3,212.536240E-3
368.931770E-3,211.927414E-3
369.672203E-3,213.060379E-3
368.048859E-3,212.255859E-3
367.737007E-3,212.666130E-3
367.432022E-3,212.929344E-3
366.390038E-3,212.328529E-3
367.069244E-3,213.317871E-3
365.992355E-3,212.450981E-3
365.744591E-3,212.757111E-3
365.945435E-3,213.102150E-3
365.095139E-3,211.054230E-3
366.224098E-3,213.116455E-3
365.246773E-3,212.703896E-3
365.036201E-3,212.781715E-3
365.296555E-3,213.044930E-3
364.530373E-3,212.294197E-3
365.760040E-3,213.705254E-3
364.745522E-3,212.881279E-3
364.612198E-3,212.793732E-3
365.144920E-3,213.435745E-3
364.212227E-3,212.578583E-3
365.578651E-3,214.057732E-3
364.463425E-3,213.065529E-3
363.878059E-3,212.897301E-3
364.462280E-3,213.337326E-3
363.535309E-3,212.587738E-3
364.747810E-3,214.053154E-3
363.479805E-3,212.761116E-3
363.396263E-3,213.034058E-3
363.458061E-3,213.289833E-3
362.620926E-3,211.433029E-3
363.420296E-3,213.266945E-3
362.342834E-3,212.549400E-3
362.018394E-3,212.859535E-3
362.103081E-3,213.071251E-3
361.273956E-3,212.507629E-3
362.262154E-3,213.823128E-3
361.038208E-3,213.139915E-3
360.975838E-3,213.043213E-3
361.114311E-3,213.507843E-3
360.352135E-3,212.737083E-3
361.285400E-3,213.952446E-3
360.026550E-3,213.096428E-3
360.134125E-3,213.355637E-3
360.046005E-3,213.862038E-3
359.384537E-3,211.336327E-3
360.514641E-3,213.464355E-3
359.528160E-3,212.987709E-3
359.755898E-3,213.207436E-3
359.755898E-3,213.834000E-3
358.108521E-3,212.901306E-3
359.740448E-3,214.052582E-3
359.338188E-3,213.427162E-3
359.622002E-3,213.475800E-3
359.745598E-3,213.850021E-3
358.948517E-3,212.962532E-3
359.850883E-3,214.219666E-3
358.709908E-3,213.408279E-3
358.642387E-3,213.649750E-3
358.794022E-3,214.029694E-3
357.932854E-3,212.112808E-3
358.704758E-3,214.025116E-3
357.974625E-3,213.716125E-3
358.115959E-3,213.792801E-3
359.160233E-3,214.081192E-3
359.639168E-3,212.815475E-3
363.672066E-3,213.856888E-3
366.533661E-3,212.530518E-3
370.636368E-3,211.988068E-3
374.931908E-3,212.091637E-3
377.721405E-3,210.600471E-3
381.536293E-3,211.922264E-3
382.297325E-3,210.998154E-3
382.530212E-3,211.134338E-3
382.177734E-3,211.477089E-3
379.975319E-3,210.263443E-3
379.816246E-3,212.026978E-3
377.150345E-3,211.335182E-3
374.994278E-3,211.347198E-3
373.981476E-3,211.977196E-3
371.590233E-3,211.069107E-3
372.152138E-3,212.577438E-3
370.751953E-3,211.786079E-3
370.347404E-3,211.638451E-3
370.628357E-3,212.264442E-3
369.873047E-3,210.182762E-3
371.835709E-3,212.004089E-3
371.518707E-3,211.530876E-3
371.836281E-3,211.316872E-3
372.377586E-3,212.061882E-3
371.038628E-3,210.882568E-3
371.432877E-3,212.125969E-3
369.935417E-3,211.635590E-3
369.504547E-3,211.967468E-3
369.257927E-3,212.345695E-3
368.269730E-3,210.470009E-3
369.625282E-3,212.136269E-3
369.657898E-3,211.756325E-3
370.203781E-3,211.684227E-3
371.094131E-3,212.385750E-3
370.297623E-3,210.929489E-3
372.176743E-3,212.319946E-3
371.389961E-3,211.847305E-3
371.257210E-3,211.473083E-3
371.482086E-3,212.036133E-3
369.738007E-3,210.712051E-3
370.496750E-3,212.415504E-3
369.189262E-3,212.227249E-3
368.382454E-3,212.110519E-3
368.076897E-3,212.406349E-3
366.180038E-3,211.462212E-3
366.994858E-3,212.992287E-3
365.906525E-3,212.664986E-3
364.947510E-3,212.254143E-3
365.147209E-3,212.848663E-3
363.423729E-3,211.614990E-3
364.585876E-3,213.270950E-3
363.770485E-3,212.845230E-3
363.270950E-3,212.663269E-3
363.698387E-3,213.305283E-3
362.279892E-3,211.980629E-3
363.741875E-3,213.650322E-3
363.026047E-3,213.072968E-3
362.662697E-3,212.469864E-3
363.214302E-3,213.060379E-3
362.060738E-3,211.944580E-3
363.224030E-3,213.232613E-3
362.485313E-3,212.511063E-3
362.490463E-3,212.474442E-3
362.751389E-3,212.929344E-3
360.478020E-3,211.913109E-3
362.095642E-3,212.915039E-3
361.801529E-3,212.575150E-3
361.918831E-3,212.572289E-3
362.083626E-3,213.180542E-3
360.898590E-3,212.196922E-3
361.925125E-3,212.842369E-3
361.439896E-3,212.767982E-3
361.297989E-3,212.739372E-3
361.109734E-3,212.871552E-3
360.004234E-3,211.720276E-3
360.900879E-3,213.072968E-3
360.105515E-3,212.804604E-3
359.902954E-3,212.954521E-3
360.118103E-3,213.205147E-3
358.792305E-3,212.202644E-3
359.712982E-3,213.425446E-3
359.170532E-3,213.149071E-3
358.941650E-3,213.031769E-3
359.008598E-3,213.496971E-3
357.764626E-3,212.469292E-3
359.126472E-3,213.760185E-3
358.447266E-3,213.513565E-3
358.088493E-3,213.420296E-3
358.360291E-3,213.555336E-3
357.215881E-3,212.433815E-3
358.470154E-3,213.940430E-3
357.895088E-3,213.438606E-3
357.717133E-3,213.424873E-3
357.976913E-3,213.133621E-3
356.438828E-3,212.499619E-3
357.833862E-3,214.267731E-3
356.861687E-3,213.588524E-3
356.415367E-3,213.578224E-3
356.720924E-3,214.001083E-3
355.602264E-3,212.801170E-3
357.349205E-3,214.496040E-3
357.152367E-3,213.828278E-3
358.044434E-3,213.428879E-3
360.962105E-3,213.629150E-3
363.221741E-3,211.760330E-3
368.609047E-3,212.533379E-3
372.159004E-3,211.487961E-3
375.689507E-3,210.661697E-3
379.710388E-3,210.909462E-3
380.914307E-3,209.682655E-3
383.032036E-3,210.905457E-3
382.625771E-3,210.499191E-3
381.428146E-3,210.052872E-3
380.543518E-3,210.678291E-3
378.009796E-3,209.895515E-3
377.206421E-3,210.995865E-3
374.949646E-3,210.954094E-3
373.607826E-3,211.096573E-3
372.455978E-3,211.383820E-3
370.697594E-3,210.404205E-3
371.689796E-3,211.691666E-3
371.414566E-3,211.232758E-3
371.668053E-3,210.950089E-3
372.202492E-3,211.110878E-3
371.379089E-3,210.075760E-3
373.438454E-3,211.560631E-3
373.456764E-3,211.062241E-3
373.394966E-3,210.807610E-3
373.512840E-3,211.151505E-3
371.828270E-3,209.907532E-3
372.492599E-3,211.841583E-3
370.701027E-3,211.380386E-3
370.059586E-3,210.986710E-3
369.792366E-3,211.469078E-3
368.452263E-3,210.271454E-3
370.056152E-3,211.955452E-3
369.727707E-3,211.301422E-3
369.644737E-3,210.659981E-3
370.535660E-3,211.154366E-3
369.640732E-3,210.066605E-3
371.174812E-3,211.416435E-3
370.801735E-3,211.245918E-3
370.336533E-3,210.468292E-3
370.170593E-3,211.140060E-3
368.651962E-3,210.093498E-3
369.367218E-3,211.348915E-3
368.426514E-3,211.450768E-3
367.371941E-3,210.970116E-3
367.069817E-3,211.348915E-3
365.546036E-3,210.389900E-3
366.002655E-3,211.805534E-3
365.412712E-3,211.592102E-3
364.430237E-3,211.272240E-3
364.383888E-3,211.706543E-3
363.014030E-3,210.840797E-3
363.946724E-3,212.057304E-3
363.557053E-3,211.816406E-3
363.068390E-3,211.546898E-3
362.989426E-3,211.952591E-3
361.870193E-3,210.855103E-3
363.457489E-3,212.437820E-3
362.595177E-3,212.002373E-3
362.267303E-3,211.596680E-3
362.469864E-3,212.160301E-3
361.236763E-3,210.828781E-3
362.971687E-3,212.818909E-3
362.514496E-3,212.173462E-3
362.107086E-3,211.550331E-3
362.343407E-3,212.068176E-3
361.166382E-3,211.068535E-3
362.761116E-3,212.786865E-3
362.072754E-3,212.180328E-3
361.530304E-3,211.739731E-3
361.378098E-3,212.316513E-3
360.465431E-3,211.152077E-3
362.374306E-3,212.929344E-3
361.452484E-3,212.172890E-3
360.920906E-3,211.926842E-3
361.215591E-3,212.356567E-3
359.712982E-3,211.621857E-3
361.398697E-3,213.460922E-3
360.466576E-3,212.390327E-3
359.603119E-3,211.808395E-3
360.109520E-3,212.449837E-3
358.722496E-3,211.789513E-3
360.395050E-3,213.516998E-3
359.375381E-3,212.674141E-3
358.497047E-3,211.772346E-3
358.956528E-3,212.753105E-3
357.754326E-3,212.038994E-3
359.101295E-3,213.248634E-3
358.673286E-3,212.743950E-3
357.850456E-3,212.123680E-3
357.960320E-3,212.921333E-3
356.846237E-3,212.093353E-3
358.027840E-3,213.070107E-3
357.889366E-3,212.841225E-3
357.231331E-3,212.463570E-3
357.530594E-3,212.880135E-3
356.522369E-3,212.170029E-3
357.722282E-3,213.110161E-3
357.120323E-3,212.956810E-3
356.361008E-3,212.468719E-3
356.721497E-3,212.996864E-3
355.490112E-3,212.521362E-3
356.534958E-3,213.429451E-3
355.983353E-3,213.110733E-3
355.121613E-3,212.380600E-3
355.375099E-3,212.928200E-3
354.227257E-3,212.420654E-3
355.759621E-3,213.181114E-3
356.163597E-3,212.833786E-3
357.747459E-3,212.057304E-3
361.293983E-3,211.931992E-3
364.231110E-3,210.633087E-3
369.593239E-3,211.194420E-3
373.594093E-3,210.398483E-3
376.588440E-3,209.389114E-3
379.591370E-3,209.369087E-3
379.983902E-3,208.927917E-3
381.451607E-3,210.091782E-3
380.229950E-3,209.514999E-3
378.604889E-3,209.083557E-3
377.413559E-3,209.652328E-3
374.792290E-3,209.309578E-3
374.565125E-3,210.298920E-3
372.286034E-3,210.144424E-3
370.550537E-3,209.972763E-3
370.020103E-3,210.370445E-3
368.888855E-3,209.856033E-3
370.155716E-3,210.959816E-3
369.495392E-3,210.186768E-3
369.473076E-3,209.940720E-3
370.343399E-3,210.357285E-3
370.230675E-3,209.276390E-3
371.569633E-3,210.306931E-3
371.257210E-3,210.231972E-3
370.872116E-3,209.767914E-3
371.042061E-3,210.180473E-3
369.562912E-3,209.436035E-3
369.642448E-3,210.463715E-3
368.690300E-3,210.363007E-3
367.854881E-3,209.783363E-3
368.142128E-3,210.392189E-3
367.238617E-3,209.639168E-3
368.580437E-3,210.545540E-3
368.799591E-3,210.421944E-3
368.618774E-3,209.914398E-3
369.363213E-3,210.453415E-3
368.859100E-3,209.593964E-3
369.791222E-3,210.336685E-3
369.153786E-3,210.348701E-3
368.191910E-3,210.143852E-3
368.266869E-3,210.428238E-3
366.876984E-3,209.720993E-3
367.283821E-3,210.824776E-3
366.353416E-3,210.591888E-3
365.153503E-3,210.102654E-3
365.252495E-3,210.789871E-3
363.950157E-3,210.009384E-3
364.151573E-3,211.173248E-3
363.629150E-3,210.819054E-3
362.618065E-3,210.390472E-3
362.618637E-3,210.863686E-3
361.632729E-3,210.210800E-3
362.235260E-3,211.066818E-3
362.005234E-3,211.114883E-3
361.219025E-3,210.837936E-3
361.626434E-3,211.174965E-3
360.816765E-3,210.353851E-3
361.728287E-3,211.467361E-3
361.178398E-3,211.089706E-3
360.871696E-3,210.857964E-3
361.194420E-3,211.248207E-3
360.347557E-3,210.521507E-3
361.602974E-3,212.096786E-3
360.958099E-3,211.307144E-3
360.662270E-3,211.019325E-3
361.006737E-3,211.294556E-3
360.269737E-3,210.508347E-3
361.604118E-3,211.954308E-3
360.655975E-3,211.032486E-3
360.202217E-3,210.833931E-3
360.583305E-3,211.307716E-3
359.787941E-3,210.746956E-3
360.892296E-3,212.080193E-3
359.970474E-3,211.228180E-3
359.387970E-3,210.964966E-3
359.603119E-3,211.362648E-3
358.954811E-3,210.848808E-3
360.066605E-3,212.434387E-3
358.990860E-3,211.732292E-3
358.158875E-3,211.175537E-3
358.418655E-3,211.775208E-3
357.550621E-3,210.947800E-3
358.610916E-3,212.562561E-3
357.657051E-3,211.594963E-3
357.097435E-3,211.320877E-3
357.424736E-3,211.853600E-3
356.411934E-3,211.176682E-3
357.643890E-3,212.594032E-3
356.825066E-3,211.907959E-3
356.176186E-3,211.439896E-3
356.684303E-3,212.137985E-3
355.911827E-3,211.447906E-3
357.431030E-3,212.877274E-3
356.426239E-3,211.857033E-3
355.843735E-3,210.899734E-3
356.323814E-3,211.052513E-3
355.549622E-3,210.899162E-3
356.644249E-3,212.646103E-3
355.621719E-3,212.206650E-3
354.817772E-3,211.779213E-3
355.158806E-3,212.311935E-3
354.528236E-3,211.774063E-3
355.686378E-3,212.954521E-3
354.887581E-3,212.360001E-3
354.366875E-3,211.782074E-3
354.864120E-3,212.210655E-3
354.917336E-3,211.502266E-3
357.998657E-3,212.582588E-3
359.939575E-3,211.809540E-3
362.647820E-3,210.486031E-3
367.662621E-3,210.511780E-3
371.084404E-3,209.610558E-3
375.993347E-3,210.342407E-3
377.966881E-3,209.523582E-3
378.853226E-3,208.666420E-3
379.798508E-3,209.341621E-3
378.622055E-3,208.915901E-3
378.868675E-3,210.163879E-3
376.351547E-3,209.699821E-3
373.760605E-3,209.113884E-3
372.410774E-3,210.050583E-3
370.145416E-3,209.305000E-3
370.020103E-3,210.435104E-3
368.565559E-3,210.363579E-3
366.903877E-3,209.640312E-3
367.381096E-3,210.325813E-3
366.490746E-3,209.405708E-3
367.583656E-3,210.282898E-3
367.842293E-3,210.383606E-3
367.599678E-3,209.536743E-3
368.654823E-3,210.146713E-3
367.737579E-3,209.170532E-3
368.154144E-3,209.893227E-3
367.429733E-3,210.207939E-3
365.950012E-3,209.499550E-3
366.015244E-3,210.293770E-3
365.009308E-3,209.462357E-3
365.797234E-3,210.440254E-3
366.217232E-3,210.488892E-3
366.186333E-3,209.705544E-3
367.403984E-3,210.253143E-3
367.246628E-3,209.282684E-3
368.660545E-3,210.389900E-3
368.429947E-3,210.179329E-3
368.379021E-3,209.682083E-3
368.853951E-3,210.126114E-3
367.772484E-3,209.670067E-3
368.370438E-3,210.726357E-3
366.797447E-3,210.298920E-3
365.802383E-3,209.750748E-3
365.725136E-3,210.585022E-3
364.359856E-3,209.630013E-3
364.832497E-3,211.264229E-3
363.656616E-3,211.027908E-3
361.727715E-3,209.760475E-3
362.178612E-3,210.741806E-3
361.269379E-3,210.067749E-3
361.552048E-3,210.852242E-3
361.117172E-3,211.049652E-3
360.183907E-3,210.231400E-3
360.835648E-3,211.170959E-3
359.858894E-3,210.359573E-3
360.439110E-3,211.225319E-3
360.552406E-3,211.465645E-3
359.502983E-3,210.542679E-3
360.176468E-3,210.796165E-3
359.259224E-3,210.032272E-3
359.916687E-3,210.919762E-3
360.196495E-3,211.393547E-3
359.366226E-3,210.325241E-3
360.097504E-3,211.278534E-3
359.287262E-3,210.614204E-3
360.044289E-3,211.267662E-3
359.972191E-3,211.074829E-3
359.463501E-3,210.424232E-3
359.987640E-3,211.474228E-3
359.136200E-3,210.737228E-3
359.963036E-3,211.649323E-3
359.352493E-3,211.231613E-3
358.754539E-3,210.726929E-3
359.324455E-3,211.472511E-3
358.432388E-3,210.708618E-3
359.161377E-3,211.820412E-3
358.760834E-3,211.537170E-3
357.982635E-3,210.466576E-3
358.347702E-3,211.355782E-3
357.186127E-3,210.864258E-3
357.815552E-3,211.675072E-3
357.492256E-3,211.729431E-3
356.613922E-3,211.196709E-3
357.152367E-3,212.054443E-3
356.137276E-3,210.999870E-3
356.928635E-3,211.933136E-3
356.525230E-3,211.657333E-3
355.843163E-3,211.213875E-3
356.580734E-3,211.942291E-3
355.646324E-3,211.328316E-3
356.310081E-3,212.143135E-3
355.809975E-3,211.909103E-3
354.813766E-3,211.283684E-3
355.803680E-3,212.133980E-3
355.114174E-3,211.458206E-3
355.722427E-3,212.413216E-3
355.389977E-3,212.337685E-3
354.536819E-3,211.569786E-3
354.963112E-3,212.474442E-3
353.967476E-3,211.443901E-3
354.727936E-3,212.576294E-3
354.533386E-3,212.131691E-3
353.986359E-3,211.558342E-3
355.095291E-3,211.996651E-3
355.615997E-3,211.086845E-3
358.887291E-3,211.717415E-3
362.196350E-3,211.063385E-3
365.556335E-3,209.788513E-3
370.532227E-3,209.939003E-3
373.917961E-3,208.758545E-3
378.144264E-3,209.310722E-3
380.353546E-3,208.804321E-3
380.702019E-3,208.043289E-3
381.720543E-3,208.628082E-3
380.113792E-3,208.023262E-3
379.637718E-3,208.813477E-3
377.775764E-3,209.061241E-3
374.600029E-3,208.523369E-3
374.213219E-3,209.422302E-3
371.977043E-3,208.604050E-3
371.692657E-3,209.629440E-3
370.646667E-3,209.465790E-3
369.679070E-3,208.923912E-3
370.179749E-3,209.822845E-3
369.505119E-3,208.951378E-3
370.927620E-3,209.766197E-3
371.130753E-3,209.327888E-3
371.055222E-3,208.821487E-3
372.204208E-3,209.577370E-3
371.519279E-3,209.029198E-3
372.471428E-3,209.892082E-3
371.687508E-3,209.532166E-3
370.203209E-3,208.898163E-3
369.742012E-3,209.779358E-3
368.404770E-3,209.213448E-3
368.924904E-3,210.120964E-3
368.487740E-3,209.873199E-3
367.930984E-3,208.958244E-3
369.047928E-3,210.072327E-3
368.663979E-3,209.176254E-3
369.974899E-3,209.952164E-3
370.063591E-3,209.819984E-3
369.331169E-3,208.801460E-3
370.250130E-3,210.090065E-3
369.354630E-3,208.949661E-3
369.632721E-3,209.923553E-3
369.208717E-3,210.009956E-3
367.530441E-3,209.063530E-3
367.789078E-3,210.565567E-3
366.273880E-3,209.513855E-3
366.153717E-3,209.892082E-3
365.791512E-3,210.316658E-3
364.377022E-3,208.846664E-3
364.877701E-3,210.843086E-3
363.419724E-3,209.460068E-3
363.584518E-3,210.239410E-3
363.353920E-3,210.262299E-3
362.327385E-3,209.680939E-3
363.405991E-3,211.057091E-3
361.859322E-3,209.898376E-3
362.286758E-3,210.486603E-3
362.286186E-3,210.575867E-3
361.351204E-3,209.872627E-3
362.603760E-3,211.061668E-3
361.530876E-3,209.984779E-3
362.063599E-3,210.393906E-3
362.091064E-3,210.532951E-3
