Notes :


2023-11-04 ¿ÀÀü 1:22:18
Volts
Ch : LED 2,
619.438362E-3
621.973801E-3
622.154617E-3
623.417473E-3
624.537849E-3
624.977303E-3
626.606941E-3
626.111984E-3
626.895905E-3
627.337074E-3
627.267265E-3
628.920364E-3
627.843475E-3
628.195953E-3
628.519821E-3
628.036880E-3
629.189301E-3
628.389359E-3
629.045105E-3
629.597855E-3
629.051971E-3
630.170631E-3
629.070854E-3
629.577827E-3
629.970932E-3
628.258896E-3
630.553436E-3
630.024719E-3
630.713654E-3
631.252670E-3
631.150246E-3
632.669449E-3
632.016563E-3
632.665443E-3
633.532333E-3
633.404732E-3
634.606361E-3
633.839035E-3
634.398079E-3
635.070992E-3
634.954262E-3
636.441994E-3
636.062622E-3
636.618805E-3
637.664223E-3
637.702560E-3
639.658928E-3
638.803482E-3
639.067268E-3
639.202309E-3
638.275337E-3
638.082504E-3
633.937454E-3
628.643417E-3
621.480560E-3
613.466835E-3
606.869888E-3
599.143410E-3
593.566704E-3
589.987564E-3
587.096786E-3
587.705040E-3
587.756538E-3
589.500046E-3
592.131615E-3
594.036484E-3
597.789001E-3
599.429512E-3
601.525497E-3
603.692436E-3
603.963661E-3
605.663681E-3
605.415344E-3
605.352402E-3
604.969597E-3
603.958511E-3
606.596375E-3
607.561684E-3
609.076881E-3
611.164284E-3
611.332512E-3
613.111496E-3
612.483215E-3
611.834335E-3
611.448097E-3
609.490585E-3
609.598732E-3
608.042908E-3
607.330513E-3
607.575989E-3
606.767464E-3
608.026314E-3
608.083534E-3
608.572197E-3
610.085106E-3
611.076164E-3
613.406181E-3
614.293098E-3
615.515327E-3
617.049408E-3
617.402458E-3
619.406891E-3
619.623756E-3
620.483780E-3
622.040749E-3
621.473122E-3
623.008347E-3
623.006630E-3
623.259544E-3
623.951340E-3
623.260117E-3
624.583626E-3
624.353600E-3
624.518394E-3
624.901772E-3
624.227715E-3
625.273132E-3
624.917793E-3
625.067711E-3
625.654221E-3
624.984169E-3
625.846481E-3
625.604439E-3
625.960922E-3
626.337433E-3
625.955200E-3
627.454948E-3
627.291870E-3
627.536201E-3
628.257751E-3
627.964783E-3
629.492569E-3
629.405022E-3
629.650497E-3
630.608368E-3
630.264473E-3
631.793976E-3
632.135010E-3
632.665443E-3
633.457375E-3
633.199883E-3
635.061264E-3
635.165977E-3
635.323906E-3
636.218262E-3
635.770798E-3
637.249947E-3
636.407089E-3
634.813499E-3
632.495499E-3
627.248955E-3
622.092819E-3
614.006996E-3
606.098557E-3
599.518204E-3
593.296051E-3
590.574074E-3
587.746811E-3
586.514282E-3
587.557983E-3
588.782501E-3
592.363930E-3
594.368362E-3
596.610260E-3
599.482727E-3
601.027679E-3
604.030037E-3
604.809952E-3
605.364990E-3
606.349182E-3
606.138039E-3
607.569122E-3
607.371712E-3
607.659531E-3
609.588432E-3
610.410118E-3
612.954140E-3
613.740349E-3
613.713455E-3
614.105988E-3
612.833977E-3
612.847137E-3
611.064720E-3
609.278870E-3
608.763885E-3
607.511902E-3
608.456612E-3
607.895851E-3
606.701088E-3
608.722115E-3
609.150696E-3
611.384583E-3
612.463760E-3
613.585854E-3
615.515327E-3
616.124153E-3
618.265343E-3
619.366837E-3
620.080948E-3
621.597290E-3
621.752357E-3
623.568535E-3
623.705292E-3
623.688698E-3
624.676323E-3
624.110413E-3
625.358391E-3
625.433350E-3
625.095177E-3
626.009560E-3
625.396156E-3
626.226425E-3
626.351738E-3
625.944901E-3
626.380348E-3
626.049042E-3
627.002907E-3
626.977158E-3
626.405525E-3
627.303314E-3
626.862717E-3
627.957344E-3
628.208542E-3
628.016853E-3
629.155540E-3
629.209900E-3
630.273056E-3
630.623817E-3
630.665016E-3
631.825447E-3
631.444931E-3
632.592201E-3
632.714081E-3
632.476616E-3
633.471680E-3
633.558655E-3
634.562302E-3
634.696198E-3
634.395790E-3
635.949326E-3
635.579681E-3
636.638260E-3
637.311172E-3
637.247086E-3
638.941383E-3
638.171196E-3
638.711929E-3
639.091873E-3
638.010406E-3
638.186073E-3
633.687401E-3
628.834534E-3
621.584129E-3
611.329079E-3
605.287170E-3
597.270584E-3
591.654968E-3
587.663269E-3
584.665489E-3
585.163879E-3
584.642601E-3
586.570358E-3
588.796806E-3
590.687943E-3
594.556618E-3
595.694733E-3
598.016167E-3
599.339676E-3
600.024605E-3
601.927185E-3
600.841713E-3
601.273727E-3
601.201057E-3
600.472069E-3
601.601601E-3
600.981331E-3
602.574348E-3
604.056358E-3
605.075455E-3
607.655525E-3
607.289886E-3
607.736778E-3
608.091545E-3
607.063866E-3
607.574844E-3
605.584145E-3
605.109787E-3
605.031967E-3
604.399681E-3
605.974960E-3
605.062866E-3
606.049347E-3
607.228661E-3
607.790565E-3
610.198402E-3
610.309982E-3
612.086678E-3
613.613892E-3
612.591934E-3
616.025734E-3
616.107559E-3
617.513466E-3
618.668175E-3
618.787193E-3
620.449448E-3
619.853210E-3
620.586777E-3
621.014214E-3
620.939827E-3
622.558594E-3
621.317482E-3
621.871376E-3
622.238731E-3
622.126579E-3
623.527336E-3
622.375488E-3
622.981453E-3
623.415184E-3
623.123932E-3
624.251747E-3
623.376274E-3
623.921013E-3
624.711227E-3
624.663734E-3
625.942039E-3
625.214195E-3
626.049614E-3
626.427841E-3
625.760651E-3
627.874374E-3
627.778244E-3
628.397942E-3
629.419327E-3
629.241943E-3
630.893898E-3
630.370331E-3
630.837822E-3
631.293869E-3
629.328346E-3
631.777954E-3
631.476974E-3
632.200813E-3
632.733536E-3
632.525826E-3
634.314537E-3
633.777809E-3
634.430122E-3
635.122490E-3
635.140228E-3
636.973572E-3
636.593628E-3
636.607361E-3
637.064552E-3
635.804558E-3
635.643196E-3
631.585693E-3
626.114273E-3
619.571686E-3
611.055565E-3
604.503250E-3
596.392250E-3
590.742302E-3
587.409210E-3
584.430885E-3
584.764481E-3
584.897804E-3
586.495399E-3
589.114380E-3
590.826416E-3
594.290543E-3
596.099281E-3
597.811317E-3
600.001717E-3
600.185966E-3
601.821899E-3
601.200485E-3
601.032257E-3
600.876045E-3
600.074387E-3
601.110649E-3
601.486015E-3
602.437019E-3
604.566193E-3
603.759956E-3
606.707382E-3
607.131386E-3
607.260132E-3
607.531929E-3
606.056786E-3
606.095695E-3
604.996490E-3
604.244614E-3
604.300117E-3
603.334236E-3
604.690361E-3
604.816818E-3
605.311203E-3
606.668472E-3
607.102203E-3
609.423637E-3
610.375214E-3
611.559105E-3
612.926102E-3
613.401031E-3
615.612030E-3
616.003990E-3
616.709518E-3
617.913437E-3
617.563820E-3
619.200897E-3
619.137955E-3
619.501877E-3
619.666672E-3
619.374847E-3
620.646858E-3
620.543861E-3
620.459747E-3
620.806503E-3
620.325279E-3
621.414757E-3
620.931816E-3
620.848846E-3
621.397018E-3
620.769310E-3
622.056198E-3
622.017860E-3
621.933174E-3
622.770882E-3
622.174644E-3
623.858643E-3
623.808289E-3
623.864365E-3
624.691772E-3
624.308968E-3
626.240158E-3
626.019859E-3
626.285934E-3
627.178001E-3
626.546860E-3
628.155327E-3
628.026009E-3
628.054619E-3
628.947830E-3
628.470612E-3
630.180359E-3
630.182648E-3
630.452156E-3
631.317329E-3
631.174850E-3
632.929802E-3
632.806778E-3
632.688904E-3
633.684540E-3
633.368111E-3
634.770012E-3
634.164619E-3
632.853699E-3
631.459808E-3
626.775742E-3
622.323418E-3
614.871597E-3
606.972885E-3
600.708389E-3
594.495392E-3
591.402054E-3
588.699532E-3
587.255287E-3
588.320732E-3
589.041138E-3
592.347336E-3
594.654465E-3
596.949577E-3
600.077820E-3
601.737785E-3
604.508972E-3
605.826759E-3
606.459618E-3
607.466125E-3
607.182884E-3
608.260918E-3
608.343887E-3
608.802795E-3
610.807800E-3
611.479568E-3
613.794136E-3
614.550018E-3
614.244461E-3
614.576340E-3
613.030815E-3
612.699509E-3
611.214066E-3
609.372139E-3
608.960152E-3
607.498741E-3
607.725906E-3
607.830620E-3
606.615257E-3
608.789062E-3
609.097481E-3
611.265564E-3
612.693787E-3
613.245392E-3
614.239311E-3
615.687561E-3
617.984962E-3
619.182014E-3
618.393517E-3
620.946693E-3
621.407890E-3
622.975731E-3
623.535347E-3
623.117065E-3
624.410820E-3
624.167633E-3
625.177002E-3
625.193024E-3
624.641991E-3
625.554657E-3
624.843407E-3
625.855637E-3
625.974083E-3
625.444221E-3
625.796700E-3
625.591278E-3
626.563454E-3
626.863289E-3
626.328850E-3
627.553940E-3
626.905060E-3
627.776527E-3
627.959061E-3
627.623177E-3
629.348373E-3
628.824806E-3
629.600716E-3
630.024719E-3
629.801559E-3
631.595993E-3
631.045532E-3
631.890678E-3
632.292366E-3
632.153893E-3
633.702850E-3
633.016777E-3
633.333206E-3
633.728600E-3
633.697701E-3
635.672951E-3
635.013771E-3
635.757065E-3
636.135864E-3
636.421394E-3
638.219833E-3
637.727737E-3
638.481903E-3
638.743401E-3
638.410950E-3
639.547920E-3
637.371254E-3
634.712791E-3
629.572678E-3
622.564316E-3
615.927315E-3
606.508827E-3
599.387169E-3
593.258286E-3
588.391685E-3
587.317657E-3
585.229683E-3
586.030197E-3
588.038635E-3
589.419365E-3
592.741013E-3
594.139481E-3
596.823120E-3
598.984337E-3
599.842072E-3
602.182388E-3
601.721764E-3
602.601242E-3
602.470207E-3
601.595306E-3
602.486229E-3
601.114655E-3
601.968956E-3
602.900505E-3
603.159714E-3
606.299400E-3
606.596375E-3
608.130455E-3
608.870888E-3
608.244896E-3
608.798790E-3
606.885910E-3
606.373215E-3
605.944061E-3
602.895355E-3
604.936981E-3
604.280663E-3
605.149841E-3
606.204987E-3
606.446457E-3
608.675194E-3
608.860016E-3
610.456467E-3
612.040901E-3
612.829971E-3
615.207481E-3
615.193748E-3
616.609383E-3
618.038177E-3
618.232155E-3
619.995117E-3
619.595718E-3
620.225716E-3
621.166420E-3
620.831108E-3
622.380638E-3
621.528625E-3
621.767807E-3
622.257614E-3
620.760727E-3
622.842979E-3
622.378349E-3
622.713661E-3
623.293877E-3
622.707367E-3
624.220848E-3
623.379707E-3
623.514748E-3
623.319054E-3
623.580551E-3
625.391579E-3
624.819946E-3
625.435638E-3
626.186943E-3
626.111412E-3
627.717590E-3
627.698135E-3
628.134155E-3
628.655434E-3
628.510094E-3
630.228996E-3
629.915428E-3
630.314827E-3
631.264687E-3
630.881310E-3
632.453156E-3
631.787109E-3
632.224274E-3
632.681465E-3
632.382202E-3
633.908844E-3
633.437347E-3
633.746910E-3
634.859848E-3
634.471321E-3
636.067772E-3
636.107254E-3
636.450577E-3
637.453079E-3
636.785889E-3
637.912560E-3
636.830521E-3
635.492134E-3
633.100891E-3
627.239227E-3
621.347809E-3
612.990761E-3
604.991341E-3
598.195267E-3
588.508415E-3
587.424660E-3
585.417366E-3
584.743881E-3
586.152649E-3
587.110519E-3
590.256500E-3
592.356491E-3
594.802094E-3
597.676277E-3
596.411705E-3
600.256348E-3
601.263428E-3
601.872826E-3
602.554321E-3
601.808167E-3
602.586937E-3
602.131462E-3
601.799583E-3
602.572060E-3
602.946854E-3
605.348969E-3
606.597519E-3
607.756233E-3
608.962440E-3
608.349037E-3
608.914375E-3
607.823753E-3
606.978035E-3
606.558609E-3
604.982758E-3
605.699730E-3
605.013084E-3
605.177879E-3
605.621910E-3
605.580711E-3
607.527351E-3
608.193398E-3
609.355545E-3
610.930252E-3
611.472702E-3
613.895416E-3
614.317131E-3
615.263557E-3
616.626549E-3
616.545296E-3
618.386078E-3
618.536568E-3
618.651009E-3
619.914436E-3
619.357681E-3
621.064568E-3
620.781898E-3
620.554161E-3
621.175003E-3
620.783615E-3
622.231293E-3
621.754074E-3
621.581268E-3
622.205544E-3
621.563530E-3
622.979164E-3
622.814369E-3
622.374344E-3
622.531128E-3
622.194672E-3
623.851204E-3
623.612595E-3
623.484421E-3
624.470901E-3
624.304390E-3
626.138878E-3
625.774956E-3
626.061630E-3
626.993752E-3
626.852417E-3
628.461456E-3
628.476334E-3
628.356743E-3
629.222488E-3
628.921509E-3
630.216980E-3
629.947472E-3
629.744339E-3
630.812645E-3
630.517960E-3
632.281494E-3
632.293510E-3
632.133293E-3
633.030510E-3
632.790184E-3
634.137726E-3
634.200668E-3
633.939171E-3
634.774017E-3
634.227562E-3
634.898758E-3
633.358955E-3
629.811859E-3
625.931740E-3
619.120789E-3
612.805367E-3
605.299759E-3
598.435020E-3
593.954659E-3
589.842796E-3
589.189339E-3
588.767624E-3
589.135551E-3
590.389824E-3
592.784500E-3
596.627998E-3
599.308205E-3
601.446533E-3
604.125023E-3
604.983330E-3
607.010078E-3
607.747078E-3
607.790565E-3
608.119583E-3
608.010864E-3
609.473419E-3
610.146904E-3
610.816383E-3
613.201904E-3
613.691139E-3
615.126228E-3
615.127373E-3
613.866234E-3
613.792419E-3
611.803436E-3
611.143112E-3
609.796715E-3
608.220291E-3
608.320999E-3
607.411194E-3
608.245468E-3
608.635139E-3
608.798790E-3
610.522270E-3
611.151695E-3
613.001060E-3
614.571762E-3
615.390587E-3
617.289162E-3
618.126869E-3
620.005417E-3
620.764160E-3
619.874382E-3
622.182083E-3
622.516823E-3
623.688698E-3
624.040031E-3
623.856926E-3
625.491714E-3
624.930954E-3
625.357819E-3
625.406456E-3
624.670029E-3
626.420403E-3
625.436783E-3
625.871086E-3
625.934601E-3
625.527763E-3
626.766586E-3
625.822449E-3
626.295662E-3
626.542854E-3
626.019859E-3
627.543640E-3
626.886749E-3
627.543068E-3
628.086090E-3
627.858925E-3
629.483414E-3
628.745270E-3
629.544067E-3
629.934311E-3
629.955482E-3
631.565094E-3
630.733109E-3
631.633186E-3
632.109833E-3
631.772804E-3
633.453369E-3
632.635117E-3
633.371544E-3
633.771515E-3
633.670807E-3
635.314751E-3
634.568596E-3
635.615730E-3
636.379051E-3
636.613655E-3
638.136292E-3
637.184715E-3
637.512016E-3
637.280273E-3
635.375404E-3
633.317757E-3
626.690483E-3
619.964218E-3
612.391663E-3
603.970528E-3
598.000717E-3
591.177177E-3
587.674713E-3
586.096573E-3
585.096359E-3
586.915398E-3
587.487030E-3
589.926338E-3
592.844582E-3
594.885063E-3
598.162651E-3
598.468208E-3
600.287247E-3
601.686859E-3
600.609398E-3
602.586937E-3
601.631355E-3
601.733780E-3
601.762962E-3
601.237679E-3
602.840996E-3
602.676773E-3
604.413986E-3
606.291389E-3
606.951141E-3
608.769035E-3
608.032608E-3
608.215714E-3
607.815742E-3
606.528282E-3
606.753731E-3
604.914665E-3
604.592514E-3
604.615402E-3
603.477859E-3
605.608749E-3
605.158424E-3
606.425858E-3
608.116722E-3
608.702660E-3
611.108208E-3
611.347961E-3
612.607384E-3
614.164352E-3
614.637566E-3
616.823959E-3
616.780472E-3
617.352104E-3
618.613815E-3
618.472481E-3
620.147896E-3
619.432068E-3
619.817162E-3
620.393944E-3
620.086098E-3
621.562386E-3
620.480347E-3
620.916939E-3
621.470833E-3
620.928383E-3
622.430992E-3
621.831894E-3
621.964073E-3
622.483063E-3
619.745064E-3
622.588348E-3
622.564316E-3
622.989464E-3
623.646927E-3
623.375702E-3
624.901199E-3
624.416542E-3
624.958992E-3
625.844193E-3
625.650215E-3
627.192879E-3
627.079010E-3
627.565956E-3
627.421188E-3
627.846909E-3
629.458809E-3
629.273415E-3
629.637337E-3
630.409813E-3
629.887390E-3
631.051826E-3
630.615234E-3
630.816078E-3
631.468391E-3
631.024933E-3
632.343864E-3
632.180786E-3
632.723236E-3
633.726311E-3
630.825233E-3
633.888245E-3
634.423256E-3
635.065842E-3
635.712433E-3
634.486771E-3
634.903908E-3
632.574463E-3
628.633118E-3
623.463249E-3
615.256119E-3
608.279228E-3
600.469208E-3
593.909454E-3
589.017677E-3
585.398483E-3
585.066605E-3
584.399414E-3
585.289192E-3
587.804031E-3
589.394760E-3
592.688370E-3
594.724274E-3
596.665764E-3
598.479080E-3
598.908806E-3
600.662041E-3
600.499535E-3
600.561333E-3
600.660324E-3
599.569130E-3
600.413132E-3
600.181961E-3
600.849724E-3
602.196693E-3
602.884483E-3
605.392456E-3
606.015587E-3
606.356621E-3
606.770325E-3
605.584717E-3
605.989838E-3
604.367638E-3
603.702164E-3
603.255844E-3
602.247620E-3
603.374290E-3
603.174019E-3
603.470993E-3
604.479790E-3
604.644585E-3
607.035255E-3
607.825470E-3
608.740997E-3
609.897995E-3
