Notes :


2023-10-26 ¿ÀÈÄ 10:52:22
Volts
Ch : LED 2,
331.945038E-3
332.861710E-3
332.560158E-3
332.306099E-3
333.267975E-3
333.167839E-3
333.912277E-3
333.832169E-3
333.021355E-3
334.113693E-3
333.703423E-3
334.962845E-3
334.973717E-3
334.934807E-3
335.823441E-3
335.461235E-3
336.666298E-3
336.736107E-3
336.694908E-3
337.855339E-3
337.291718E-3
338.247871E-3
338.186646E-3
337.061691E-3
336.336708E-3
333.334923E-3
330.181503E-3
324.985313E-3
318.787193E-3
314.239311E-3
309.266281E-3
307.095909E-3
305.961227E-3
305.455971E-3
307.022667E-3
308.414841E-3
311.170578E-3
313.718033E-3
315.266991E-3
317.849350E-3
318.986320E-3
320.725822E-3
321.352959E-3
320.835686E-3
321.411324E-3
320.815659E-3
321.344948E-3
321.130371E-3
321.046829E-3
322.550011E-3
322.921944E-3
324.216270E-3
324.522972E-3
323.775101E-3
323.510742E-3
322.696495E-3
322.691345E-3
321.564674E-3
320.278358E-3
320.733833E-3
320.199966E-3
320.884323E-3
321.285439E-3
320.921516E-3
322.469902E-3
322.913933E-3
324.260330E-3
324.999619E-3
325.166130E-3
326.527405E-3
326.713943E-3
327.867508E-3
328.334427E-3
328.017426E-3
329.187012E-3
329.142952E-3
330.034447E-3
330.050468E-3
329.443359E-3
330.209541E-3
329.856491E-3
330.614090E-3
330.519676E-3
329.982376E-3
330.590630E-3
330.150032E-3
330.948830E-3
331.072998E-3
330.355453E-3
331.062126E-3
330.712509E-3
331.563950E-3
331.743050E-3
330.846405E-3
331.730461E-3
331.429482E-3
331.911850E-3
332.238579E-3
331.343651E-3
332.592773E-3
332.253456E-3
332.880020E-3
332.897758E-3
332.535553E-3
334.110832E-3
333.548355E-3
334.308243E-3
334.855270E-3
334.385490E-3
336.018562E-3
335.714149E-3
336.383057E-3
336.464310E-3
335.508156E-3
336.279488E-3
334.135437E-3
331.750488E-3
327.488708E-3
321.683693E-3
317.786980E-3
311.742210E-3
308.050346E-3
305.189896E-3
302.364349E-3
304.139900E-3
304.256630E-3
306.643867E-3
308.521271E-3
310.124588E-3
313.564110E-3
314.448166E-3
316.300964E-3
317.209053E-3
317.246246E-3
318.667030E-3
317.597008E-3
317.698860E-3
317.613029E-3
316.290092E-3
318.447304E-3
318.071938E-3
319.375420E-3
320.466614E-3
320.359612E-3
321.644211E-3
320.511246E-3
320.297813E-3
319.508743E-3
318.414688E-3
319.196320E-3
317.678833E-3
317.908287E-3
318.029022E-3
317.761230E-3
319.517326E-3
319.136238E-3
320.099258E-3
321.146393E-3
321.061707E-3
323.270988E-3
323.022079E-3
324.094963E-3
325.112915E-3
325.050545E-3
326.721382E-3
326.088524E-3
326.856995E-3
327.149963E-3
326.661301E-3
328.458595E-3
327.381706E-3
327.576256E-3
327.821159E-3
327.093887E-3
328.530693E-3
327.435493E-3
327.944756E-3
328.048897E-3
327.456093E-3
328.875732E-3
327.982521E-3
328.712654E-3
329.109764E-3
328.266335E-3
329.834175E-3
329.142952E-3
329.592133E-3
329.751205E-3
329.482269E-3
330.788040E-3
329.914856E-3
330.378914E-3
330.953979E-3
329.368973E-3
331.660652E-3
331.008911E-3
331.216621E-3
331.552505E-3
331.147385E-3
332.548714E-3
331.692696E-3
332.320976E-3
332.906914E-3
332.636261E-3
334.027863E-3
333.568954E-3
334.102249E-3
334.760284E-3
334.376335E-3
335.289574E-3
333.398437E-3
331.621742E-3
328.511810E-3
323.556519E-3
318.972015E-3
312.033463E-3
307.159996E-3
303.584862E-3
300.888062E-3
301.016808E-3
300.753021E-3
302.385521E-3
304.354477E-3
306.122017E-3
309.416771E-3
310.383224E-3
312.261200E-3
313.474274E-3
312.444305E-3
314.460182E-3
313.681984E-3
313.886833E-3
313.862228E-3
313.060570E-3
314.059639E-3
313.220215E-3
314.196968E-3
315.493011E-3
315.982246E-3
317.808723E-3
317.223930E-3
317.652512E-3
317.653656E-3
316.654015E-3
317.427063E-3
315.922165E-3
316.093254E-3
316.244316E-3
315.697289E-3
317.238808E-3
316.745567E-3
317.423630E-3
318.569756E-3
318.856430E-3
320.732117E-3
320.578194E-3
321.764946E-3
322.292519E-3
322.233582E-3
324.207687E-3
323.879242E-3
324.323845E-3
325.001907E-3
324.719238E-3
325.921440E-3
325.400162E-3
325.683975E-3
325.736618E-3
325.310898E-3
326.542854E-3
325.972939E-3
326.200104E-3
326.608086E-3
325.292015E-3
327.054977E-3
326.384926E-3
326.923943E-3
327.305031E-3
326.939964E-3
328.223991E-3
327.515030E-3
328.069496E-3
328.457451E-3
328.330421E-3
329.663658E-3
328.780746E-3
329.504013E-3
329.847908E-3
329.649925E-3
330.800056E-3
330.252457E-3
330.368614E-3
330.720520E-3
330.202675E-3
331.594276E-3
330.949402E-3
330.975723E-3
331.366539E-3
330.790901E-3
331.934738E-3
331.438637E-3
331.690407E-3
332.460594E-3
332.167625E-3
333.336067E-3
332.741547E-3
333.428764E-3
333.837891E-3
333.582115E-3
334.717369E-3
333.414459E-3
332.371902E-3
330.422974E-3
326.016426E-3
322.126007E-3
315.736771E-3
310.218430E-3
306.109428E-3
302.258492E-3
301.966095E-3
301.020241E-3
302.061653E-3
304.166794E-3
305.989265E-3
309.193611E-3
310.634995E-3
312.240028E-3
313.986969E-3
314.589500E-3
316.073799E-3
315.494728E-3
315.003204E-3
315.204620E-3
314.135742E-3
314.865875E-3
313.944626E-3
314.714813E-3
315.915298E-3
316.271210E-3
318.143463E-3
317.897415E-3
318.089676E-3
317.824173E-3
316.732979E-3
316.973305E-3
315.595436E-3
315.159988E-3
315.257835E-3
314.659309E-3
315.836906E-3
315.464973E-3
316.217422E-3
317.214203E-3
317.341805E-3
319.195175E-3
319.245529E-3
320.146179E-3
320.755005E-3
320.761871E-3
322.523117E-3
322.300529E-3
322.489929E-3
323.120499E-3
322.744560E-3
323.818016E-3
323.286438E-3
323.485565E-3
323.786545E-3
322.861290E-3
323.963356E-3
323.512459E-3
323.479843E-3
323.822021E-3
322.517395E-3
324.159622E-3
323.793411E-3
323.783112E-3
324.399948E-3
323.504448E-3
324.819374E-3
324.686050E-3
324.703217E-3
325.527763E-3
324.614525E-3
326.036453E-3
325.671959E-3
326.106834E-3
326.487923E-3
325.923157E-3
327.286148E-3
327.088165E-3
327.202606E-3
327.815437E-3
326.746559E-3
328.007698E-3
327.612877E-3
327.401733E-3
327.718163E-3
325.982666E-3
327.686691E-3
327.707291E-3
327.734184E-3
328.539848E-3
327.398872E-3
328.939247E-3
328.974152E-3
329.316330E-3
330.047035E-3
328.926086E-3
330.528259E-3
330.298233E-3
329.744339E-3
328.728104E-3
325.277710E-3
322.920227E-3
317.852211E-3
312.164497E-3
307.646370E-3
302.194977E-3
300.397682E-3
298.920822E-3
298.813820E-3
299.886131E-3
300.652885E-3
304.130745E-3
306.108284E-3
308.178520E-3
310.243607E-3
310.570335E-3
312.789917E-3
313.189888E-3
313.278580E-3
313.688850E-3
312.503815E-3
313.066292E-3
312.610245E-3
312.706375E-3
313.248825E-3
313.115501E-3
315.248680E-3
315.862083E-3
316.109276E-3
316.537285E-3
315.240097E-3
315.993690E-3
315.063286E-3
314.254189E-3
313.826752E-3
313.062286E-3
314.395523E-3
314.588928E-3
314.374924E-3
315.451813E-3
314.947128E-3
316.943550E-3
317.266273E-3
317.792130E-3
318.930817E-3
318.748856E-3
320.716667E-3
320.550156E-3
320.462608E-3
321.096039E-3
320.276642E-3
321.628189E-3
321.434784E-3
321.200752E-3
321.768379E-3
320.829391E-3
322.238159E-3
322.105408E-3
321.685410E-3
322.353745E-3
321.360970E-3
322.524834E-3
322.445869E-3
322.208405E-3
322.787476E-3
322.204399E-3
323.702431E-3
323.682976E-3
323.415756E-3
324.046898E-3
323.566818E-3
324.991035E-3
324.813652E-3
324.525833E-3
325.434494E-3
325.014496E-3
326.359177E-3
326.314545E-3
326.059341E-3
326.719666E-3
326.209831E-3
327.581406E-3
327.329636E-3
327.121353E-3
327.805710E-3
327.580261E-3
328.707504E-3
328.451729E-3
327.829742E-3
328.188515E-3
327.753639E-3
328.715515E-3
328.482628E-3
327.676392E-3
328.650856E-3
328.450012E-3
329.677963E-3
329.443359E-3
329.302025E-3
330.222702E-3
330.322266E-3
331.307602E-3
331.253242E-3
330.701637E-3
330.938530E-3
329.419899E-3
327.894402E-3
323.727036E-3
317.488289E-3
312.820816E-3
306.978035E-3
303.376007E-3
299.932480E-3
297.478294E-3
297.580719E-3
297.763824E-3
300.187111E-3
302.067947E-3
303.899002E-3
306.482506E-3
307.605743E-3
309.783554E-3
310.729980E-3
310.493088E-3
311.068153E-3
310.355186E-3
310.762596E-3
309.963226E-3
308.440018E-3
309.275436E-3
309.174156E-3
310.816383E-3
311.662674E-3
312.471199E-3
314.163780E-3
314.293098E-3
315.436363E-3
314.404106E-3
312.952995E-3
312.574196E-3
311.646080E-3
312.342453E-3
311.912727E-3
311.702728E-3
311.880684E-3
311.528778E-3
312.759590E-3
313.520622E-3
313.676262E-3
314.906502E-3
314.937973E-3
316.361618E-3
316.985321E-3
316.914940E-3
318.078232E-3
317.800713E-3
318.774033E-3
318.834686E-3
318.550873E-3
319.539642E-3
319.025230E-3
319.684410E-3
319.697571E-3
319.070435E-3
319.770813E-3
319.214058E-3
320.127869E-3
319.983101E-3
319.484711E-3
320.417404E-3
320.155907E-3
321.130371E-3
321.035385E-3
320.696640E-3
321.576118E-3
321.169281E-3
322.131157E-3
322.619247E-3
321.948051E-3
322.804642E-3
322.541428E-3
323.618889E-3
323.964500E-3
323.500443E-3
324.358177E-3
324.108124E-3
325.166702E-3
325.665665E-3
325.170708E-3
326.027298E-3
326.070213E-3
326.697350E-3
326.616669E-3
326.287651E-3
327.085876E-3
326.771736E-3
327.577400E-3
327.674675E-3
326.857567E-3
327.763367E-3
327.375412E-3
328.225136E-3
328.573036E-3
328.133583E-3
329.193878E-3
329.070282E-3
330.086517E-3
330.757141E-3
330.084229E-3
330.857277E-3
330.313683E-3
330.764008E-3
329.522324E-3
325.574684E-3
322.085953E-3
316.521263E-3
311.881256E-3
306.744003E-3
301.877403E-3
300.403404E-3
298.689651E-3
299.707031E-3
300.958443E-3
302.037621E-3
305.289459E-3
306.963158E-3
309.888268E-3
311.528206E-3
312.369919E-3
314.458466E-3
314.709663E-3
315.458679E-3
315.352249E-3
314.165497E-3
315.242958E-3
314.007568E-3
314.594078E-3
315.250969E-3
315.184593E-3
317.504883E-3
317.093468E-3
317.864227E-3
317.731476E-3
316.660881E-3
317.682838E-3
315.872383E-3
316.009140E-3
315.267563E-3
314.570045E-3
316.088676E-3
315.466118E-3
316.098404E-3
316.658592E-3
316.719818E-3
318.756294E-3
318.631554E-3
320.144463E-3
321.215057E-3
321.134949E-3
323.193169E-3
322.663879E-3
323.518753E-3
324.219704E-3
323.917580E-3
325.609589E-3
324.641991E-3
325.263405E-3
325.532341E-3
325.008202E-3
326.549149E-3
325.472832E-3
325.732613E-3
325.761223E-3
325.322342E-3
326.719666E-3
325.717163E-3
326.015282E-3
326.397514E-3
325.830460E-3
327.192307E-3
326.132584E-3
326.226425E-3
326.827812E-3
326.321411E-3
327.631760E-3
326.846695E-3
327.341652E-3
327.591705E-3
327.529335E-3
329.062271E-3
328.179359E-3
328.417397E-3
329.150963E-3
328.898048E-3
330.441284E-3
329.806137E-3
329.892540E-3
330.079651E-3
329.875374E-3
331.357956E-3
330.483627E-3
330.892181E-3
331.058693E-3
330.528259E-3
331.809998E-3
330.928802E-3
331.460381E-3
332.150459E-3
331.980515E-3
333.322334E-3
332.595634E-3
332.650566E-3
333.243942E-3
332.522392E-3
334.297371E-3
333.583832E-3
333.647346E-3
333.480263E-3
331.171417E-3
329.534340E-3
324.243164E-3
319.613457E-3
314.423561E-3
309.243965E-3
306.627274E-3
303.251839E-3
303.062439E-3
303.726196E-3
304.359055E-3
307.807159E-3
309.003639E-3
311.581421E-3
314.113998E-3
315.538788E-3
318.038177E-3
318.012428E-3
318.931389E-3
319.495010E-3
319.004631E-3
319.886398E-3
318.965149E-3
319.307899E-3
319.832039E-3
318.925667E-3
320.767593E-3
320.020294E-3
320.386505E-3
320.051765E-3
318.811226E-3
318.935394E-3
316.980743E-3
316.738701E-3
316.561890E-3
315.562248E-3
316.528130E-3
315.983391E-3
316.522408E-3
317.115211E-3
317.168427E-3
318.851280E-3
319.044685E-3
319.985390E-3
320.851135E-3
320.985603E-3
322.675896E-3
322.477913E-3
323.106766E-3
323.919296E-3
323.778534E-3
325.143242E-3
324.296951E-3
324.687767E-3
324.905205E-3
324.241447E-3
325.455666E-3
324.388504E-3
324.667740E-3
324.358749E-3
323.336220E-3
324.838829E-3
323.907280E-3
324.212837E-3
324.207687E-3
324.121284E-3
325.439644E-3
324.474907E-3
324.408531E-3
324.781609E-3
324.445152E-3
325.709724E-3
325.277138E-3
325.315475E-3
325.840187E-3
325.827026E-3
327.384567E-3
326.523972E-3
326.807213E-3
327.682114E-3
327.210045E-3
328.685760E-3
328.086662E-3
328.373337E-3
328.614235E-3
328.085518E-3
329.177284E-3
328.539848E-3
328.692627E-3
329.028511E-3
327.363396E-3
329.188156E-3
328.849411E-3
329.102325E-3
329.706001E-3
329.280281E-3
330.758858E-3
330.158043E-3
330.626678E-3
331.300163E-3
330.808640E-3
332.114410E-3
331.247520E-3
330.866432E-3
329.836464E-3
326.527977E-3
323.670959E-3
317.881966E-3
312.287521E-3
307.604599E-3
302.495384E-3
300.983620E-3
298.705101E-3
298.893356E-3
300.441170E-3
301.543808E-3
304.741287E-3
306.406403E-3
308.691216E-3
311.100197E-3
312.145042E-3
314.317703E-3
314.578056E-3
314.932823E-3
315.379143E-3
314.501381E-3
315.313339E-3
314.409256E-3
314.261055E-3
314.994621E-3
315.014648E-3
316.521263E-3
316.185951E-3
316.371918E-3
316.907501E-3
314.455605E-3
315.904427E-3
314.967155E-3
314.483643E-3
314.401817E-3
313.306046E-3
314.306831E-3
313.946342E-3
314.071083E-3
314.873886E-3
314.603806E-3
316.466331E-3
316.801071E-3
317.439651E-3
318.668175E-3
318.421555E-3
320.194817E-3
320.201683E-3
320.943260E-3
321.982384E-3
321.294594E-3
322.853279E-3
322.425842E-3
322.343445E-3
322.817802E-3
321.123505E-3
322.966576E-3
322.670746E-3
322.595787E-3
323.140526E-3
322.171211E-3
323.278999E-3
322.863007E-3
322.991180E-3
323.351097E-3
322.323990E-3
323.442078E-3
323.113060E-3
323.206902E-3
323.812866E-3
323.004913E-3
324.464035E-3
324.156189E-3
324.307823E-3
324.890900E-3
324.119568E-3
325.429344E-3
325.314331E-3
325.522614E-3
326.002121E-3
325.370979E-3
326.768303E-3
326.505089E-3
326.654434E-3
327.251244E-3
326.300812E-3
327.543640E-3
327.437210E-3
327.290154E-3
327.706718E-3
326.832390E-3
328.215981E-3
327.642632E-3
327.559662E-3
327.889252E-3
327.009773E-3
328.515244E-3
328.242874E-3
327.973366E-3
328.433418E-3
327.615738E-3
329.132652E-3
329.360962E-3
329.135513E-3
329.394722E-3
328.288651E-3
328.574181E-3
326.398087E-3
322.706795E-3
318.376350E-3
312.104416E-3
308.004570E-3
302.898216E-3
298.893356E-3
297.249413E-3
295.672989E-3
297.562408E-3
298.595810E-3
300.101280E-3
302.771759E-3
303.852081E-3
307.172012E-3
308.704948E-3
309.599304E-3
311.064720E-3
310.685921E-3
312.008286E-3
311.519051E-3
310.776329E-3
310.920525E-3
309.780121E-3
311.359978E-3
311.250114E-3
311.098480E-3
312.254906E-3
311.366844E-3
312.692070E-3
312.075806E-3
311.119080E-3
311.036110E-3
309.648514E-3
310.475349E-3
309.733200E-3
309.274864E-3
309.213066E-3
308.799934E-3
310.452461E-3
310.610962E-3
310.599518E-3
311.717606E-3
311.693573E-3
313.423920E-3
313.942909E-3
314.255905E-3
315.380287E-3
315.046692E-3
317.051697E-3
317.304039E-3
317.132950E-3
317.751503E-3
317.183876E-3
318.545151E-3
318.479347E-3
318.033028E-3
318.736267E-3
318.273926E-3
319.671822E-3
319.355392E-3
318.926811E-3
319.404030E-3
318.968582E-3
320.314407E-3
320.071220E-3
319.236946E-3
320.056343E-3
319.693565E-3
320.833397E-3
320.714951E-3
320.533562E-3
321.411896E-3
321.080589E-3
322.285080E-3
322.215843E-3
321.733475E-3
322.338295E-3
322.147751E-3
323.360252E-3
323.126221E-3
