Notes :


2023-11-04 ¿ÀÈÄ 6:59:45
Volts
Ch : LED 2,
463.653946E-3
463.580132E-3
463.783264E-3
463.783264E-3
463.939476E-3
464.020157E-3
464.077950E-3
464.122581E-3
464.167213E-3
464.123726E-3
464.077950E-3
464.070511E-3
464.005852E-3
463.826180E-3
463.613319E-3
463.350105E-3
462.935257E-3
462.694359E-3
461.920166E-3
461.872673E-3
461.845779E-3
461.629486E-3
461.538506E-3
461.428070E-3
461.392593E-3
461.631775E-3
462.701797E-3
464.551163E-3
467.136383E-3
470.338440E-3
473.816299E-3
477.160263E-3
480.059624E-3
482.122993E-3
483.277130E-3
483.495712E-3
482.861137E-3
481.592560E-3
480.061913E-3
478.340149E-3
476.624107E-3
474.967575E-3
473.715019E-3
472.948265E-3
472.305107E-3
471.921730E-3
471.725464E-3
471.825600E-3
471.664238E-3
471.492577E-3
470.896339E-3
470.098686E-3
469.439507E-3
468.957710E-3
468.827820E-3
468.918228E-3
469.293022E-3
469.809151E-3
470.369911E-3
471.049690E-3
471.640205E-3
472.275352E-3
472.430420E-3
472.222137E-3
472.045326E-3
471.588135E-3
471.008492E-3
470.282936E-3
469.460106E-3
468.792343E-3
468.042755E-3
467.330933E-3
466.693497E-3
466.128159E-3
465.716171E-3
465.326500E-3
464.945984E-3
464.766884E-3
464.608955E-3
464.379501E-3
464.281654E-3
464.106560E-3
464.037895E-3
463.972664E-3
463.976097E-3
464.017868E-3
463.959503E-3
463.901711E-3
464.049339E-3
463.941193E-3
463.959503E-3
463.928032E-3
463.998413E-3
463.955498E-3
463.945198E-3
463.952065E-3
463.834763E-3
463.809586E-3
463.634491E-3
463.529778E-3
463.261414E-3
462.825966E-3
462.425995E-3
461.946487E-3
461.880112E-3
461.343384E-3
460.898209E-3
460.783195E-3
460.764885E-3
460.761452E-3
461.235809E-3
462.419701E-3
464.669037E-3
467.718887E-3
471.347809E-3
475.183868E-3
478.841400E-3
481.925011E-3
484.069061E-3
485.256958E-3
485.358810E-3
484.527969E-3
483.457375E-3
481.501007E-3
479.519463E-3
477.681541E-3
476.039886E-3
474.921799E-3
473.919868E-3
473.490143E-3
473.328209E-3
473.282433E-3
473.473549E-3
473.832321E-3
474.149895E-3
474.318695E-3
474.084663E-3
473.653793E-3
473.080444E-3
472.674179E-3
472.536278E-3
472.600365E-3
472.780609E-3
473.119926E-3
473.497581E-3
473.852921E-3
474.165916E-3
474.335289E-3
474.241447E-3
474.186516E-3
473.843765E-3
473.494148E-3
473.054695E-3
472.491646E-3
471.796417E-3
471.004486E-3
470.213699E-3
469.464111E-3
468.712234E-3
467.998695E-3
467.338371E-3
466.728401E-3
466.335297E-3
466.034317E-3
465.652657E-3
465.444374E-3
465.247536E-3
465.034103E-3
464.797211E-3
464.603806E-3
464.493370E-3
464.310265E-3
464.293098E-3
464.125443E-3
463.960648E-3
463.921165E-3
463.871956E-3
463.784981E-3
463.717461E-3
463.658524E-3
463.672256E-3
463.536644E-3
463.428497E-3
463.394165E-3
463.165855E-3
462.950706E-3
462.676048E-3
462.365913E-3
461.983681E-3
461.467552E-3
461.050987E-3
460.608101E-3
460.271645E-3
459.817886E-3
459.397888E-3
459.075165E-3
458.901787E-3
458.872032E-3
459.049416E-3
459.990120E-3
461.880112E-3
464.374352E-3
467.908859E-3
471.607018E-3
475.353813E-3
478.581619E-3
481.003189E-3
482.352448E-3
482.601929E-3
482.007980E-3
480.875015E-3
478.914070E-3
477.034950E-3
475.092316E-3
473.382568E-3
471.945190E-3
470.745850E-3
470.121002E-3
469.720459E-3
469.298172E-3
469.488144E-3
469.654083E-3
469.832039E-3
469.655800E-3
469.215202E-3
468.581772E-3
468.002129E-3
467.442513E-3
467.201614E-3
467.096329E-3
467.337227E-3
467.652512E-3
468.138885E-3
468.662453E-3
469.051552E-3
469.299316E-3
469.238663E-3
469.199181E-3
468.894196E-3
468.376350E-3
467.851639E-3
467.039108E-3
466.403961E-3
465.633202E-3
464.932251E-3
464.332008E-3
463.495445E-3
462.891769E-3
462.335014E-3
461.912155E-3
461.518478E-3
461.121941E-3
460.822105E-3
460.442162E-3
460.374641E-3
460.285950E-3
460.213280E-3
460.095406E-3
460.005569E-3
459.941483E-3
459.897423E-3
459.745789E-3
459.782982E-3
459.819031E-3
459.854507E-3
459.830475E-3
459.885979E-3
459.952354E-3
459.926605E-3
459.781837E-3
459.758377E-3
459.290886E-3
459.294891E-3
459.035683E-3
458.902931E-3
458.661461E-3
458.321571E-3
458.077240E-3
457.765388E-3
457.380295E-3
456.878471E-3
456.796074E-3
456.773758E-3
456.578064E-3
456.554604E-3
456.843567E-3
457.830048E-3
459.875679E-3
462.781334E-3
466.129303E-3
469.759941E-3
473.144531E-3
476.232719E-3
478.253174E-3
479.276276E-3
479.288292E-3
478.487778E-3
477.117348E-3
475.196457E-3
473.378563E-3
471.548653E-3
469.896698E-3
468.701935E-3
467.646217E-3
467.021942E-3
466.668892E-3
466.580200E-3
466.668320E-3
466.658592E-3
466.667175E-3
466.280365E-3
465.702438E-3
465.112495E-3
464.844131E-3
464.921379E-3
464.844704E-3
465.135384E-3
465.709305E-3
466.331291E-3
466.967010E-3
467.701149E-3
467.988968E-3
468.208694E-3
468.347168E-3
467.904854E-3
467.507744E-3
466.881752E-3
466.367340E-3
465.590858E-3
464.832687E-3
464.035034E-3
463.232231E-3
462.600517E-3
462.019157E-3
461.515045E-3
461.239243E-3
460.936546E-3
460.682487E-3
460.391235E-3
460.261345E-3
460.114288E-3
460.129166E-3
459.976387E-3
459.923172E-3
459.849358E-3
459.868813E-3
459.835052E-3
459.793854E-3
459.774971E-3
459.823608E-3
459.865379E-3
459.890556E-3
459.876251E-3
459.927177E-3
459.990120E-3
459.966660E-3
459.987831E-3
459.972954E-3
459.847069E-3
459.811592E-3
459.602165E-3
459.440804E-3
459.103775E-3
458.798218E-3
458.460045E-3
458.165359E-3
457.756805E-3
457.450104E-3
457.044411E-3
456.872749E-3
456.826973E-3
456.843567E-3
457.479858E-3
459.013939E-3
461.509323E-3
464.822960E-3
468.469620E-3
472.331429E-3
475.905991E-3
478.722382E-3
480.668449E-3
481.455803E-3
481.275558E-3
480.230713E-3
478.882027E-3
476.895905E-3
474.886894E-3
473.066711E-3
471.607018E-3
470.297241E-3
469.524193E-3
469.058990E-3
468.919945E-3
469.065857E-3
469.131660E-3
469.378853E-3
469.567680E-3
469.414330E-3
468.907356E-3
468.240738E-3
467.716026E-3
467.265129E-3
467.383003E-3
467.266846E-3
467.440224E-3
467.955780E-3
468.235016E-3
468.735695E-3
469.084740E-3
469.377136E-3
469.448662E-3
469.425201E-3
469.036674E-3
468.511963E-3
467.966652E-3
467.282295E-3
466.567039E-3
465.811157E-3
465.137100E-3
464.431000E-3
463.885117E-3
463.282585E-3
462.827682E-3
462.494087E-3
462.129593E-3
461.995125E-3
461.762238E-3
461.686707E-3
461.543083E-3
461.481857E-3
461.516190E-3
461.368561E-3
461.358833E-3
461.354256E-3
461.260414E-3
461.262131E-3
461.220932E-3
461.139679E-3
461.144257E-3
461.127663E-3
461.080170E-3
460.942268E-3
460.791206E-3
460.795784E-3
460.734558E-3
460.531998E-3
460.566902E-3
460.530853E-3
460.375786E-3
460.154343E-3
459.955788E-3
459.710312E-3
459.478569E-3
459.140968E-3
458.610535E-3
458.370209E-3
457.991982E-3
457.721329E-3
457.368279E-3
456.991768E-3
456.872749E-3
456.725121E-3
456.864166E-3
457.487297E-3
458.579636E-3
460.802078E-3
463.873672E-3
467.499733E-3
471.473694E-3
475.133514E-3
478.224564E-3
480.409813E-3
481.204605E-3
481.230354E-3
480.312538E-3
478.873444E-3
476.981163E-3
474.965286E-3
473.141670E-3
471.508026E-3
470.213127E-3
469.278717E-3
468.725395E-3
468.385506E-3
468.254471E-3
468.417549E-3
468.666458E-3
468.728256E-3
468.525124E-3
467.966652E-3
466.997910E-3
466.455460E-3
466.033745E-3
465.900421E-3
465.926743E-3
466.176796E-3
466.563606E-3
467.016220E-3
467.448807E-3
468.036461E-3
468.103409E-3
468.069649E-3
467.872238E-3
467.627907E-3
467.156982E-3
466.542435E-3
465.736771E-3
464.946556E-3
464.199257E-3
463.512611E-3
462.948418E-3
462.309265E-3
461.816025E-3
461.365128E-3
460.918808E-3
460.691071E-3
460.475922E-3
460.118866E-3
459.986115E-3
459.855652E-3
459.665108E-3
459.502602E-3
459.448814E-3
459.405327E-3
459.354401E-3
459.352684E-3
459.219360E-3
459.206772E-3
459.196472E-3
459.194183E-3
459.149551E-3
458.971024E-3
458.890343E-3
458.518982E-3
458.668327E-3
458.574486E-3
458.536148E-3
458.441162E-3
458.404541E-3
458.172798E-3
458.065796E-3
457.850647E-3
457.478714E-3
457.384872E-3
457.085609E-3
456.817818E-3
456.445885E-3
456.031609E-3
455.764389E-3
455.451965E-3
455.126381E-3
454.589653E-3
454.615402E-3
454.610825E-3
454.550171E-3
454.549599E-3
454.809380E-3
455.930328E-3
458.165359E-3
461.115074E-3
464.955711E-3
468.473053E-3
471.924019E-3
474.856567E-3
476.646423E-3
477.594566E-3
477.472115E-3
476.577187E-3
475.035095E-3
473.121643E-3
471.253967E-3
469.404030E-3
467.807007E-3
466.498375E-3
465.526199E-3
464.921379E-3
464.591789E-3
464.518547E-3
464.677048E-3
464.773178E-3
464.663887E-3
464.318848E-3
463.819885E-3
463.279152E-3
462.908363E-3
462.908936E-3
463.059425E-3
463.485718E-3
464.085960E-3
464.649582E-3
465.378571E-3
465.937042E-3
466.303825E-3
466.513252E-3
466.687775E-3
466.226006E-3
465.589142E-3
465.114784E-3
464.513969E-3
463.752365E-3
463.066864E-3
462.397385E-3
461.786842E-3
461.477280E-3
460.743713E-3
460.253906E-3
459.821892E-3
459.501457E-3
459.335518E-3
459.078598E-3
458.973312E-3
458.874893E-3
458.484650E-3
458.611679E-3
458.592224E-3
458.632851E-3
458.668327E-3
458.674049E-3
458.675194E-3
458.679771E-3
458.695221E-3
458.820534E-3
458.635139E-3
458.652878E-3
458.632278E-3
458.612251E-3
458.588791E-3
458.635712E-3
458.694077E-3
458.559608E-3
458.533287E-3
458.449745E-3
458.246040E-3
458.173943E-3
457.974243E-3
457.796860E-3
457.614326E-3
457.490158E-3
457.119942E-3
456.760597E-3
456.562614E-3
456.112289E-3
455.781555E-3
455.605888E-3
455.565834E-3
455.549812E-3
455.371284E-3
456.045914E-3
457.644081E-3
460.092545E-3
463.305473E-3
467.076874E-3
471.046829E-3
474.579620E-3
477.319336E-3
478.936958E-3
479.914856E-3
479.723740E-3
478.859711E-3
477.314758E-3
475.604439E-3
473.763657E-3
471.940041E-3
470.619965E-3
469.567108E-3
468.782043E-3
468.209267E-3
467.970085E-3
467.915154E-3
468.150902E-3
468.422127E-3
468.509102E-3
468.348312E-3
467.927170E-3
467.254829E-3
466.639709E-3
466.250610E-3
466.153336E-3
466.328430E-3
466.648865E-3
467.088318E-3
467.601013E-3
468.180084E-3
468.568611E-3
468.772888E-3
468.823242E-3
468.637276E-3
468.222427E-3
467.717743E-3
466.991043E-3
466.381073E-3
465.674400E-3
464.981461E-3
464.326286E-3
463.631058E-3
463.096046E-3
462.535286E-3
462.127876E-3
461.786270E-3
461.469269E-3
461.279297E-3
461.095047E-3
460.969734E-3
460.953140E-3
460.828972E-3
460.832977E-3
460.724831E-3
460.665894E-3
460.756302E-3
460.625839E-3
460.636711E-3
460.659599E-3
460.705948E-3
460.669327E-3
460.506821E-3
460.473633E-3
460.449028E-3
460.284233E-3
460.250473E-3
460.146904E-3
459.950638E-3
459.830475E-3
459.615326E-3
459.518051E-3
459.345818E-3
459.361267E-3
459.150124E-3
458.844566E-3
458.747864E-3
458.609962E-3
458.484077E-3
458.211136E-3
458.034897E-3
457.920456E-3
457.774544E-3
457.440948E-3
457.136536E-3
456.799507E-3
456.612396E-3
456.265640E-3
456.073380E-3
455.970955E-3
456.121445E-3
456.387520E-3
457.061577E-3
458.580208E-3
461.299896E-3
464.764023E-3
468.742561E-3
472.770309E-3
476.483917E-3
479.482841E-3
481.640053E-3
482.280922E-3
481.989098E-3
480.988884E-3
479.409599E-3
477.643204E-3
475.778961E-3
474.021721E-3
472.459602E-3
471.287155E-3
470.609093E-3
470.293236E-3
470.225143E-3
470.322418E-3
470.676613E-3
471.015358E-3
471.351242E-3
471.303177E-3
470.912361E-3
470.281792E-3
469.551659E-3
469.042969E-3
468.593216E-3
468.532562E-3
468.626976E-3
468.984604E-3
469.504738E-3
469.842339E-3
470.207977E-3
470.490646E-3
470.631981E-3
470.552444E-3
470.225143E-3
469.811440E-3
469.056129E-3
468.526268E-3
467.742348E-3
467.011070E-3
466.299820E-3
465.517044E-3
464.875031E-3
464.383507E-3
463.917160E-3
463.299179E-3
463.096619E-3
462.950134E-3
462.732697E-3
462.458038E-3
462.369347E-3
462.300682E-3
462.159920E-3
462.057495E-3
462.029457E-3
461.916161E-3
461.738777E-3
461.596298E-3
461.636353E-3
461.557961E-3
461.527634E-3
461.462975E-3
461.309052E-3
461.258125E-3
460.974884E-3
460.827827E-3
460.701370E-3
460.556030E-3
460.362053E-3
460.145760E-3
459.891129E-3
459.827614E-3
459.670258E-3
459.471703E-3
459.259987E-3
459.093475E-3
458.946419E-3
458.675766E-3
458.498955E-3
458.252907E-3
457.959938E-3
457.743073E-3
457.396889E-3
457.086754E-3
456.710243E-3
456.387520E-3
456.153488E-3
455.803871E-3
455.544662E-3
455.475998E-3
455.451965E-3
455.467987E-3
455.634499E-3
456.405258E-3
458.057213E-3
460.781479E-3
464.279366E-3
468.077660E-3
471.909714E-3
475.123787E-3
477.699280E-3
479.255104E-3
479.617882E-3
479.190445E-3
478.001404E-3
476.369476E-3
474.637413E-3
472.856140E-3
471.243095E-3
469.818306E-3
468.937683E-3
468.238449E-3
467.857933E-3
467.729759E-3
467.848778E-3
467.930031E-3
468.395805E-3
468.550301E-3
468.427849E-3
467.843056E-3
467.104912E-3
466.403389E-3
465.892410E-3
465.742493E-3
465.999985E-3
466.136169E-3
466.587639E-3
467.057419E-3
467.411041E-3
467.679405E-3
467.849350E-3
467.879677E-3
467.481995E-3
467.017937E-3
466.371918E-3
465.799141E-3
465.128517E-3
464.361191E-3
463.858223E-3
463.232803E-3
462.546158E-3
462.290955E-3
462.032890E-3
461.840630E-3
461.656952E-3
461.520767E-3
461.493301E-3
461.399460E-3
461.484146E-3
461.112785E-3
461.042404E-3
461.047554E-3
460.903358E-3
460.922813E-3
460.914803E-3
460.922813E-3
460.934830E-3
460.913086E-3
460.640144E-3
460.616684E-3
460.467339E-3
460.489655E-3
460.431862E-3
460.301971E-3
460.189819E-3
460.075378E-3
460.143471E-3
459.891129E-3
459.852219E-3
459.718323E-3
459.635353E-3
459.579849E-3
459.403038E-3
459.264565E-3
459.098625E-3
458.907509E-3
458.632278E-3
458.526421E-3
458.250046E-3
457.966232E-3
457.736778E-3
457.527351E-3
457.176590E-3
456.892776E-3
456.710243E-3
456.451035E-3
456.602669E-3
456.617546E-3
456.678200E-3
457.151413E-3
458.262634E-3
460.523415E-3
463.649940E-3
467.302895E-3
470.982742E-3
474.477196E-3
477.357674E-3
479.219627E-3
480.103683E-3
480.056190E-3
479.102325E-3
477.537918E-3
475.980949E-3
474.251175E-3
472.579765E-3
471.141815E-3
469.994545E-3
469.125938E-3
468.664742E-3
468.402672E-3
468.198395E-3
468.469620E-3
468.708801E-3
468.947983E-3
468.877602E-3
468.368340E-3
467.762375E-3
467.138672E-3
466.755867E-3
466.661453E-3
466.865730E-3
467.262268E-3
467.753220E-3
468.402100E-3
468.915367E-3
469.233513E-3
469.444084E-3
469.364548E-3
468.980026E-3
468.851852E-3
468.228722E-3
467.757797E-3
467.154694E-3
466.470337E-3
465.767670E-3
464.981461E-3
464.330292E-3
463.819313E-3
463.126945E-3
462.627411E-3
462.265778E-3
461.977386E-3
461.850357E-3
461.508179E-3
461.390877E-3
461.318779E-3
461.196327E-3
461.220932E-3
461.112213E-3
461.232376E-3
461.246109E-3
461.259270E-3
461.248398E-3
461.256981E-3
461.263847E-3
461.202049E-3
461.250687E-3
461.192894E-3
461.232376E-3
461.110497E-3
460.931969E-3
460.816383E-3
460.689354E-3
460.505676E-3
460.373497E-3
460.079384E-3
459.830475E-3
459.546661E-3
459.251404E-3
459.048843E-3
458.892059E-3
459.011650E-3
458.710670E-3
458.583641E-3
