Notes :


2023-10-27 ¿ÀÈÄ 11:51:50
Volts
Ch : LED 2,Ch : LED 3,
419.135857E-3,396.947479E-3
417.469597E-3,395.228577E-3
417.622375E-3,395.314980E-3
418.083000E-3,395.731544E-3
416.999245E-3,395.007706E-3
418.008614E-3,396.312332E-3
416.627884E-3,394.782257E-3
417.053032E-3,395.369339E-3
416.953468E-3,395.578194E-3
416.338348E-3,394.872093E-3
417.959404E-3,396.457100E-3
416.229630E-3,394.651794E-3
416.331482E-3,394.833755E-3
416.249084E-3,395.096397E-3
415.471458E-3,394.449234E-3
417.229843E-3,396.081734E-3
415.382195E-3,394.632912E-3
415.339851E-3,394.845772E-3
415.551567E-3,395.096397E-3
413.687897E-3,394.389153E-3
415.676308E-3,395.436859E-3
414.200592E-3,394.083595E-3
415.341568E-3,394.840622E-3
416.823578E-3,395.335579E-3
418.630028E-3,395.677757E-3
423.400497E-3,398.788834E-3
424.939156E-3,398.243523E-3
428.028488E-3,399.477196E-3
431.216812E-3,400.733185E-3
432.535744E-3,400.844765E-3
435.450554E-3,402.794266E-3
434.433174E-3,401.600647E-3
434.933853E-3,401.782036E-3
434.456062E-3,401.783752E-3
432.444191E-3,400.928307E-3
432.467079E-3,401.738548E-3
429.809189E-3,399.978447E-3
429.160309E-3,399.988747E-3
428.423882E-3,399.668884E-3
427.067757E-3,398.907852E-3
428.421593E-3,400.387001E-3
426.421165E-3,398.863220E-3
426.980209E-3,399.131584E-3
427.574730E-3,399.629402E-3
426.905251E-3,398.808861E-3
428.322601E-3,399.691200E-3
427.276611E-3,398.799706E-3
427.971268E-3,399.417114E-3
427.883720E-3,399.611664E-3
427.226830E-3,398.861504E-3
427.875710E-3,400.033951E-3
425.733948E-3,398.271561E-3
425.200653E-3,398.324203E-3
425.176048E-3,398.270416E-3
424.522018E-3,397.790909E-3
426.149940E-3,399.390793E-3
424.937439E-3,397.915649E-3
425.587463E-3,398.450661E-3
426.422882E-3,398.715019E-3
425.878716E-3,398.150826E-3
427.513504E-3,399.736977E-3
425.959969E-3,398.330498E-3
426.188850E-3,398.281860E-3
426.110458E-3,398.535919E-3
425.184059E-3,397.922516E-3
425.785446E-3,398.741913E-3
424.087143E-3,397.627258E-3
424.289703E-3,397.909355E-3
423.599052E-3,397.806358E-3
422.573662E-3,395.943832E-3
423.466301E-3,398.052979E-3
421.739388E-3,396.466255E-3
421.622086E-3,396.627045E-3
421.676445E-3,396.954918E-3
420.742607E-3,396.395874E-3
422.154808E-3,397.827530E-3
420.735168E-3,396.514893E-3
420.567513E-3,396.566391E-3
420.556641E-3,396.782112E-3
419.898033E-3,395.821953E-3
420.605850E-3,396.910286E-3
419.459724E-3,395.487213E-3
419.958115E-3,396.225357E-3
419.828796E-3,396.307182E-3
419.035721E-3,395.609665E-3
420.402145E-3,396.919441E-3
419.248009E-3,395.523834E-3
419.516373E-3,395.960999E-3
419.434547E-3,396.347237E-3
418.119049E-3,395.581055E-3
420.042229E-3,397.000122E-3
418.960190E-3,395.786476E-3
419.058037E-3,395.804787E-3
419.304657E-3,395.967293E-3
416.932869E-3,395.318985E-3
418.712425E-3,396.337509E-3
417.736244E-3,395.048332E-3
418.176842E-3,395.571899E-3
418.321609E-3,395.493507E-3
417.752838E-3,394.813728E-3
419.045448E-3,396.268272E-3
417.466736E-3,395.067215E-3
417.350578E-3,395.216560E-3
417.473602E-3,395.318985E-3
416.669655E-3,394.508171E-3
418.013191E-3,396.247673E-3
416.641617E-3,394.786835E-3
417.010117E-3,394.956207E-3
416.962051E-3,395.274925E-3
414.973640E-3,394.614029E-3
416.674232E-3,395.380211E-3
415.755844E-3,394.339371E-3
416.057968E-3,394.593430E-3
416.218758E-3,394.604301E-3
415.521240E-3,394.004059E-3
417.102242E-3,395.827675E-3
415.555573E-3,394.548798E-3
415.496063E-3,394.587708E-3
415.311813E-3,394.399452E-3
414.498711E-3,393.646431E-3
415.154457E-3,394.909286E-3
414.114189E-3,393.554878E-3
414.219475E-3,393.969154E-3
414.436913E-3,394.133377E-3
414.186859E-3,393.660736E-3
416.730309E-3,395.438576E-3
417.019844E-3,394.927597E-3
419.352150E-3,395.761299E-3
422.725868E-3,397.366905E-3
425.384903E-3,397.667313E-3
430.155373E-3,400.049400E-3
431.865692E-3,400.180435E-3
434.117317E-3,401.317978E-3
435.474014E-3,401.788330E-3
435.408783E-3,399.392509E-3
436.532021E-3,401.683617E-3
434.531021E-3,401.134872E-3
433.747101E-3,400.732040E-3
432.912254E-3,400.856209E-3
430.805969E-3,399.492073E-3
431.443977E-3,400.832748E-3
429.237556E-3,399.399948E-3
428.588676E-3,399.064636E-3
428.545189E-3,398.405457E-3
427.701759E-3,397.893906E-3
428.955460E-3,399.407959E-3
428.071976E-3,398.754501E-3
428.755760E-3,398.874092E-3
429.334831E-3,399.252319E-3
429.170036E-3,398.810005E-3
430.486107E-3,399.976158E-3
429.306221E-3,398.922729E-3
429.144859E-3,399.070930E-3
429.400063E-3,399.126434E-3
426.648903E-3,398.205185E-3
428.166962E-3,399.460030E-3
426.355934E-3,398.008919E-3
425.772285E-3,398.126221E-3
426.187706E-3,398.328781E-3
425.284195E-3,397.507668E-3
426.742172E-3,398.624039E-3
426.092148E-3,397.911072E-3
426.472664E-3,397.722816E-3
426.893806E-3,398.069000E-3
426.072693E-3,397.295952E-3
427.161026E-3,398.598289E-3
426.033211E-3,397.635269E-3
425.996590E-3,397.524261E-3
426.011467E-3,397.970581E-3
425.011253E-3,397.093391E-3
426.218033E-3,398.399162E-3
424.651909E-3,397.091103E-3
424.072838E-3,396.669388E-3
424.170113E-3,397.231865E-3
422.710991E-3,396.170425E-3
423.389626E-3,397.082520E-3
422.220612E-3,396.089745E-3
421.985435E-3,396.160126E-3
422.227478E-3,396.579552E-3
421.151161E-3,394.940186E-3
422.350502E-3,396.416473E-3
421.587181E-3,395.786476E-3
421.080208E-3,395.813942E-3
421.747398E-3,396.371269E-3
420.597839E-3,394.887543E-3
421.895599E-3,396.552086E-3
420.678520E-3,395.657730E-3
420.693398E-3,395.325851E-3
420.627022E-3,395.456886E-3
419.838524E-3,394.319344E-3
420.701408E-3,395.695496E-3
419.822502E-3,395.047188E-3
419.882584E-3,394.969368E-3
420.205307E-3,395.600510E-3
419.321251E-3,394.323921E-3
420.709991E-3,396.148109E-3
419.606209E-3,395.237732E-3
419.619370E-3,395.070076E-3
419.333267E-3,395.678902E-3
416.837883E-3,394.400024E-3
419.041443E-3,395.713806E-3
418.460655E-3,395.149612E-3
418.370819E-3,395.210266E-3
418.754768E-3,395.501518E-3
417.493057E-3,393.913651E-3
418.514442E-3,395.113564E-3
417.637825E-3,394.142532E-3
417.253876E-3,394.371986E-3
417.620087E-3,394.890976E-3
416.398430E-3,393.255615E-3
418.398857E-3,395.079231E-3
417.209244E-3,394.409180E-3
416.761780E-3,394.262123E-3
417.692757E-3,395.244026E-3
416.194153E-3,393.545151E-3
417.794609E-3,394.947052E-3
416.745186E-3,394.387436E-3
416.090584E-3,393.854713E-3
416.358376E-3,394.265556E-3
415.173340E-3,392.972374E-3
416.155243E-3,393.677330E-3
415.278053E-3,393.465042E-3
415.267754E-3,393.384361E-3
415.577888E-3,394.029236E-3
414.042664E-3,392.518616E-3
415.792465E-3,394.088745E-3
415.006828E-3,393.479347E-3
414.543343E-3,393.091393E-3
414.643478E-3,393.759155E-3
414.171410E-3,392.568398E-3
416.462517E-3,394.216347E-3
418.160248E-3,394.460678E-3
420.974922E-3,395.265198E-3
424.476242E-3,396.928024E-3
426.678085E-3,396.822166E-3
430.855179E-3,399.187088E-3
432.461357E-3,399.593353E-3
434.000015E-3,399.794769E-3
435.421371E-3,400.803566E-3
434.009743E-3,398.730469E-3
435.134125E-3,401.106834E-3
433.499908E-3,400.270271E-3
432.056808E-3,399.416542E-3
431.131554E-3,399.522400E-3
428.447914E-3,397.638130E-3
428.639030E-3,398.932457E-3
427.187920E-3,397.930527E-3
426.900673E-3,397.707367E-3
427.103806E-3,397.933960E-3
425.648689E-3,396.184731E-3
427.345276E-3,397.816086E-3
426.947594E-3,397.549438E-3
427.539825E-3,397.441864E-3
428.530884E-3,397.369194E-3
427.208519E-3,396.583557E-3
428.835869E-3,398.814011E-3
427.990723E-3,398.218918E-3
427.075195E-3,397.582054E-3
426.621437E-3,397.706223E-3
424.463081E-3,396.278000E-3
425.037003E-3,397.174644E-3
424.417305E-3,396.715736E-3
424.417305E-3,396.519470E-3
425.141144E-3,397.003555E-3
424.230766E-3,396.148109E-3
426.206589E-3,397.950554E-3
425.914192E-3,397.135162E-3
425.642967E-3,396.719170E-3
426.244354E-3,397.452736E-3
424.923706E-3,395.998764E-3
426.277542E-3,397.747993E-3
425.204086E-3,397.220421E-3
424.381256E-3,396.965790E-3
424.520302E-3,396.893692E-3
422.784805E-3,395.567322E-3
423.877144E-3,397.016716E-3
423.058319E-3,396.536636E-3
422.296143E-3,395.670891E-3
422.275543E-3,396.076012E-3
420.703125E-3,394.857216E-3
421.453857E-3,396.222496E-3
420.540619E-3,395.624542E-3
420.494270E-3,394.965363E-3
420.962334E-3,395.702934E-3
419.452858E-3,394.440079E-3
420.992088E-3,396.257973E-3
420.297432E-3,395.709801E-3
419.599915E-3,395.027733E-3
420.054245E-3,395.523834E-3
418.431473E-3,394.119644E-3
420.252228E-3,396.224213E-3
419.248581E-3,395.511246E-3
419.190788E-3,394.933319E-3
419.371033E-3,395.276642E-3
418.131065E-3,393.980598E-3
419.741249E-3,395.959854E-3
418.905258E-3,395.030594E-3
418.502426E-3,394.569397E-3
418.640900E-3,395.079803E-3
417.425537E-3,393.426704E-3
418.876648E-3,394.933891E-3
418.325615E-3,394.524765E-3
417.737389E-3,393.728256E-3
418.157959E-3,394.660378E-3
416.798973E-3,393.375778E-3
417.927361E-3,394.956207E-3
417.835808E-3,394.712448E-3
416.774368E-3,393.586922E-3
417.278481E-3,394.472694E-3
415.912628E-3,393.376350E-3
417.962265E-3,395.324707E-3
416.955757E-3,394.509888E-3
416.551208E-3,393.677902E-3
416.738319E-3,394.406891E-3
415.157318E-3,393.347168E-3
416.539192E-3,394.806290E-3
416.130066E-3,394.147110E-3
415.359306E-3,393.378639E-3
415.606499E-3,393.722534E-3
414.559364E-3,392.712021E-3
415.770149E-3,394.099617E-3
415.168762E-3,394.066429E-3
414.092445E-3,392.710876E-3
414.602280E-3,393.608093E-3
413.526535E-3,392.936897E-3
415.155029E-3,394.276428E-3
414.034653E-3,393.566895E-3
413.377762E-3,392.711449E-3
414.103889E-3,393.376923E-3
413.782310E-3,392.841339E-3
416.680527E-3,394.739342E-3
418.081284E-3,394.669533E-3
420.282555E-3,395.189095E-3
424.187279E-3,396.965218E-3
426.270103E-3,397.285652E-3
430.549049E-3,399.369621E-3
432.726860E-3,400.306320E-3
433.232689E-3,399.696922E-3
434.819412E-3,400.981522E-3
433.800888E-3,400.200462E-3
434.949303E-3,401.342583E-3
432.810974E-3,400.470543E-3
430.817986E-3,399.072647E-3
430.145073E-3,399.363327E-3
428.235054E-3,398.538780E-3
428.851891E-3,399.361038E-3
427.380180E-3,398.476982E-3
426.434326E-3,397.496796E-3
426.688957E-3,397.940254E-3
425.709343E-3,397.121429E-3
427.038002E-3,398.209190E-3
427.182198E-3,398.264122E-3
426.585388E-3,397.397232E-3
427.684021E-3,398.511314E-3
427.360725E-3,397.723389E-3
428.752327E-3,399.389076E-3
427.401352E-3,398.350525E-3
425.681877E-3,397.608948E-3
425.994873E-3,398.020935E-3
424.439049E-3,396.934891E-3
424.950027E-3,397.990608E-3
423.964691E-3,397.249031E-3
423.071480E-3,396.492004E-3
424.237061E-3,396.976662E-3
423.575592E-3,396.321487E-3
425.242996E-3,397.488785E-3
425.106812E-3,397.437859E-3
424.506569E-3,396.666527E-3
425.259018E-3,397.483063E-3
424.467087E-3,396.833611E-3
425.668144E-3,398.074150E-3
424.511719E-3,397.055626E-3
423.545837E-3,396.517754E-3
423.700333E-3,396.926880E-3
422.364807E-3,396.168709E-3
422.914696E-3,396.702003E-3
422.392273E-3,396.549797E-3
421.050453E-3,395.232010E-3
421.186066E-3,396.022797E-3
420.050812E-3,395.015144E-3
421.069908E-3,395.766449E-3
420.342064E-3,395.409393E-3
419.123268E-3,393.754578E-3
419.735527E-3,394.996262E-3
418.903542E-3,394.595718E-3
420.115471E-3,395.656013E-3
419.318390E-3,394.757652E-3
418.692970E-3,393.986320E-3
419.207382E-3,395.000839E-3
418.146515E-3,393.904495E-3
418.973351E-3,394.813156E-3
418.857193E-3,394.867516E-3
417.753410E-3,393.946838E-3
418.343925E-3,394.748497E-3
417.648697E-3,393.806076E-3
418.921852E-3,395.134163E-3
418.406296E-3,394.798851E-3
416.852760E-3,394.116211E-3
418.017197E-3,394.422913E-3
417.122841E-3,393.908501E-3
418.726158E-3,395.019150E-3
417.937660E-3,394.628334E-3
417.105675E-3,393.961716E-3
417.727661E-3,394.440079E-3
416.568947E-3,393.592644E-3
417.111969E-3,394.240952E-3
416.728020E-3,393.882179E-3
415.853119E-3,392.915154E-3
416.446495E-3,393.162918E-3
415.607643E-3,392.722321E-3
416.342354E-3,394.040680E-3
415.988731E-3,394.102478E-3
414.909554E-3,392.821312E-3
415.763855E-3,393.451309E-3
414.882088E-3,392.897415E-3
416.155815E-3,394.133377E-3
415.259743E-3,393.480492E-3
414.617729E-3,392.841911E-3
415.314102E-3,393.532562E-3
414.238930E-3,393.139458E-3
415.316391E-3,394.096756E-3
414.842606E-3,393.188095E-3
413.875580E-3,392.580986E-3
414.197159E-3,393.541145E-3
413.492775E-3,392.707443E-3
414.194298E-3,393.310547E-3
414.019775E-3,393.023872E-3
413.025284E-3,392.028236E-3
413.658714E-3,392.963791E-3
412.473679E-3,392.156410E-3
413.313103E-3,392.807007E-3
413.107681E-3,392.825890E-3
412.096596E-3,391.018295E-3
413.395500E-3,392.319489E-3
413.342857E-3,391.809654E-3
415.717506E-3,393.533134E-3
417.704201E-3,394.301033E-3
419.944954E-3,394.485855E-3
424.017906E-3,396.540642E-3
426.557922E-3,396.970940E-3
430.750465E-3,399.109840E-3
432.524300E-3,399.567032E-3
433.541679E-3,399.557877E-3
434.963608E-3,400.483131E-3
434.064102E-3,399.866295E-3
434.305573E-3,400.782394E-3
432.687950E-3,399.910927E-3
430.697250E-3,398.836327E-3
430.090141E-3,399.242020E-3
428.314018E-3,397.830391E-3
428.377533E-3,398.468399E-3
427.219963E-3,398.142242E-3
426.048660E-3,396.802711E-3
427.037430E-3,397.444153E-3
426.095009E-3,397.030449E-3
427.146721E-3,397.825813E-3
427.681160E-3,398.182297E-3
426.823997E-3,396.846771E-3
428.310585E-3,397.859001E-3
427.712631E-3,397.445869E-3
428.618431E-3,398.242950E-3
428.393555E-3,398.201180E-3
426.635742E-3,397.105408E-3
426.851463E-3,398.306465E-3
425.408363E-3,396.837616E-3
425.581169E-3,397.315407E-3
424.773788E-3,397.114563E-3
423.383904E-3,395.705223E-3
424.225616E-3,396.958351E-3
423.502922E-3,396.085167E-3
424.701691E-3,397.075653E-3
424.776649E-3,396.813011E-3
424.049950E-3,395.832253E-3
425.267029E-3,397.397232E-3
424.048233E-3,396.055984E-3
424.395561E-3,396.389008E-3
423.766136E-3,396.290016E-3
422.498703E-3,395.320129E-3
423.501205E-3,396.919441E-3
422.027779E-3,395.419121E-3
422.017479E-3,395.653725E-3
421.667290E-3,395.715523E-3
420.177841E-3,394.802284E-3
421.352005E-3,396.273994E-3
419.887733E-3,394.698143E-3
420.247078E-3,394.947052E-3
419.948387E-3,395.066643E-3
418.586540E-3,393.910217E-3
419.910049E-3,395.425987E-3
418.684387E-3,394.319344E-3
419.223976E-3,394.877243E-3
418.931580E-3,394.592857E-3
417.482758E-3,393.321419E-3
419.169617E-3,395.030594E-3
417.892456E-3,393.681908E-3
418.702126E-3,394.351959E-3
418.131638E-3,394.128799E-3
417.005539E-3,393.154335E-3
418.621445E-3,394.529343E-3
417.295074E-3,393.276787E-3
417.547989E-3,393.859291E-3
417.423820E-3,393.659019E-3
416.651917E-3,392.546654E-3
418.311310E-3,394.476128E-3
416.725159E-3,393.267059E-3
416.805267E-3,393.451881E-3
417.012405E-3,393.465614E-3
415.841103E-3,391.113281E-3
417.593765E-3,393.974304E-3
416.322899E-3,393.005562E-3
416.233063E-3,393.466759E-3
416.105461E-3,393.387794E-3
414.698982E-3,392.206764E-3
416.308022E-3,394.029236E-3
414.855194E-3,392.839050E-3
415.648842E-3,393.335724E-3
414.974213E-3,393.546295E-3
413.789177E-3,390.649223E-3
415.370178E-3,392.891121E-3
413.723946E-3,392.047119E-3
414.085007E-3,392.276001E-3
414.062691E-3,392.911720E-3
413.417816E-3,392.086601E-3
415.029716E-3,393.509674E-3
413.486481E-3,392.134094E-3
413.457298E-3,392.417908E-3
413.758850E-3,392.786407E-3
412.840462E-3,391.781616E-3
414.454079E-3,393.589783E-3
413.160324E-3,392.104912E-3
413.320541E-3,392.077446E-3
412.979507E-3,392.477417E-3
411.920357E-3,391.421700E-3
413.357735E-3,393.134880E-3
411.830521E-3,391.600800E-3
412.375832E-3,391.775322E-3
412.158966E-3,392.047119E-3
411.150169E-3,391.023445E-3
412.312317E-3,392.266273E-3
411.160469E-3,390.786552E-3
411.903191E-3,391.516685E-3
413.147736E-3,392.032814E-3
414.428329E-3,392.213631E-3
418.927574E-3,395.145607E-3
420.503426E-3,394.714165E-3
424.008179E-3,395.881462E-3
427.380753E-3,397.451591E-3
428.911972E-3,397.358322E-3
432.336617E-3,399.728394E-3
431.861687E-3,398.639488E-3
432.170105E-3,399.395943E-3
431.790161E-3,399.406242E-3
429.455566E-3,398.507309E-3
429.931641E-3,399.457169E-3
426.963615E-3,397.289085E-3
426.100731E-3,397.200966E-3
425.221252E-3,397.194099E-3
423.754120E-3,395.817375E-3
425.074196E-3,397.505951E-3
423.322678E-3,395.955276E-3
423.386765E-3,396.212769E-3
424.093437E-3,396.861076E-3
423.561859E-3,396.029663E-3
425.381470E-3,397.176361E-3
424.317741E-3,395.926666E-3
425.110817E-3,396.613312E-3
425.245285E-3,396.683693E-3
424.158669E-3,396.169853E-3
424.898529E-3,397.224426E-3
422.384262E-3,395.248604E-3
422.025490E-3,395.546150E-3
421.696472E-3,395.603943E-3
419.547844E-3,394.762802E-3
422.504425E-3,396.760368E-3
421.159172E-3,394.981384E-3
421.916771E-3,395.489502E-3
422.606850E-3,395.929527E-3
422.013474E-3,393.619537E-3
423.608208E-3,396.382713E-3
422.234917E-3,395.543289E-3
422.681808E-3,395.911789E-3
422.664642E-3,395.780754E-3
421.557426E-3,393.956566E-3
422.303009E-3,396.052551E-3
420.234489E-3,394.438362E-3
420.426178E-3,394.906425E-3
419.895172E-3,394.970512E-3
418.798828E-3,394.329643E-3
420.311165E-3,395.797348E-3
418.398857E-3,394.025230E-3
418.140793E-3,394.163132E-3
418.110466E-3,394.424629E-3
417.079353E-3,393.523979E-3
418.073273E-3,394.598007E-3
416.421318E-3,393.278503E-3
416.806984E-3,393.668175E-3
416.663933E-3,393.868446E-3
415.863419E-3,393.440437E-3
417.506790E-3,394.838905E-3
415.877724E-3,393.136597E-3
416.064262E-3,393.536568E-3
416.006470E-3,393.364334E-3
415.346146E-3,391.420555E-3
417.122841E-3,393.984604E-3
415.652275E-3,393.167496E-3
415.506363E-3,393.022728E-3
415.735245E-3,393.597794E-3
415.148163E-3,392.880821E-3
416.214180E-3,393.634415E-3
414.500999E-3,392.625046E-3
414.966774E-3,393.004990E-3
415.002251E-3,392.840195E-3
414.301872E-3,392.565536E-3
415.759277E-3,393.683052E-3
414.230919E-3,392.495728E-3
414.473534E-3,392.778969E-3
414.434624E-3,392.871094E-3
412.388992E-3,392.489433E-3
414.514732E-3,393.966866E-3
413.051033E-3,392.179298E-3
413.173485E-3,392.145538E-3
413.380623E-3,392.718887E-3
412.509155E-3,391.929817E-3
413.799477E-3,393.454170E-3
412.305450E-3,392.079735E-3
412.403297E-3,391.825104E-3
412.735176E-3,392.162132E-3
411.768723E-3,391.532135E-3
412.933159E-3,392.580986E-3
411.662865E-3,391.600227E-3
412.255669E-3,391.792488E-3
411.754417E-3,391.963005E-3
411.130714E-3,391.324997E-3
412.090874E-3,392.329216E-3
410.416031E-3,390.922165E-3
410.749054E-3,391.423988E-3
411.208534E-3,391.587067E-3
410.357094E-3,390.985107E-3
411.644554E-3,392.570114E-3
410.106468E-3,390.937614E-3
409.973145E-3,390.895844E-3
410.489273E-3,391.324997E-3
409.978294E-3,390.534782E-3
411.696053E-3,392.437363E-3
411.684608E-3,391.559029E-3
414.265251E-3,392.388725E-3
417.181206E-3,393.921661E-3
419.644547E-3,394.416046E-3
424.138641E-3,396.827888E-3
426.361656E-3,397.000122E-3
429.275894E-3,398.310471E-3
431.181908E-3,399.107552E-3
430.891228E-3,398.800850E-3
432.297707E-3,399.922371E-3
430.647469E-3,398.865509E-3
430.055237E-3,398.679543E-3
428.912544E-3,398.440361E-3
427.036285E-3,397.327423E-3
427.385902E-3,398.431206E-3
425.136566E-3,396.922302E-3
424.156380E-3,396.662521E-3
424.142075E-3,396.972084E-3
423.322678E-3,395.480347E-3
424.991798E-3,397.208405E-3
423.638535E-3,396.302605E-3
423.996162E-3,396.237373E-3
424.972916E-3,397.021866E-3
424.713707E-3,396.410751E-3
426.735306E-3,398.360252E-3
425.466728E-3,396.922874E-3
425.248718E-3,396.744347E-3
425.515938E-3,397.180939E-3
423.611641E-3,396.134949E-3
424.439049E-3,397.309113E-3
422.351646E-3,395.917511E-3
421.936226E-3,395.750999E-3
421.767998E-3,395.946693E-3
421.055603E-3,394.798279E-3
422.250366E-3,396.315765E-3
421.425247E-3,395.471191E-3
421.802330E-3,395.756721E-3
421.994019E-3,395.894623E-3
421.614075E-3,394.702721E-3
422.617722E-3,395.954132E-3
421.580887E-3,395.354462E-3
421.513367E-3,395.419121E-3
421.465874E-3,395.451164E-3
420.002174E-3,394.604301E-3
421.056747E-3,395.360756E-3
419.401932E-3,394.230652E-3
419.024277E-3,394.353104E-3
419.197083E-3,394.616890E-3
416.562653E-3,393.616676E-3
418.566513E-3,395.232010E-3
417.378616E-3,393.838120E-3
417.257881E-3,393.586922E-3
417.593765E-3,394.081306E-3
416.477394E-3,392.873383E-3
417.415237E-3,394.086456E-3
416.471100E-3,393.478203E-3
416.451073E-3,393.201256E-3
416.241646E-3,393.673897E-3
413.702202E-3,392.687988E-3
415.752411E-3,393.481064E-3
415.184212E-3,392.634201E-3
415.498924E-3,393.073654E-3
415.870857E-3,393.097115E-3
414.973640E-3,392.274857E-3
416.078568E-3,393.495941E-3
414.911270E-3,392.475128E-3
414.679527E-3,392.298317E-3
415.394211E-3,392.947197E-3
414.650345E-3,392.040253E-3
416.045380E-3,393.592072E-3
414.700699E-3,392.567825E-3
414.478683E-3,392.589569E-3
415.001678E-3,392.820168E-3
412.053108E-3,391.979027E-3
414.247513E-3,392.684555E-3
413.662148E-3,391.812515E-3
413.923645E-3,391.809654E-3
414.075279E-3,392.266273E-3
412.950325E-3,391.111565E-3
413.939667E-3,392.218208E-3
412.789536E-3,391.529846E-3
412.639046E-3,391.631699E-3
412.813568E-3,392.063713E-3
411.926079E-3,390.543365E-3
413.170624E-3,392.320061E-3
411.887169E-3,391.409111E-3
411.426544E-3,391.170502E-3
412.347221E-3,391.794205E-3
411.214828E-3,390.423775E-3
412.390137E-3,392.296600E-3
411.515808E-3,391.624260E-3
411.471748E-3,391.299248E-3
411.778450E-3,391.394234E-3
410.517311E-3,390.058136E-3
411.697197E-3,391.489220E-3
410.896683E-3,390.824318E-3
410.861778E-3,390.797997E-3
411.404800E-3,391.347885E-3
410.028076E-3,389.924240E-3
411.136436E-3,391.111565E-3
410.077858E-3,390.633774E-3
410.091591E-3,390.388298E-3
410.428047E-3,391.024017E-3
409.091377E-3,389.539146E-3
410.516167E-3,391.149330E-3
409.580040E-3,390.648079E-3
409.200096E-3,390.039825E-3
410.079575E-3,391.119576E-3
406.506729E-3,389.504242E-3
409.946823E-3,391.358185E-3
410.210037E-3,390.898132E-3
411.701775E-3,391.315842E-3
414.773941E-3,392.601013E-3
416.938019E-3,392.519188E-3
421.616364E-3,395.007706E-3
424.641037E-3,395.754433E-3
427.316093E-3,396.890259E-3
430.232048E-3,398.092461E-3
430.091286E-3,396.573830E-3
432.171249E-3,398.653221E-3
431.211090E-3,398.572540E-3
429.994583E-3,397.804070E-3
429.380608E-3,398.032379E-3
426.708984E-3,395.631981E-3
427.254295E-3,397.366905E-3
425.145721E-3,396.437645E-3
423.905754E-3,395.609665E-3
423.963547E-3,395.911789E-3
422.249222E-3,394.620323E-3
423.487473E-3,396.063423E-3
423.180199E-3,395.754433E-3
423.552704E-3,395.802498E-3
424.411011E-3,396.117783E-3
423.542976E-3,394.995689E-3
425.103951E-3,396.285439E-3
425.083351E-3,395.950127E-3
425.043297E-3,396.038246E-3
424.995232E-3,396.329498E-3
422.972488E-3,394.898987E-3
423.730087E-3,395.780182E-3
422.458076E-3,394.782257E-3
421.685600E-3,394.461250E-3
421.723366E-3,394.895554E-3
419.963837E-3,393.471336E-3
421.764565E-3,395.443153E-3
421.210098E-3,394.572830E-3
421.287918E-3,394.332504E-3
422.035217E-3,394.888115E-3
420.991516E-3,393.637848E-3
422.538185E-3,395.129013E-3
421.815491E-3,394.766808E-3
421.582031E-3,394.393730E-3
421.305084E-3,394.795990E-3
419.834518E-3,393.347740E-3
420.573235E-3,394.323921E-3
419.753265E-3,394.000053E-3
419.179916E-3,393.480492E-3
419.102669E-3,393.180084E-3
417.506790E-3,392.163277E-3
418.509293E-3,393.981171E-3
417.617798E-3,393.499374E-3
416.804695E-3,392.429352E-3
417.253304E-3,393.018723E-3
415.587044E-3,391.806221E-3
417.212105E-3,393.677330E-3
416.488266E-3,392.828751E-3
416.033363E-3,392.537498E-3
416.297722E-3,392.834473E-3
414.567375E-3,391.116142E-3
415.909767E-3,392.895699E-3
415.292358E-3,392.313194E-3
414.883804E-3,392.210770E-3
415.427971E-3,392.092323E-3
414.308167E-3,390.817451E-3
415.207672E-3,392.139244E-3
414.799118E-3,392.136383E-3
414.472389E-3,391.467476E-3
414.697266E-3,392.062569E-3
413.459587E-3,390.762520E-3
414.732742E-3,392.262268E-3
414.306450E-3,391.858292E-3
413.563156E-3,391.073799E-3
414.123917E-3,391.715240E-3
412.624741E-3,390.190887E-3
414.530182E-3,392.328072E-3
413.310814E-3,391.458893E-3
412.894249E-3,391.274071E-3
413.018990E-3,391.500092E-3
411.470032E-3,390.502739E-3
413.480759E-3,392.485428E-3
412.583542E-3,391.181946E-3
411.970711E-3,390.451241E-3
412.023354E-3,391.053772E-3
410.890388E-3,389.603233E-3
412.009048E-3,391.442299E-3
411.564445E-3,390.868950E-3
410.932159E-3,390.131950E-3
410.973358E-3,390.426636E-3
410.081291E-3,389.365768E-3
411.374474E-3,391.062927E-3
410.638618E-3,390.735626E-3
410.039520E-3,389.187241E-3
410.584259E-3,389.664459E-3
409.239006E-3,389.244461E-3
411.049461E-3,390.995407E-3
410.431480E-3,390.071297E-3
409.759712E-3,389.303398E-3
410.387993E-3,390.014648E-3
408.845329E-3,389.409256E-3
410.278702E-3,390.761375E-3
409.541702E-3,389.919090E-3
408.927727E-3,389.564323E-3
409.188652E-3,389.926529E-3
408.013916E-3,388.909149E-3
409.112549E-3,390.098763E-3
409.051895E-3,389.444160E-3
408.099747E-3,388.662529E-3
408.305740E-3,389.443016E-3
407.596779E-3,388.368416E-3
409.230995E-3,390.106773E-3
409.033585E-3,389.971733E-3
409.664154E-3,389.719963E-3
412.885666E-3,391.106987E-3
414.461517E-3,391.608238E-3
419.829369E-3,394.331360E-3
421.925354E-3,394.550514E-3
424.041939E-3,394.294739E-3
426.421738E-3,395.783615E-3
426.626015E-3,395.548439E-3
428.648186E-3,397.281647E-3
427.483749E-3,396.589279E-3
426.132202E-3,395.900345E-3
425.015831E-3,395.982742E-3
422.451782E-3,394.691277E-3
421.972847E-3,394.852638E-3
420.318031E-3,394.077873E-3
418.039513E-3,392.261124E-3
417.900467E-3,393.047333E-3
416.669655E-3,392.119789E-3
417.933655E-3,393.299103E-3
417.747116E-3,393.138313E-3
417.050171E-3,392.170143E-3
418.241501E-3,393.200684E-3
417.910194E-3,392.551804E-3
419.694328E-3,394.405174E-3
419.009972E-3,393.491936E-3
418.226051E-3,392.917442E-3
418.370819E-3,393.391228E-3
417.087364E-3,392.306900E-3
417.967987E-3,393.831253E-3
416.558647E-3,392.641068E-3
415.763855E-3,392.069435E-3
416.073990E-3,392.523766E-3
415.818787E-3,391.975594E-3
417.137718E-3,393.103981E-3
417.180061E-3,392.997551E-3
417.109680E-3,392.377281E-3
418.046951E-3,393.105698E-3
417.518806E-3,392.498589E-3
418.400574E-3,393.487358E-3
417.977715E-3,393.589211E-3
417.003822E-3,391.967010E-3
417.227554E-3,392.714310E-3
415.686607E-3,391.961861E-3
416.625023E-3,393.132019E-3
415.773582E-3,392.737198E-3
413.587761E-3,391.512680E-3
414.130783E-3,391.678619E-3
413.556862E-3,391.032600E-3
414.396858E-3,392.141533E-3
413.366890E-3,391.556168E-3
411.661148E-3,390.822601E-3
412.251663E-3,391.281509E-3
411.560440E-3,390.404320E-3
412.708855E-3,391.755867E-3
411.682320E-3,390.578842E-3
410.421181E-3,390.378571E-3
411.301231E-3,391.074944E-3
410.903549E-3,390.434074E-3
411.800766E-3,391.300392E-3
411.615944E-3,390.902138E-3
410.646629E-3,390.303612E-3
411.328125E-3,390.963936E-3
410.263252E-3,389.773178E-3
411.089516E-3,390.700150E-3
410.915565E-3,390.796280E-3
409.521675E-3,389.329720E-3
410.381126E-3,390.190315E-3
410.042953E-3,389.470482E-3
411.328125E-3,390.781403E-3
410.817146E-3,390.563393E-3
409.954834E-3,390.191460E-3
410.496140E-3,390.653229E-3
409.617805E-3,389.751434E-3
410.588264E-3,390.662384E-3
409.451866E-3,389.838409E-3
409.018707E-3,389.465904E-3
409.490204E-3,390.044403E-3
408.289146E-3,389.322853E-3
409.303093E-3,390.004921E-3
409.228706E-3,390.109634E-3
408.326340E-3,389.241028E-3
408.648491E-3,389.863586E-3
407.423973E-3,389.065933E-3
408.217621E-3,389.849854E-3
408.254242E-3,390.056992E-3
407.212257E-3,388.704300E-3
407.690620E-3,389.448166E-3
406.865501E-3,388.642502E-3
408.322906E-3,389.634132E-3
407.686615E-3,389.163208E-3
406.811142E-3,388.628769E-3
407.314110E-3,389.301682E-3
406.479263E-3,388.549805E-3
407.643127E-3,389.439011E-3
407.148170E-3,388.912582E-3
405.649567E-3,388.018227E-3
406.439209E-3,389.105988E-3
405.559731E-3,388.054848E-3
406.118202E-3,388.611603E-3
405.903625E-3,388.778687E-3
405.044174E-3,387.506104E-3
405.637550E-3,388.338661E-3
404.867935E-3,387.680626E-3
406.531334E-3,388.994408E-3
406.610870E-3,388.875961E-3
407.732964E-3,388.728333E-3
410.918999E-3,390.534210E-3
413.351440E-3,390.893555E-3
417.858124E-3,392.987823E-3
421.155739E-3,394.040108E-3
422.746468E-3,394.402885E-3
426.543045E-3,396.387863E-3
427.381897E-3,395.943260E-3
429.100800E-3,397.594070E-3
428.594398E-3,397.737122E-3
427.022552E-3,396.121216E-3
426.562500E-3,396.439934E-3
424.438477E-3,395.172501E-3
424.350929E-3,395.837975E-3
422.490120E-3,395.360184E-3
420.423317E-3,393.820953E-3
420.446205E-3,394.547081E-3
419.379616E-3,393.421555E-3
419.705772E-3,394.223213E-3
419.483757E-3,393.656731E-3
418.945312E-3,392.907143E-3
420.279121E-3,393.589783E-3
419.883728E-3,393.264771E-3
421.291924E-3,394.499016E-3
421.252441E-3,394.836044E-3
420.572090E-3,393.823242E-3
421.617508E-3,394.413757E-3
420.295715E-3,393.450737E-3
420.755196E-3,394.476700E-3
419.477463E-3,393.905640E-3
418.171692E-3,392.972946E-3
418.406868E-3,393.599510E-3
417.412949E-3,392.789268E-3
418.372536E-3,394.063568E-3
417.991447E-3,393.307114E-3
417.024422E-3,392.819023E-3
418.580818E-3,393.607521E-3
418.025780E-3,392.991257E-3
419.328117E-3,393.712234E-3
418.973923E-3,393.397522E-3
417.769432E-3,392.648506E-3
418.435478E-3,393.338585E-3
417.333412E-3,392.243958E-3
417.619514E-3,392.935753E-3
417.250443E-3,392.910004E-3
415.826797E-3,391.415977E-3
416.500282E-3,392.618752E-3
415.105820E-3,391.732407E-3
415.595055E-3,392.279434E-3
415.555000E-3,392.336082E-3
414.053535E-3,390.934181E-3
414.355659E-3,391.836548E-3
413.499641E-3,391.119576E-3
414.407158E-3,392.144394E-3
