Notes :


2023-11-04 ¿ÀÈÄ 10:15:27
Volts
Ch : LED 2,
408.887672E-3
408.670807E-3
408.480263E-3
408.297157E-3
408.119774E-3
407.921219E-3
407.933235E-3
408.166122E-3
409.128571E-3
410.689545E-3
413.283348E-3
416.015625E-3
418.936157E-3
421.705055E-3
424.174690E-3
425.855827E-3
426.900673E-3
427.096367E-3
426.434898E-3
425.529099E-3
424.191284E-3
422.803688E-3
421.579742E-3
420.396996E-3
419.486046E-3
418.917847E-3
418.287849E-3
418.057823E-3
417.937088E-3
417.981720E-3
418.010902E-3
418.064117E-3
418.164253E-3
417.966270E-3
417.485619E-3
416.885376E-3
416.359520E-3
415.740967E-3
415.284348E-3
415.070343E-3
414.954758E-3
415.065193E-3
415.244865E-3
415.448570E-3
415.682030E-3
415.823364E-3
415.964127E-3
415.868568E-3
415.663147E-3
415.538406E-3
415.085220E-3
414.723587E-3
414.344215E-3
413.889885E-3
413.502502E-3
413.102531E-3
412.638474E-3
412.265396E-3
411.869431E-3
411.528969E-3
411.207962E-3
410.985374E-3
410.761642E-3
410.580826E-3
410.444069E-3
410.232925E-3
410.137939E-3
410.036659E-3
410.089874E-3
409.874725E-3
409.589767E-3
409.509087E-3
409.427834E-3
409.265900E-3
409.310532E-3
409.097672E-3
409.083939E-3
408.856773E-3
408.818436E-3
408.834457E-3
408.799553E-3
408.818436E-3
408.750343E-3
408.518600E-3
408.406448E-3
408.399010E-3
408.005333E-3
407.984161E-3
407.877731E-3
407.873726E-3
407.788467E-3
407.594490E-3
407.427979E-3
407.301521E-3
407.209396E-3
407.234001E-3
407.112122E-3
406.906128E-3
406.665230E-3
406.436348E-3
406.185150E-3
406.023788E-3
405.729675E-3
405.405807E-3
405.175781E-3
405.115700E-3
405.359459E-3
405.967140E-3
407.336998E-3
409.536552E-3
412.224197E-3
415.506935E-3
418.545914E-3
421.288490E-3
423.651123E-3
425.273895E-3
426.029778E-3
425.994873E-3
425.345993E-3
424.361229E-3
423.028564E-3
421.881866E-3
420.862770E-3
419.839668E-3
419.203949E-3
418.583107E-3
418.375969E-3
418.320465E-3
418.416595E-3
418.676949E-3
418.806267E-3
419.088364E-3
419.252586E-3
419.246864E-3
419.151878E-3
418.686676E-3
418.088150E-3
417.565727E-3
417.129135E-3
416.548347E-3
416.025925E-3
416.042519E-3
416.163254E-3
416.195869E-3
416.341782E-3
416.517448E-3
416.617012E-3
416.714287E-3
416.714287E-3
416.639328E-3
416.413307E-3
416.123199E-3
415.963554E-3
415.526390E-3
415.147018E-3
414.811707E-3
414.281845E-3
414.016342E-3
413.754845E-3
413.497925E-3
413.186646E-3
412.972069E-3
412.703133E-3
412.498856E-3
412.371826E-3
412.413025E-3
412.077713E-3
411.954117E-3
411.742973E-3
411.670876E-3
411.515808E-3
411.325264E-3
411.341858E-3
411.111832E-3
411.015701E-3
410.931587E-3
410.878372E-3
410.944748E-3
410.789108E-3
410.812569E-3
410.769081E-3
410.816002E-3
410.542488E-3
410.327911E-3
410.320473E-3
410.128212E-3
410.019493E-3
409.903908E-3
409.788895E-3
409.629250E-3
409.276772E-3
409.308815E-3
409.339142E-3
409.233856E-3
409.159470E-3
409.003258E-3
408.925438E-3
408.920860E-3
408.722305E-3
408.705711E-3
408.589554E-3
408.428764E-3
408.381844E-3
408.223915E-3
408.020782E-3
407.847977E-3
407.600784E-3
407.382202E-3
407.169342E-3
407.157326E-3
407.509232E-3
408.338356E-3
410.086441E-3
412.512016E-3
415.379333E-3
418.425751E-3
421.380043E-3
424.065971E-3
426.020050E-3
427.230263E-3
427.699471E-3
427.370453E-3
426.494980E-3
425.387192E-3
424.027634E-3
422.804260E-3
421.984863E-3
420.942307E-3
420.127487E-3
419.580460E-3
419.238281E-3
419.053459E-3
419.104385E-3
419.222260E-3
419.356155E-3
419.465446E-3
419.509506E-3
419.274330E-3
418.957329E-3
418.339348E-3
417.595482E-3
416.941452E-3
416.550064E-3
416.214180E-3
416.019058E-3
415.941238E-3
415.983582E-3
416.132927E-3
416.179848E-3
416.239929E-3
416.351509E-3
415.968704E-3
415.996742E-3
415.822220E-3
415.422821E-3
415.233421E-3
414.816856E-3
414.433479E-3
414.102173E-3
413.696480E-3
413.365746E-3
412.839317E-3
412.524033E-3
412.207031E-3
411.922073E-3
411.757851E-3
411.487770E-3
411.182785E-3
410.904121E-3
410.688400E-3
410.532188E-3
410.313034E-3
410.236359E-3
410.109329E-3
409.910774E-3
409.748840E-3
409.601784E-3
409.486771E-3
409.165192E-3
409.176064E-3
409.140015E-3
409.057045E-3
408.963203E-3
408.778954E-3
408.693695E-3
408.693123E-3
408.464241E-3
408.399010E-3
408.168983E-3
408.050537E-3
407.895470E-3
407.651711E-3
407.561302E-3
407.285500E-3
407.267189E-3
407.100105E-3
407.095528E-3
406.926155E-3
406.698418E-3
406.562805E-3
406.446648E-3
406.265831E-3
406.093025E-3
405.788040E-3
405.560303E-3
405.432129E-3
405.182076E-3
404.991531E-3
404.790115E-3
404.640770E-3
404.558945E-3
404.760933E-3
405.487633E-3
407.213402E-3
409.598351E-3
412.332916E-3
415.078926E-3
417.805481E-3
420.029640E-3
421.745682E-3
422.610283E-3
422.557068E-3
422.294426E-3
421.305656E-3
420.129204E-3
418.818283E-3
417.510796E-3
416.410446E-3
415.453148E-3
414.806557E-3
414.301872E-3
413.964844E-3
413.790894E-3
413.753700E-3
413.803482E-3
413.963127E-3
413.943100E-3
413.866997E-3
413.566017E-3
412.894249E-3
412.384987E-3
411.779594E-3
411.486053E-3
411.290932E-3
411.290932E-3
411.397934E-3
411.645126E-3
411.939240E-3
412.082863E-3
412.428474E-3
412.612152E-3
412.558937E-3
412.478828E-3
412.076569E-3
411.789894E-3
411.423683E-3
410.997963E-3
410.474396E-3
410.153961E-3
409.836388E-3
409.420967E-3
409.034157E-3
408.824730E-3
408.560944E-3
408.317757E-3
408.057976E-3
407.620239E-3
407.436562E-3
407.254601E-3
407.097816E-3
407.046318E-3
406.921577E-3
406.825447E-3
406.803703E-3
406.649208E-3
406.539917E-3
406.395149E-3
406.279564E-3
406.167984E-3
406.070137E-3
406.017494E-3
406.014061E-3
406.016922E-3
405.861855E-3
405.755997E-3
405.686760E-3
405.615807E-3
405.563736E-3
405.501366E-3
405.447578E-3
405.301666E-3
405.393219E-3
405.142593E-3
404.982376E-3
404.963493E-3
404.910851E-3
404.799843E-3
404.691124E-3
404.546928E-3
404.401588E-3
404.256821E-3
404.149818E-3
403.959274E-3
403.665733E-3
403.395653E-3
403.219414E-3
403.007126E-3
403.166199E-3
403.656578E-3
404.849052E-3
406.876373E-3
409.370041E-3
412.356949E-3
415.282631E-3
418.077278E-3
420.428467E-3
421.919060E-3
422.801971E-3
422.826576E-3
422.343063E-3
421.469307E-3
420.227623E-3
419.112396E-3
417.994881E-3
417.106247E-3
416.519737E-3
415.857697E-3
415.585899E-3
415.449142E-3
415.453148E-3
415.524101E-3
415.759850E-3
415.989304E-3
416.086578E-3
416.114616E-3
415.862846E-3
415.267754E-3
414.801407E-3
414.205170E-3
413.611794E-3
413.297081E-3
413.078499E-3
413.072777E-3
413.087654E-3
413.250732E-3
413.410378E-3
413.508797E-3
413.705635E-3
413.725662E-3
413.666153E-3
413.564301E-3
413.396645E-3
413.134003E-3
412.833595E-3
412.482834E-3
412.204170E-3
411.774445E-3
411.447716E-3
411.127853E-3
410.876656E-3
410.679245E-3
410.558510E-3
410.325623E-3
409.977722E-3
409.864426E-3
409.669304E-3
409.477043E-3
409.366035E-3
409.288788E-3
409.132004E-3
408.798981E-3
408.822441E-3
408.816147E-3
408.709145E-3
408.572960E-3
408.553505E-3
408.408737E-3
408.410454E-3
408.344078E-3
408.425903E-3
408.274269E-3
408.143234E-3
408.076286E-3
408.064842E-3
408.028793E-3
407.957268E-3
407.755280E-3
407.707214E-3
407.896614E-3
407.721519E-3
407.461166E-3
407.357597E-3
407.372475E-3
407.267189E-3
407.188225E-3
407.214546E-3
407.136726E-3
407.214546E-3
407.011414E-3
406.782532E-3
406.751060E-3
406.554222E-3
406.332779E-3
406.136513E-3
405.980873E-3
405.735970E-3
405.552292E-3
405.750847E-3
406.255531E-3
407.552719E-3
409.584618E-3
412.259674E-3
415.295792E-3
418.197441E-3
420.951462E-3
423.344421E-3
424.809265E-3
425.624084E-3
425.606918E-3
425.105667E-3
424.166679E-3
422.912407E-3
421.759415E-3
420.616150E-3
419.735527E-3
419.067764E-3
418.465805E-3
418.142509E-3
417.970848E-3
417.946243E-3
418.121338E-3
418.223190E-3
418.309593E-3
418.437767E-3
418.317604E-3
418.091583E-3
417.447281E-3
416.798401E-3
416.164970E-3
415.647125E-3
415.569305E-3
415.216255E-3
415.179062E-3
415.290070E-3
415.303230E-3
415.542984E-3
415.590477E-3
415.605354E-3
415.579033E-3
415.310097E-3
415.149879E-3
414.838028E-3
414.673805E-3
414.218330E-3
413.823509E-3
413.461876E-3
412.917709E-3
412.545204E-3
412.341499E-3
411.865997E-3
411.524391E-3
411.314392E-3
411.069489E-3
410.793686E-3
410.471535E-3
410.230637E-3
409.992027E-3
410.046959E-3
409.784889E-3
409.515381E-3
409.438705E-3
409.211540E-3
409.070206E-3
409.004974E-3
408.784676E-3
408.757210E-3
408.738327E-3
408.603287E-3
408.449364E-3
408.401299E-3
408.286858E-3
408.079720E-3
408.001900E-3
407.874298E-3
407.629395E-3
407.390213E-3
407.374763E-3
407.381058E-3
407.235718E-3
407.024002E-3
406.959343E-3
406.810570E-3
406.799126E-3
406.543922E-3
406.446075E-3
406.260109E-3
406.144524E-3
406.028366E-3
405.899048E-3
405.792618E-3
405.524254E-3
405.247307E-3
404.944611E-3
404.770660E-3
404.566383E-3
404.521751E-3
404.361534E-3
404.621315E-3
405.461884E-3
407.164192E-3
409.577751E-3
412.223625E-3
415.028572E-3
417.588615E-3
419.724083E-3
421.378899E-3
422.222328E-3
422.360802E-3
421.815491E-3
420.928001E-3
419.709778E-3
418.336487E-3
417.205238E-3
416.145515E-3
415.306664E-3
414.626884E-3
414.241791E-3
414.068985E-3
413.868713E-3
413.873863E-3
414.062691E-3
414.141083E-3
414.237213E-3
414.121628E-3
413.690758E-3
413.196373E-3
412.566948E-3
412.267113E-3
411.827660E-3
411.625099E-3
411.728096E-3
411.827087E-3
412.078857E-3
412.418747E-3
412.667084E-3
412.817574E-3
412.941742E-3
412.784958E-3
412.502289E-3
412.134361E-3
411.832809E-3
411.412811E-3
411.038017E-3
410.654640E-3
410.247231E-3
409.882164E-3
409.499931E-3
409.224701E-3
408.917999E-3
408.584404E-3
408.471680E-3
408.159256E-3
407.954979E-3
407.863426E-3
407.736397E-3
407.579041E-3
407.332420E-3
407.295227E-3
407.230568E-3
407.061195E-3
407.004547E-3
406.917000E-3
406.809425E-3
406.501007E-3
406.512451E-3
406.410599E-3
406.301880E-3
406.360245E-3
406.233788E-3
406.112480E-3
406.090736E-3
406.031227E-3
406.167984E-3
405.957413E-3
405.805779E-3
405.728531E-3
405.624962E-3
405.635834E-3
405.596924E-3
405.540848E-3
405.501938E-3
405.299950E-3
405.139160E-3
405.053902E-3
404.788399E-3
404.756355E-3
404.638481E-3
404.413605E-3
404.154968E-3
403.975296E-3
403.855133E-3
403.859138E-3
404.137802E-3
404.966354E-3
406.578255E-3
408.943748E-3
411.620522E-3
414.498138E-3
417.389488E-3
419.869995E-3
421.735382E-3
422.876358E-3
423.310089E-3
423.029137E-3
422.268105E-3
421.366882E-3
420.078850E-3
419.052315E-3
418.218613E-3
417.481613E-3
417.049026E-3
416.726303E-3
416.575813E-3
416.645050E-3
416.632462E-3
416.703415E-3
417.028999E-3
417.291641E-3
417.444992E-3
417.223549E-3
416.861343E-3
416.213608E-3
415.510941E-3
414.945602E-3
414.597702E-3
414.408875E-3
414.431763E-3
414.554787E-3
414.783669E-3
414.957619E-3
415.143013E-3
415.362167E-3
415.457726E-3
415.420532E-3
415.340996E-3
415.164185E-3
414.986229E-3
414.638901E-3
414.480972E-3
414.093590E-3
413.719368E-3
413.369179E-3
412.980080E-3
412.783813E-3
412.542915E-3
412.280846E-3
412.053108E-3
411.889458E-3
411.705780E-3
411.569595E-3
411.442566E-3
411.156464E-3
411.182213E-3
411.107254E-3
411.015129E-3
410.995102E-3
410.955048E-3
410.900116E-3
410.855484E-3
410.722160E-3
410.771942E-3
410.696411E-3
410.707855E-3
410.691261E-3
410.636330E-3
410.580826E-3
410.553932E-3
410.385704E-3
410.500145E-3
410.426903E-3
410.423470E-3
410.356522E-3
410.232353E-3
410.177422E-3
410.129356E-3
410.101318E-3
410.234070E-3
410.117912E-3
410.070419E-3
409.896469E-3
409.847832E-3
409.827232E-3
409.798622E-3
409.642410E-3
409.543991E-3
409.559441E-3
409.252739E-3
408.974075E-3
408.782959E-3
408.603859E-3
408.508301E-3
408.471107E-3
408.645630E-3
409.389496E-3
410.658073E-3
412.914848E-3
415.635109E-3
418.783951E-3
421.866417E-3
424.550056E-3
426.833153E-3
428.310013E-3
428.898811E-3
428.969765E-3
428.271675E-3
427.222252E-3
426.160812E-3
425.170898E-3
424.218750E-3
423.423386E-3
422.872925E-3
422.546196E-3
422.644615E-3
422.527885E-3
422.487831E-3
422.681236E-3
422.910118E-3
423.004532E-3
423.102951E-3
422.927856E-3
422.621727E-3
422.141647E-3
421.212959E-3
420.601273E-3
419.869995E-3
419.603348E-3
419.281197E-3
419.130135E-3
419.269180E-3
419.227982E-3
419.357872E-3
419.579887E-3
419.492912E-3
419.465446E-3
419.276619E-3
419.104385E-3
418.732452E-3
418.536758E-3
418.165970E-3
417.646408E-3
417.284203E-3
416.965485E-3
416.551781E-3
416.306305E-3
416.013336E-3
415.746117E-3
415.353012E-3
415.244865E-3
415.027428E-3
414.811134E-3
414.671516E-3
414.405441E-3
414.281273E-3
414.114761E-3
413.978577E-3
413.545418E-3
413.606644E-3
413.576317E-3
413.530540E-3
413.361168E-3
413.294792E-3
413.124275E-3
413.021851E-3
412.930870E-3
413.002396E-3
412.696838E-3
412.481689E-3
412.329483E-3
412.328339E-3
412.023354E-3
411.931801E-3
411.711502E-3
411.533546E-3
411.682892E-3
411.430550E-3
411.260605E-3
411.126137E-3
410.973358E-3
410.902405E-3
410.691833E-3
410.596275E-3
410.519028E-3
410.592842E-3
410.310173E-3
409.939384E-3
409.834099E-3
409.583473E-3
409.380341E-3
409.155464E-3
408.882523E-3
408.679390E-3
408.625603E-3
408.481407E-3
408.731461E-3
409.431839E-3
410.947037E-3
413.162613E-3
415.894318E-3
418.807411E-3
421.569443E-3
423.681450E-3
425.471878E-3
426.430893E-3
426.687241E-3
426.317024E-3
425.407219E-3
424.271393E-3
423.007965E-3
421.802330E-3
420.546341E-3
419.861412E-3
419.310379E-3
418.851471E-3
418.710136E-3
418.662643E-3
418.663788E-3
418.826866E-3
418.908119E-3
419.349289E-3
418.949890E-3
418.381691E-3
417.800331E-3
417.081642E-3
416.515732E-3
416.020203E-3
415.989876E-3
415.867424E-3
415.817070E-3
416.096306E-3
416.220474E-3
416.426468E-3
416.559219E-3
416.637611E-3
416.551781E-3
416.673088E-3
416.249657E-3
415.858269E-3
415.403938E-3
414.958191E-3
414.503288E-3
414.039803E-3
413.595772E-3
413.205528E-3
412.628746E-3
412.354088E-3
412.064552E-3
411.873436E-3
411.639404E-3
411.516953E-3
411.437416E-3
411.304092E-3
411.154175E-3
411.005402E-3
410.841179E-3
410.667801E-3
410.579681E-3
410.431480E-3
410.231781E-3
410.204887E-3
409.980583E-3
409.962273E-3
409.978867E-3
409.781456E-3
409.590912E-3
409.564018E-3
409.593201E-3
409.470177E-3
409.351158E-3
409.351730E-3
409.276772E-3
409.513092E-3
409.220123E-3
409.050751E-3
408.956909E-3
408.932877E-3
408.926010E-3
408.847618E-3
408.626175E-3
408.464813E-3
408.387566E-3
408.105469E-3
407.841682E-3
407.619095E-3
407.465744E-3
407.244873E-3
407.062340E-3
406.976509E-3
407.018280E-3
407.389069E-3
408.575249E-3
410.558510E-3
413.057899E-3
415.850258E-3
418.821716E-3
421.498489E-3
423.816490E-3
425.416374E-3
425.995445E-3
426.249504E-3
425.709915E-3
424.845314E-3
423.838234E-3
422.837448E-3
421.854401E-3
421.072769E-3
420.549774E-3
420.245934E-3
419.946098E-3
419.951248E-3
420.066833E-3
420.196724E-3
420.468521E-3
420.631599E-3
420.771790E-3
