Notes :


2023-11-10 ¿ÀÈÄ 11:23:38
Volts
Ch : LED 2,
80.446243E-3
80.088615E-3
80.032539E-3
79.880905E-3
79.890633E-3
79.907227E-3
79.932404E-3
80.088615E-3
80.079460E-3
80.038834E-3
79.971886E-3
79.669189E-3
79.426575E-3
79.229164E-3
78.888702E-3
78.878403E-3
78.751373E-3
78.883553E-3
78.949928E-3
78.978539E-3
79.167366E-3
79.132462E-3
79.305267E-3
79.384804E-3
79.313278E-3
79.377365E-3
79.175949E-3
79.185677E-3
79.075813E-3
78.913307E-3
78.771400E-3
78.607178E-3
78.588867E-3
78.412628E-3
78.226089E-3
78.281593E-3
78.088188E-3
78.005791E-3
78.016090E-3
77.828979E-3
77.907372E-3
77.691078E-3
77.765465E-3
77.719688E-3
77.542305E-3
77.602386E-3
77.364922E-3
77.359200E-3
77.280235E-3
77.160072E-3
77.229309E-3
77.114868E-3
77.147484E-3
77.017021E-3
76.920319E-3
76.976967E-3
76.845932E-3
76.879120E-3
76.773834E-3
76.685715E-3
76.694870E-3
76.560974E-3
76.550674E-3
76.502609E-3
76.370430E-3
76.409340E-3
76.327515E-3
76.358986E-3
76.253700E-3
76.068306E-3
76.193047E-3
76.070595E-3
76.041412E-3
75.996780E-3
75.854874E-3
75.999069E-3
75.802803E-3
75.797653E-3
75.672340E-3
75.603676E-3
75.636292E-3
75.447464E-3
75.409126E-3
75.347328E-3
75.239754E-3
75.251198E-3
75.064087E-3
75.187683E-3
75.201988E-3
75.431442E-3
76.092339E-3
76.885414E-3
77.965164E-3
79.147911E-3
80.221939E-3
81.255913E-3
81.973457E-3
82.440376E-3
82.665253E-3
82.597733E-3
82.626343E-3
82.289886E-3
82.044983E-3
81.643295E-3
81.171227E-3
80.966377E-3
80.538940E-3
80.342674E-3
80.223083E-3
80.031395E-3
80.108643E-3
80.087471E-3
80.153275E-3
80.166435E-3
80.112648E-3
80.127525E-3
79.878044E-3
79.693222E-3
79.449463E-3
79.204559E-3
79.146194E-3
79.014587E-3
78.988266E-3
79.131317E-3
79.150772E-3
79.349899E-3
79.407692E-3
79.654312E-3
79.643440E-3
79.559326E-3
79.591942E-3
79.520416E-3
79.442024E-3
79.379082E-3
79.143906E-3
79.047775E-3
78.921318E-3
78.824615E-3
78.620338E-3
78.440666E-3
78.441811E-3
78.250694E-3
78.166580E-3
78.132248E-3
77.989197E-3
78.151703E-3
77.894211E-3
77.823257E-3
77.790070E-3
77.625275E-3
77.648735E-3
77.536583E-3
77.548027E-3
77.526283E-3
77.340317E-3
77.399254E-3
77.329445E-3
77.366066E-3
77.335167E-3
77.247620E-3
77.277374E-3
77.181816E-3
77.129173E-3
77.122879E-3
77.039337E-3
77.114868E-3
76.946068E-3
76.916885E-3
76.904869E-3
76.775551E-3
76.882553E-3
76.744652E-3
76.790428E-3
76.697159E-3
76.600456E-3
76.649094E-3
76.480865E-3
76.487160E-3
76.504898E-3
76.301765E-3
76.343536E-3
76.225662E-3
76.118088E-3
76.112366E-3
76.000214E-3
75.944138E-3
75.777626E-3
75.763893E-3
75.867462E-3
75.711250E-3
75.762749E-3
75.857735E-3
76.247978E-3
76.942635E-3
77.898788E-3
78.991699E-3
79.954147E-3
80.948067E-3
81.687355E-3
82.181740E-3
82.617187E-3
82.543945E-3
82.471848E-3
82.365990E-3
81.992340E-3
81.687355E-3
81.094551E-3
80.828476E-3
80.402756E-3
80.195618E-3
80.021667E-3
79.863167E-3
79.779053E-3
79.797935E-3
79.751015E-3
79.721260E-3
79.607964E-3
79.511833E-3
79.349899E-3
79.117584E-3
79.027748E-3
78.810310E-3
78.723907E-3
78.786278E-3
78.919029E-3
78.987122E-3
79.014015E-3
79.168510E-3
79.225159E-3
79.275513E-3
79.390526E-3
79.421997E-3
79.337311E-3
79.219437E-3
79.157639E-3
79.101562E-3
78.965950E-3
78.785706E-3
78.726768E-3
78.459549E-3
78.383446E-3
78.113365E-3
78.000641E-3
77.962875E-3
77.735138E-3
77.791214E-3
77.599525E-3
77.485085E-3
77.505684E-3
77.507401E-3
77.423286E-3
77.262497E-3
77.253342E-3
77.237320E-3
77.095985E-3
77.149773E-3
76.998711E-3
77.056503E-3
77.061653E-3
76.955795E-3
76.989555E-3
76.878548E-3
76.851082E-3
76.904869E-3
76.789856E-3
76.807022E-3
76.675987E-3
76.761246E-3
76.690865E-3
76.646233E-3
76.637650E-3
76.570702E-3
76.502609E-3
76.560974E-3
76.414490E-3
76.434517E-3
76.394463E-3
76.354980E-3
76.403618E-3
76.282883E-3
76.319504E-3
76.178741E-3
76.213074E-3
76.151848E-3
76.073456E-3
75.989914E-3
75.902367E-3
75.909233E-3
75.835991E-3
75.654030E-3
75.584793E-3
75.496101E-3
75.564766E-3
75.543022E-3
75.640869E-3
76.235390E-3
76.929474E-3
77.986336E-3
79.132462E-3
80.255127E-3
81.325150E-3
82.168007E-3
82.664108E-3
83.034897E-3
83.098412E-3
83.043480E-3
82.812881E-3
82.451248E-3
82.086182E-3
81.612968E-3
81.494522E-3
81.011581E-3
80.763245E-3
80.739212E-3
80.534363E-3
80.615044E-3
80.625916E-3
80.664253E-3
80.795860E-3
80.644226E-3
80.792427E-3
80.734634E-3
80.509186E-3
80.365562E-3
80.048561E-3
79.851151E-3
79.747009E-3
79.693222E-3
79.669762E-3
79.674911E-3
79.840279E-3
79.878044E-3
79.916382E-3
80.117226E-3
80.127525E-3
80.233955E-3
80.131531E-3
80.088615E-3
80.102348E-3
79.867172E-3
79.793358E-3
79.507256E-3
79.397964E-3
79.274368E-3
78.988838E-3
78.976250E-3
78.838348E-3
78.670692E-3
78.585434E-3
78.389168E-3
78.448677E-3
78.382301E-3
78.270721E-3
78.215218E-3
78.045273E-3
78.017807E-3
77.905655E-3
77.985191E-3
77.942276E-3
77.785492E-3
77.786064E-3
77.786064E-3
77.817535E-3
77.788925E-3
77.600098E-3
77.691078E-3
77.606392E-3
77.518272E-3
77.572060E-3
77.454758E-3
77.568626E-3
77.534866E-3
77.493668E-3
77.439880E-3
77.344894E-3
77.413559E-3
77.346039E-3
77.243042E-3
77.287674E-3
77.204132E-3
77.364349E-3
77.170944E-3
77.113724E-3
77.169800E-3
77.043915E-3
77.138901E-3
77.124023E-3
77.015877E-3
76.958084E-3
76.974106E-3
76.879692E-3
76.821327E-3
76.722908E-3
76.667404E-3
76.445961E-3
76.479721E-3
76.391602E-3
76.316643E-3
76.372719E-3
76.416779E-3
76.803017E-3
77.376938E-3
78.251839E-3
79.450035E-3
80.508614E-3
81.615257E-3
82.490730E-3
83.073235E-3
83.517265E-3
83.600235E-3
83.683205E-3
83.446884E-3
83.123016E-3
82.839203E-3
82.363129E-3
82.083321E-3
81.828690E-3
81.518555E-3
81.389809E-3
81.172943E-3
81.255341E-3
81.243896E-3
81.267929E-3
81.471634E-3
81.401253E-3
81.416130E-3
81.334877E-3
81.080246E-3
80.798721E-3
80.525780E-3
80.358696E-3
80.250549E-3
80.025101E-3
80.180168E-3
80.195045E-3
80.395317E-3
80.447388E-3
80.599594E-3
80.762100E-3
80.607605E-3
80.703735E-3
80.667686E-3
80.613327E-3
80.557251E-3
80.342102E-3
80.290031E-3
80.109215E-3
79.933548E-3
79.972458E-3
79.736710E-3
79.803085E-3
79.583359E-3
79.345894E-3
79.246330E-3
79.104424E-3
79.142189E-3
79.077530E-3
78.969383E-3
78.939629E-3
78.863525E-3
78.916740E-3
78.841209E-3
78.805733E-3
78.714180E-3
78.653526E-3
78.635216E-3
78.602600E-3
78.456116E-3
78.404617E-3
78.376007E-3
78.398323E-3
78.391457E-3
78.329086E-3
78.317070E-3
78.312492E-3
78.280449E-3
78.216934E-3
78.066444E-3
78.156853E-3
77.987480E-3
78.028107E-3
77.976036E-3
77.885628E-3
77.905083E-3
77.750015E-3
77.744293E-3
77.736855E-3
77.644157E-3
77.682495E-3
77.550316E-3
77.510262E-3
77.461624E-3
77.388954E-3
77.334595E-3
77.173233E-3
77.121162E-3
77.075386E-3
76.877975E-3
76.863670E-3
76.738930E-3
76.774406E-3
76.725769E-3
76.702309E-3
77.127457E-3
77.567482E-3
78.371429E-3
79.256058E-3
80.410194E-3
81.522560E-3
82.307625E-3
83.039474E-3
83.540726E-3
83.700943E-3
83.746719E-3
83.442307E-3
83.216858E-3
82.917023E-3
82.441521E-3
82.102203E-3
81.742859E-3
81.440163E-3
81.295967E-3
81.086540E-3
81.139755E-3
81.008720E-3
81.142044E-3
81.118011E-3
81.097412E-3
81.176949E-3
80.940628E-3
80.783272E-3
80.471420E-3
80.205345E-3
80.160713E-3
79.970741E-3
80.062294E-3
80.217934E-3
80.187607E-3
80.363274E-3
80.435371E-3
80.582428E-3
80.576134E-3
80.533791E-3
80.625916E-3
80.509186E-3
80.449677E-3
80.419350E-3
80.198479E-3
80.141830E-3
79.893494E-3
79.773903E-3
79.633141E-3
79.444885E-3
79.340744E-3
79.006577E-3
79.028320E-3
78.967667E-3
78.821182E-3
78.812027E-3
78.610039E-3
78.627777E-3
78.614044E-3
78.444099E-3
78.693581E-3
78.453827E-3
78.430367E-3
78.382874E-3
78.338242E-3
78.303909E-3
78.214645E-3
78.249550E-3
78.133392E-3
77.942276E-3
78.128815E-3
77.981758E-3
78.024101E-3
77.950859E-3
77.868462E-3
77.933693E-3
77.808380E-3
77.805519E-3
77.763748E-3
77.721977E-3
77.739716E-3
77.637863E-3
77.602959E-3
77.581787E-3
77.404404E-3
77.545166E-3
77.387810E-3
77.243614E-3
77.261925E-3
77.190399E-3
77.303696E-3
77.153206E-3
77.107430E-3
77.099991E-3
76.995277E-3
77.025604E-3
76.778412E-3
76.848793E-3
76.674271E-3
76.587868E-3
76.623344E-3
76.447105E-3
76.456833E-3
76.545525E-3
76.471710E-3
76.797867E-3
77.130890E-3
77.945137E-3
78.960228E-3
80.098343E-3
81.314850E-3
82.252693E-3
82.962227E-3
83.575630E-3
83.883476E-3
84.091187E-3
83.892632E-3
83.663750E-3
83.306694E-3
82.852936E-3
82.651520E-3
82.131958E-3
81.915665E-3
81.716537E-3
81.603241E-3
81.642723E-3
81.591225E-3
81.775475E-3
81.839561E-3
81.898499E-3
82.004929E-3
81.871605E-3
81.797791E-3
81.603813E-3
81.351471E-3
81.163216E-3
80.822754E-3
80.719185E-3
80.680275E-3
80.719185E-3
80.750084E-3
80.734062E-3
80.825043E-3
80.938911E-3
81.005287E-3
81.122589E-3
81.024742E-3
80.964088E-3
81.029892E-3
80.872536E-3
80.791283E-3
80.554390E-3
80.500603E-3
80.371284E-3
80.169868E-3
80.089760E-3
79.919243E-3
79.928398E-3
79.738426E-3
79.575348E-3
79.572487E-3
79.430008E-3
79.401970E-3
79.408836E-3
79.272652E-3
79.248619E-3
79.221153E-3
79.163361E-3
79.092407E-3
79.030037E-3
79.048920E-3
78.987694E-3
78.951073E-3
78.810310E-3
78.841782E-3
78.933907E-3
78.721046E-3
78.673553E-3
78.676987E-3
78.607178E-3
78.680420E-3
78.550529E-3
78.606606E-3
78.575134E-3
78.447533E-3
78.470993E-3
78.386879E-3
78.353691E-3
78.282738E-3
78.148842E-3
78.187752E-3
78.042984E-3
78.033257E-3
78.052139E-3
77.999496E-3
78.048706E-3
77.946854E-3
77.933121E-3
77.883339E-3
77.839851E-3
77.756882E-3
77.649307E-3
77.560616E-3
77.654457E-3
77.429008E-3
77.416420E-3
77.273369E-3
77.203560E-3
77.142334E-3
77.094841E-3
77.131462E-3
77.148628E-3
77.366638E-3
77.994347E-3
78.713036E-3
79.856873E-3
80.855942E-3
82.030678E-3
83.048630E-3
83.701515E-3
84.219933E-3
84.387016E-3
84.426498E-3
84.270287E-3
83.944130E-3
83.630562E-3
83.204269E-3
82.778549E-3
82.495880E-3
82.250977E-3
82.130814E-3
81.978035E-3
81.977463E-3
82.016945E-3
82.043266E-3
82.198334E-3
82.222366E-3
82.269859E-3
82.243538E-3
81.949997E-3
81.783485E-3
81.506538E-3
81.250763E-3
80.926323E-3
80.910873E-3
81.035614E-3
81.045914E-3
81.203842E-3
81.316566E-3
81.357765E-3
81.453323E-3
81.567764E-3
81.572342E-3
81.519699E-3
81.331444E-3
81.335449E-3
81.192398E-3
81.035042E-3
80.928612E-3
80.704880E-3
80.646515E-3
80.295181E-3
80.232239E-3
80.257416E-3
80.079460E-3
80.131531E-3
79.949570E-3
79.866600E-3
79.805946E-3
79.664040E-3
79.708099E-3
79.581642E-3
79.431152E-3
79.488373E-3
79.325867E-3
79.283524E-3
79.261208E-3
79.144478E-3
79.220581E-3
79.093552E-3
79.104996E-3
79.011726E-3
79.016304E-3
78.962517E-3
78.877258E-3
78.850365E-3
78.841782E-3
78.762817E-3
78.674698E-3
78.563118E-3
78.628349E-3
78.528214E-3
78.489876E-3
78.554535E-3
78.336525E-3
78.388596E-3
78.293037E-3
78.311348E-3
78.257561E-3
78.112793E-3
78.099632E-3
78.042984E-3
77.988625E-3
77.946854E-3
77.794075E-3
77.755737E-3
77.609825E-3
77.484512E-3
77.483368E-3
77.247047E-3
77.236748E-3
77.247047E-3
77.249908E-3
77.373505E-3
77.512550E-3
78.152275E-3
78.948212E-3
79.963303E-3
81.131172E-3
82.100487E-3
83.044624E-3
83.723259E-3
84.213638E-3
84.457970E-3
84.258842E-3
84.191322E-3
83.829117E-3
83.487511E-3
83.161926E-3
82.661819E-3
82.474709E-3
82.176018E-3
82.020950E-3
81.947708E-3
81.813812E-3
81.988907E-3
82.042122E-3
82.113075E-3
82.199478E-3
82.113647E-3
81.924820E-3
81.751442E-3
81.487656E-3
81.261063E-3
80.943489E-3
80.857658E-3
80.783272E-3
80.788994E-3
80.863953E-3
80.820465E-3
81.017303E-3
81.097984E-3
81.111145E-3
81.178665E-3
81.132889E-3
81.144333E-3
81.079674E-3
80.972672E-3
81.024742E-3
80.782127E-3
80.632782E-3
80.401039E-3
80.240250E-3
80.126381E-3
79.922676E-3
79.896927E-3
79.788208E-3
79.673767E-3
79.582214E-3
79.478645E-3
79.473495E-3
79.376221E-3
79.254913E-3
79.278374E-3
79.029465E-3
79.127312E-3
79.096413E-3
78.906441E-3
78.899574E-3
78.803444E-3
78.832054E-3
78.818321E-3
78.674698E-3
78.786278E-3
78.657532E-3
78.711891E-3
78.643799E-3
78.608322E-3
78.545952E-3
78.472137E-3
78.489876E-3
78.404045E-3
78.267288E-3
78.282166E-3
78.149414E-3
78.163147E-3
78.107071E-3
78.029823E-3
77.984619E-3
77.878761E-3
77.873611E-3
77.742004E-3
77.793503E-3
77.820969E-3
77.739143E-3
77.740860E-3
77.643585E-3
77.529716E-3
77.577209E-3
77.493095E-3
77.444458E-3
77.381516E-3
77.299690E-3
77.267075E-3
77.108002E-3
77.045059E-3
77.000999E-3
76.872253E-3
76.936913E-3
76.867676E-3
77.021027E-3
77.289963E-3
77.897644E-3
78.878975E-3
79.825974E-3
81.111717E-3
82.182312E-3
83.041191E-3
83.918381E-3
84.225655E-3
84.457397E-3
84.478569E-3
84.277153E-3
84.056854E-3
83.593941E-3
83.263779E-3
82.975960E-3
82.668114E-3
82.412910E-3
82.169724E-3
82.177734E-3
82.195473E-3
82.192039E-3
82.359695E-3
82.341957E-3
82.472420E-3
82.497597E-3
82.339668E-3
82.304192E-3
81.919670E-3
81.760597E-3
81.455040E-3
81.219864E-3
81.237030E-3
81.101418E-3
81.097984E-3
81.179810E-3
81.176376E-3
81.432724E-3
81.405830E-3
81.519127E-3
81.528282E-3
81.373215E-3
81.437302E-3
81.330872E-3
81.302834E-3
81.246185E-3
81.020164E-3
80.992126E-3
80.815887E-3
80.723763E-3
80.521202E-3
80.394745E-3
80.376434E-3
80.167580E-3
80.171013E-3
80.093765E-3
79.923248E-3
79.906082E-3
79.798508E-3
79.793358E-3
79.766464E-3
79.649734E-3
79.680634E-3
79.547882E-3
79.523277E-3
79.558754E-3
79.384804E-3
79.456329E-3
79.249191E-3
79.298973E-3
79.266357E-3
79.160500E-3
79.288101E-3
79.154205E-3
79.133606E-3
79.142761E-3
78.994560E-3
79.031181E-3
78.860664E-3
78.845787E-3
78.894997E-3
78.754234E-3
78.825760E-3
78.655815E-3
78.812599E-3
78.637505E-3
78.429794E-3
78.456116E-3
78.359413E-3
78.336525E-3
78.258705E-3
78.120804E-3
78.242111E-3
78.064156E-3
78.145981E-3
78.094482E-3
77.952003E-3
78.038406E-3
77.914810E-3
77.829552E-3
