Notes :


2023-10-23 ¿ÀÈÄ 9:17:36
Volts
Ch : LED 2,
417.279625E-3
417.014694E-3
417.957687E-3
416.360092E-3
417.832947E-3
417.359161E-3
417.062187E-3
417.711639E-3
416.517448E-3
417.941666E-3
417.331123E-3
417.608643E-3
418.081284E-3
416.605568E-3
417.836952E-3
417.314529E-3
417.247581E-3
417.727089E-3
416.357231E-3
417.573738E-3
416.915131E-3
416.280556E-3
416.958618E-3
415.592766E-3
416.726303E-3
416.032219E-3
415.715790E-3
416.399002E-3
415.469170E-3
417.648125E-3
419.219971E-3
421.880722E-3
426.567078E-3
429.421234E-3
434.599113E-3
437.319374E-3
439.449120E-3
441.631508E-3
440.796089E-3
441.399193E-3
439.447403E-3
437.547684E-3
436.087990E-3
432.606697E-3
432.109451E-3
430.117607E-3
428.573227E-3
428.564644E-3
426.836014E-3
427.965546E-3
427.444267E-3
427.007103E-3
427.790451E-3
426.838875E-3
428.172112E-3
427.607918E-3
426.708984E-3
427.067184E-3
425.164032E-3
425.733376E-3
424.954605E-3
424.441910E-3
425.522232E-3
424.630737E-3
425.966263E-3
425.975418E-3
425.778580E-3
427.114677E-3
425.936508E-3
426.861763E-3
426.310158E-3
425.483894E-3
426.066399E-3
424.531746E-3
424.920845E-3
424.133492E-3
423.324966E-3
423.869705E-3
422.660065E-3
423.285484E-3
422.584534E-3
421.541977E-3
422.131348E-3
420.845604E-3
421.382332E-3
420.973778E-3
420.715141E-3
421.399498E-3
420.388412E-3
421.233559E-3
420.900536E-3
420.244217E-3
421.343994E-3
420.332336E-3
420.939445E-3
420.639038E-3
419.971848E-3
421.365166E-3
420.088005E-3
420.774651E-3
420.457077E-3
419.522667E-3
420.817566E-3
419.314384E-3
419.732666E-3
419.459152E-3
418.469238E-3
420.016479E-3
418.517303E-3
418.857193E-3
418.615723E-3
417.571449E-3
419.032288E-3
417.495918E-3
417.953110E-3
418.036079E-3
417.004967E-3
418.690109E-3
417.273903E-3
417.643547E-3
417.570305E-3
416.465378E-3
417.962265E-3
416.421318E-3
416.677094E-3
416.662216E-3
415.896606E-3
417.046165E-3
415.258026E-3
416.120338E-3
418.023491E-3
419.899750E-3
425.384903E-3
428.114891E-3
432.736015E-3
437.119675E-3
439.416504E-3
443.194199E-3
442.347908E-3
442.476654E-3
441.909027E-3
438.991356E-3
438.741875E-3
435.088921E-3
433.415222E-3
432.486534E-3
429.846954E-3
430.698967E-3
428.495979E-3
428.297424E-3
429.043007E-3
428.026772E-3
430.355644E-3
429.257011E-3
429.843521E-3
430.656052E-3
429.515648E-3
430.740738E-3
428.305435E-3
427.673149E-3
427.159882E-3
425.769424E-3
426.444626E-3
424.404716E-3
424.485970E-3
425.102234E-3
424.077415E-3
426.139641E-3
425.142288E-3
425.482178E-3
426.095009E-3
424.805832E-3
425.947380E-3
424.129486E-3
423.762131E-3
423.924065E-3
422.268105E-3
423.096085E-3
420.961189E-3
420.430183E-3
420.387268E-3
418.943596E-3
420.157242E-3
418.351364E-3
418.353081E-3
418.580818E-3
417.424965E-3
418.663216E-3
417.319679E-3
417.275047E-3
417.603493E-3
416.342354E-3
417.824936E-3
416.325188E-3
416.488838E-3
417.178345E-3
416.843605E-3
418.201447E-3
416.512871E-3
416.682816E-3
417.291641E-3
416.277695E-3
417.868423E-3
416.419029E-3
416.595268E-3
416.932869E-3
415.902901E-3
417.489052E-3
416.076279E-3
416.222191E-3
416.491699E-3
415.793610E-3
416.975212E-3
415.345573E-3
415.341568E-3
415.775871E-3
415.345001E-3
416.462517E-3
414.929581E-3
414.935303E-3
415.536690E-3
414.398575E-3
416.014481E-3
414.629173E-3
414.747047E-3
415.236282E-3
414.058685E-3
415.508080E-3
413.946533E-3
413.852119E-3
414.304733E-3
413.421822E-3
414.668083E-3
413.468742E-3
413.934517E-3
415.981865E-3
417.261314E-3
422.526741E-3
425.630379E-3
429.989433E-3
434.425735E-3
436.248779E-3
439.825058E-3
439.326668E-3
438.928413E-3
438.601685E-3
435.491753E-3
435.236549E-3
431.995583E-3
430.389977E-3
429.466438E-3
427.123260E-3
427.735519E-3
426.216316E-3
426.048660E-3
426.803398E-3
425.898743E-3
427.674866E-3
427.097511E-3
427.423096E-3
428.172684E-3
426.790237E-3
427.364159E-3
425.613785E-3
424.744034E-3
424.764061E-3
422.668648E-3
423.887444E-3
423.022270E-3
423.005676E-3
424.146080E-3
423.375320E-3
424.853325E-3
424.056816E-3
424.098587E-3
424.972343E-3
423.282051E-3
424.489403E-3
423.243713E-3
422.773933E-3
423.359299E-3
421.524239E-3
422.567940E-3
421.025848E-3
420.731163E-3
421.063042E-3
419.269753E-3
420.471954E-3
419.265175E-3
418.937302E-3
419.619942E-3
418.007469E-3
419.330978E-3
418.225479E-3
418.005753E-3
418.930435E-3
417.481041E-3
418.844032E-3
417.880440E-3
417.669868E-3
418.378830E-3
416.989517E-3
418.304443E-3
417.481613E-3
417.342567E-3
418.254089E-3
416.775513E-3
418.068123E-3
417.178917E-3
416.827011E-3
417.673302E-3
416.115761E-3
417.465019E-3
416.771507E-3
416.397858E-3
416.974068E-3
415.310097E-3
416.701698E-3
416.052818E-3
415.845680E-3
416.431618E-3
414.524460E-3
416.100311E-3
415.219688E-3
414.821434E-3
415.411377E-3
413.511086E-3
415.160751E-3
414.295006E-3
413.939667E-3
414.364243E-3
412.817001E-3
414.479828E-3
413.591766E-3
413.271332E-3
414.310455E-3
413.842964E-3
417.839813E-3
420.546913E-3
424.133492E-3
428.809547E-3
430.918121E-3
435.444832E-3
436.627579E-3
437.242126E-3
437.825203E-3
435.378456E-3
435.269737E-3
432.732582E-3
430.321884E-3
429.216385E-3
426.326752E-3
426.551628E-3
424.812698E-3
424.099731E-3
424.147797E-3
422.646904E-3
424.393272E-3
424.098015E-3
424.275970E-3
425.180054E-3
423.734665E-3
424.689674E-3
423.209381E-3
422.181702E-3
422.276115E-3
420.622444E-3
421.809196E-3
421.344566E-3
421.198654E-3
422.251511E-3
421.557999E-3
423.444557E-3
423.173904E-3
423.545837E-3
423.822212E-3
422.091866E-3
423.100090E-3
421.932793E-3
421.140289E-3
421.389198E-3
419.900322E-3
420.750618E-3
419.843102E-3
419.503212E-3
419.630241E-3
417.986870E-3
418.925858E-3
418.213463E-3
417.884445E-3
418.124199E-3
416.707420E-3
417.830658E-3
417.295647E-3
416.704559E-3
417.569160E-3
416.227341E-3
417.406654E-3
416.980934E-3
417.103958E-3
417.456436E-3
416.075134E-3
417.287064E-3
416.794968E-3
416.394424E-3
417.252159E-3
415.997887E-3
417.307663E-3
416.883659E-3
416.432762E-3
417.350006E-3
416.118622E-3
417.463875E-3
417.014694E-3
416.751480E-3
417.633247E-3
416.336060E-3
417.409515E-3
416.584396E-3
415.817070E-3
416.574097E-3
415.212822E-3
416.342354E-3
415.874863E-3
415.290070E-3
415.957832E-3
414.396858E-3
415.176201E-3
414.599419E-3
414.347649E-3
416.005325E-3
416.160393E-3
419.532394E-3
422.304153E-3
425.532532E-3
430.325890E-3
432.350349E-3
436.088562E-3
437.619209E-3
437.993431E-3
438.894081E-3
436.350632E-3
435.575294E-3
433.116531E-3
430.577087E-3
429.831505E-3
427.058601E-3
426.669502E-3
425.521088E-3
424.286842E-3
424.919128E-3
423.882866E-3
424.906540E-3
424.548340E-3
424.028206E-3
424.830437E-3
423.166466E-3
423.393631E-3
422.483253E-3
421.485901E-3
422.563934E-3
421.609497E-3
422.755623E-3
422.699547E-3
422.693825E-3
424.473381E-3
424.040222E-3
425.048447E-3
425.135994E-3
424.293709E-3
425.204086E-3
423.683739E-3
423.896027E-3
423.119545E-3
422.048950E-3
423.175621E-3
421.577454E-3
421.929359E-3
421.452141E-3
420.137787E-3
421.311951E-3
419.800758E-3
420.211601E-3
420.082855E-3
418.980217E-3
420.526314E-3
419.152451E-3
419.770432E-3
419.611931E-3
418.523026E-3
420.276260E-3
419.119263E-3
419.645119E-3
419.810486E-3
418.917847E-3
420.640755E-3
419.389343E-3
419.852829E-3
420.113182E-3
419.773865E-3
421.171761E-3
419.556999E-3
420.143509E-3
420.331764E-3
419.160461E-3
421.427536E-3
419.860268E-3
420.413017E-3
420.876503E-3
419.625664E-3
421.572876E-3
419.866562E-3
420.117760E-3
420.426750E-3
419.195938E-3
420.854187E-3
418.852615E-3
419.053459E-3
419.273186E-3
417.847824E-3
419.537544E-3
417.638969E-3
418.077278E-3
419.313812E-3
419.716644E-3
424.065971E-3
425.936508E-3
430.327606E-3
435.060883E-3
437.537956E-3
442.326164E-3
442.545891E-3
443.668556E-3
444.027328E-3
442.414284E-3
441.971970E-3
438.316727E-3
436.501694E-3
435.211945E-3
432.437897E-3
433.260727E-3
430.951309E-3
430.816841E-3
431.287193E-3
430.101013E-3
431.938934E-3
430.752754E-3
431.423950E-3
432.329750E-3
431.357002E-3
432.514572E-3
430.281258E-3
429.520798E-3
429.141998E-3
427.664566E-3
428.569794E-3
426.973343E-3
427.171326E-3
427.769279E-3
427.300072E-3
428.875923E-3
427.676582E-3
427.958679E-3
428.688812E-3
427.839088E-3
429.032707E-3
427.189064E-3
426.986504E-3
427.166748E-3
425.782585E-3
427.002525E-3
425.102806E-3
424.655342E-3
424.683952E-3
423.203659E-3
424.651909E-3
423.078918E-3
422.961044E-3
423.212242E-3
422.397423E-3
423.433113E-3
421.686745E-3
421.609497E-3
422.047806E-3
421.129990E-3
422.608566E-3
421.124268E-3
421.145439E-3
421.572876E-3
420.340347E-3
421.801758E-3
420.391273E-3
420.279121E-3
420.861053E-3
419.847107E-3
421.591187E-3
420.283127E-3
420.334053E-3
420.843315E-3
419.654274E-3
421.170616E-3
419.779015E-3
419.729233E-3
420.308304E-3
419.107819E-3
420.562935E-3
419.145584E-3
418.961906E-3
419.546127E-3
418.050385E-3
419.532394E-3
418.081284E-3
417.855263E-3
418.154526E-3
417.253304E-3
418.165398E-3
416.585541E-3
416.346359E-3
416.849899E-3
415.806198E-3
418.099022E-3
418.924141E-3
422.007179E-3
426.717567E-3
429.723930E-3
435.028267E-3
437.156296E-3
439.454269E-3
441.459846E-3
440.552330E-3
441.317940E-3
438.899231E-3
436.818123E-3
435.831070E-3
432.689095E-3
432.397270E-3
430.176544E-3
429.219246E-3
429.182053E-3
427.010536E-3
428.593254E-3
427.888298E-3
428.290558E-3
429.630089E-3
428.706551E-3
430.073547E-3
428.857040E-3
428.271675E-3
427.987862E-3
425.752831E-3
426.196289E-3
424.710846E-3
424.346352E-3
425.298500E-3
423.906326E-3
425.597763E-3
424.911118E-3
424.995232E-3
426.266670E-3
425.113678E-3
426.459503E-3
425.480461E-3
424.953461E-3
425.484467E-3
423.723221E-3
424.725151E-3
423.425674E-3
422.776222E-3
423.472595E-3
421.561432E-3
422.579384E-3
421.327972E-3
420.925713E-3
421.386337E-3
419.737244E-3
421.005821E-3
419.988441E-3
419.672585E-3
420.462227E-3
419.046021E-3
420.471382E-3
419.329834E-3
419.128418E-3
419.915771E-3
418.583107E-3
420.026207E-3
419.278336E-3
419.063759E-3
419.844246E-3
418.518448E-3
419.917488E-3
419.154167E-3
418.856621E-3
419.586182E-3
417.958832E-3
419.696045E-3
419.092941E-3
418.976784E-3
419.835091E-3
418.170547E-3
419.735527E-3
418.854332E-3
418.543625E-3
419.110680E-3
417.596054E-3
419.032288E-3
418.214607E-3
417.781448E-3
418.432617E-3
416.773796E-3
418.198586E-3
417.341423E-3
416.860771E-3
417.415810E-3
416.041946E-3
417.878723E-3
417.745399E-3
419.107246E-3
422.388840E-3
424.476814E-3
430.094147E-3
433.272743E-3
436.596680E-3
439.961815E-3
440.313721E-3
442.718124E-3
441.636086E-3
440.315437E-3
439.270592E-3
435.961533E-3
435.505486E-3
433.049583E-3
431.279182E-3
430.888367E-3
428.838158E-3
429.940796E-3
428.953171E-3
428.799820E-3
429.937935E-3
429.030991E-3
430.732727E-3
430.014038E-3
429.275322E-3
429.154587E-3
427.134132E-3
427.792740E-3
426.637459E-3
426.148224E-3
426.892662E-3
425.816917E-3
427.541542E-3
427.427101E-3
427.762985E-3
428.673363E-3
427.539825E-3
429.064751E-3
428.362656E-3
427.820778E-3
428.038788E-3
426.399994E-3
427.230835E-3
426.159668E-3
425.435257E-3
425.828362E-3
424.131203E-3
425.078201E-3
424.020767E-3
423.212814E-3
423.744392E-3
422.188568E-3
423.389053E-3
422.697830E-3
422.189713E-3
422.808266E-3
421.446419E-3
422.554779E-3
421.923637E-3
421.570015E-3
422.478104E-3
421.205521E-3
422.427177E-3
421.840096E-3
421.504211E-3
422.321892E-3
420.976639E-3
422.178841E-3
421.622086E-3
421.196365E-3
421.924782E-3
420.588684E-3
421.814346E-3
421.467590E-3
421.067619E-3
421.880150E-3
420.437622E-3
421.506500E-3
420.933151E-3
420.565224E-3
421.541405E-3
420.104599E-3
421.369743E-3
420.697975E-3
420.046806E-3
420.756912E-3
419.445992E-3
420.564651E-3
420.027351E-3
419.365883E-3
420.094872E-3
418.593407E-3
419.418526E-3
418.708420E-3
418.121910E-3
419.342422E-3
418.934441E-3
421.730804E-3
424.366379E-3
427.667427E-3
432.983780E-3
435.749817E-3
440.088272E-3
442.581940E-3
444.373512E-3
445.884132E-3
444.342041E-3
444.217300E-3
442.074394E-3
440.037346E-3
438.925552E-3
435.872841E-3
435.285187E-3
433.866692E-3
432.598114E-3
433.055305E-3
431.897163E-3
432.987213E-3
433.168602E-3
433.180618E-3
434.608269E-3
433.709908E-3
434.409714E-3
433.752823E-3
432.302856E-3
432.290268E-3
430.114746E-3
429.861259E-3
428.913116E-3
427.902031E-3
429.192924E-3
428.041077E-3
428.948593E-3
428.965187E-3
428.775787E-3
430.432892E-3
429.365730E-3
429.915047E-3
429.511070E-3
428.379250E-3
429.323387E-3
427.559280E-3
427.603912E-3
427.025414E-3
425.797462E-3
426.945305E-3
425.286484E-3
425.513077E-3
424.920273E-3
423.727798E-3
425.247574E-3
423.717499E-3
423.968697E-3
423.715782E-3
422.642326E-3
424.125481E-3
422.694397E-3
423.077774E-3
423.238564E-3
422.332764E-3
423.882294E-3
422.436905E-3
422.883797E-3
423.051453E-3
422.102737E-3
423.693466E-3
422.125053E-3
422.491837E-3
422.860909E-3
421.681023E-3
423.501205E-3
421.870995E-3
422.061539E-3
422.294426E-3
421.103668E-3
422.951889E-3
421.102524E-3
421.283340E-3
421.829224E-3
420.574951E-3
422.381401E-3
420.474815E-3
420.709419E-3
421.011543E-3
419.453430E-3
421.299934E-3
419.473457E-3
419.488335E-3
419.866562E-3
418.406868E-3
420.177269E-3
418.268394E-3
418.171692E-3
418.481255E-3
417.125702E-3
418.750763E-3
417.473030E-3
418.913841E-3
421.656418E-3
423.745537E-3
429.535675E-3
432.070541E-3
436.222458E-3
440.126610E-3
441.259575E-3
444.075966E-3
442.356491E-3
441.588020E-3
440.536880E-3
437.498474E-3
437.391472E-3
434.059525E-3
432.810402E-3
432.308578E-3
430.321312E-3
431.383324E-3
429.638100E-3
429.984856E-3
430.886078E-3
430.277824E-3
432.325745E-3
431.170464E-3
431.355858E-3
431.619072E-3
429.943657E-3
430.466080E-3
427.976990E-3
427.076340E-3
426.947594E-3
426.005745E-3
427.157021E-3
425.778580E-3
426.268959E-3
427.189064E-3
426.528168E-3
428.355217E-3
426.936722E-3
427.067757E-3
427.251434E-3
426.015472E-3
427.312660E-3
425.542259E-3
425.327110E-3
425.341988E-3
424.423599E-3
425.206947E-3
423.177910E-3
422.858047E-3
423.217392E-3
421.936226E-3
423.265457E-3
421.725655E-3
421.538544E-3
421.811485E-3
421.190071E-3
422.072411E-3
420.528030E-3
420.583534E-3
421.087074E-3
420.164108E-3
421.646118E-3
420.304871E-3
420.341492E-3
420.877647E-3
419.884300E-3
421.376038E-3
420.057678E-3
420.081711E-3
420.593262E-3
419.483185E-3
420.996666E-3
419.621086E-3
419.617653E-3
420.265388E-3
419.214249E-3
420.734024E-3
419.283485E-3
419.133568E-3
419.585609E-3
418.228340E-3
419.825935E-3
418.620872E-3
418.596268E-3
419.347000E-3
417.930222E-3
419.401360E-3
417.988586E-3
417.942238E-3
418.387413E-3
416.829300E-3
418.459511E-3
417.212105E-3
417.103386E-3
417.707634E-3
416.261101E-3
417.658997E-3
416.451645E-3
416.952324E-3
419.088364E-3
420.427895E-3
425.470161E-3
428.344917E-3
432.353210E-3
436.671066E-3
438.267517E-3
441.432381E-3
