Notes :


2023-11-04 ¿ÀÈÄ 9:48:02
Volts
Ch : LED 2,
485.379982E-3
485.289001E-3
485.164261E-3
485.117912E-3
485.133934E-3
485.045242E-3
485.060120E-3
484.959984E-3
484.972572E-3
484.983444E-3
484.830093E-3
484.768867E-3
484.707069E-3
484.533119E-3
484.549141E-3
484.380913E-3
484.351158E-3
484.122849E-3
484.031868E-3
483.949471E-3
483.903122E-3
483.754349E-3
483.616447E-3
483.626747E-3
483.503723E-3
483.277130E-3
483.171844E-3
483.217049E-3
483.114624E-3
483.100891E-3
482.908058E-3
482.885170E-3
482.759857E-3
482.513237E-3
482.460594E-3
482.389641E-3
482.139587E-3
481.789970E-3
481.537628E-3
481.360245E-3
481.220627E-3
481.231499E-3
481.278419E-3
481.591415E-3
482.824516E-3
484.590340E-3
487.078857E-3
489.922714E-3
493.044662E-3
495.899391E-3
498.126411E-3
499.875069E-3
500.592613E-3
500.614929E-3
500.079918E-3
499.077988E-3
497.905540E-3
496.581459E-3
495.294571E-3
494.357872E-3
493.533897E-3
492.839813E-3
492.564011E-3
492.465019E-3
492.605782E-3
492.721939E-3
492.986870E-3
493.205452E-3
493.299866E-3
493.227768E-3
492.702484E-3
492.180634E-3
491.591263E-3
490.999603E-3
490.683746E-3
490.489197E-3
490.612793E-3
490.743256E-3
490.748978E-3
491.049385E-3
491.250229E-3
491.390419E-3
491.465950E-3
491.380119E-3
491.273689E-3
490.907478E-3
490.671158E-3
490.384483E-3
489.926147E-3
489.584541E-3
489.168549E-3
488.830376E-3
488.501358E-3
488.077354E-3
487.914276E-3
487.660217E-3
487.609863E-3
487.378693E-3
487.196732E-3
487.025070E-3
486.863708E-3
486.820793E-3
486.760139E-3
486.594200E-3
486.633110E-3
486.451721E-3
486.484337E-3
486.466599E-3
486.470604E-3
486.409378E-3
486.245155E-3
486.212540E-3
486.329842E-3
486.110115E-3
486.048889E-3
485.845757E-3
485.795975E-3
485.827446E-3
485.575676E-3
485.545349E-3
485.418320E-3
485.416031E-3
485.185432E-3
485.051537E-3
485.014915E-3
484.842682E-3
484.789467E-3
484.676170E-3
484.511948E-3
484.466743E-3
484.249878E-3
484.231567E-3
483.929443E-3
483.722305E-3
483.524895E-3
483.271980E-3
483.105469E-3
482.896042E-3
482.769012E-3
482.761574E-3
482.671165E-3
482.746696E-3
483.276558E-3
484.461594E-3
486.518669E-3
489.035225E-3
491.958618E-3
494.952393E-3
497.614288E-3
499.627876E-3
500.737381E-3
501.247787E-3
500.963402E-3
500.211525E-3
499.145508E-3
497.793388E-3
496.519089E-3
495.305443E-3
494.380760E-3
493.624878E-3
493.014908E-3
492.749405E-3
492.717361E-3
492.736244E-3
493.141365E-3
493.197441E-3
493.290138E-3
493.246078E-3
492.811203E-3
492.323112E-3
491.710281E-3
491.332054E-3
491.241074E-3
491.231346E-3
491.367531E-3
491.544342E-3
491.825867E-3
492.112541E-3
492.246437E-3
492.467880E-3
492.480469E-3
492.393494E-3
492.150307E-3
491.894531E-3
491.472244E-3
490.937805E-3
490.568161E-3
490.052032E-3
489.622307E-3
489.242363E-3
488.814354E-3
488.373756E-3
488.159180E-3
487.819862E-3
487.676239E-3
487.502861E-3
487.315178E-3
487.173271E-3
486.930656E-3
486.845970E-3
486.861992E-3
486.692619E-3
486.571312E-3
486.480331E-3
486.383629E-3
486.237144E-3
486.121559E-3
485.983086E-3
485.900688E-3
485.934448E-3
485.756493E-3
485.609436E-3
485.514450E-3
485.361671E-3
485.303307E-3
485.196877E-3
484.974289E-3
484.998894E-3
484.793472E-3
484.668159E-3
484.486198E-3
484.357452E-3
484.260750E-3
483.950615E-3
483.823013E-3
483.544350E-3
483.333206E-3
483.046532E-3
482.685471E-3
482.426834E-3
482.120132E-3
481.992531E-3
481.949615E-3
481.857491E-3
482.185364E-3
482.896042E-3
484.398651E-3
486.665726E-3
489.385986E-3
492.329407E-3
495.125771E-3
497.385406E-3
499.131775E-3
500.123978E-3
500.309944E-3
499.698257E-3
498.768425E-3
497.724152E-3
496.501350E-3
495.272827E-3
494.209099E-3
493.406868E-3
493.034363E-3
492.506218E-3
492.334557E-3
492.296791E-3
492.399788E-3
492.507362E-3
492.569733E-3
492.705345E-3
492.376328E-3
491.790962E-3
491.308594E-3
490.732384E-3
490.333557E-3
490.118408E-3
490.170479E-3
490.350151E-3
490.627670E-3
490.968132E-3
491.370964E-3
491.477394E-3
491.620445E-3
491.611290E-3
491.499710E-3
491.214180E-3
490.942955E-3
490.526962E-3
490.028572E-3
489.631462E-3
489.170265E-3
488.729095E-3
488.359451E-3
487.901688E-3
487.703705E-3
487.359238E-3
486.988449E-3
486.899757E-3
486.746979E-3
486.630821E-3
486.514091E-3
486.457443E-3
486.332130E-3
486.224556E-3
486.267471E-3
486.219406E-3
486.092377E-3
486.056328E-3
485.784531E-3
485.862350E-3
485.709572E-3
485.663223E-3
485.605431E-3
485.526466E-3
485.314751E-3
485.405731E-3
485.248947E-3
485.245514E-3
485.077858E-3
485.109901E-3
484.893608E-3
484.792328E-3
484.716225E-3
484.458733E-3
484.495354E-3
484.399223E-3
484.249878E-3
484.213829E-3
484.018135E-3
483.939171E-3
483.805847E-3
483.608437E-3
483.550644E-3
483.110619E-3
483.010483E-3
482.722092E-3
482.466888E-3
482.431984E-3
482.415962E-3
482.627678E-3
483.170700E-3
484.551430E-3
486.694336E-3
489.384270E-3
492.578316E-3
495.646477E-3
498.305511E-3
500.440979E-3
502.002525E-3
502.495193E-3
502.308655E-3
501.529884E-3
500.480461E-3
499.114037E-3
497.933578E-3
496.832657E-3
495.834160E-3
495.124626E-3
494.710350E-3
494.693756E-3
494.629669E-3
494.846535E-3
495.136070E-3
495.289993E-3
495.469093E-3
495.498276E-3
495.357513E-3
494.767570E-3
493.829155E-3
493.304443E-3
492.932510E-3
492.551422E-3
492.407799E-3
492.379761E-3
492.569160E-3
492.724228E-3
492.864418E-3
493.073273E-3
493.093300E-3
493.165398E-3
492.918777E-3
492.670441E-3
492.397499E-3
491.998672E-3
491.500854E-3
491.200447E-3
490.695763E-3
490.351295E-3
489.915848E-3
489.594269E-3
489.235497E-3
488.946533E-3
488.773155E-3
488.674164E-3
488.490486E-3
488.393784E-3
488.277626E-3
488.178062E-3
488.050461E-3
487.909126E-3
487.646484E-3
487.677383E-3
487.688828E-3
487.552071E-3
487.619591E-3
487.586403E-3
487.506294E-3
487.530899E-3
487.334633E-3
487.255096E-3
487.192726E-3
487.090874E-3
487.003326E-3
486.863136E-3
486.796761E-3
486.682892E-3
486.597633E-3
486.457443E-3
486.429977E-3
486.365318E-3
486.072350E-3
485.957909E-3
486.076927E-3
485.895538E-3
485.824585E-3
485.797691E-3
485.572243E-3
485.632896E-3
485.330772E-3
485.184288E-3
484.985161E-3
484.701347E-3
484.493637E-3
484.178925E-3
484.034729E-3
483.948326E-3
483.786392E-3
484.071922E-3
484.393501E-3
485.266685E-3
486.997604E-3
489.494133E-3
492.518234E-3
495.593834E-3
498.561859E-3
501.056099E-3
502.879143E-3
503.811264E-3
503.840446E-3
503.306007E-3
502.351570E-3
501.189423E-3
499.653625E-3
498.517799E-3
497.533035E-3
496.682167E-3
496.018410E-3
495.780945E-3
495.652771E-3
495.694542E-3
495.852470E-3
496.104240E-3
496.351433E-3
496.285057E-3
496.192932E-3
495.708847E-3
494.986153E-3
494.449425E-3
493.944168E-3
493.727303E-3
493.615723E-3
493.722153E-3
493.985939E-3
494.231987E-3
494.532967E-3
494.836807E-3
494.922066E-3
494.961548E-3
494.814491E-3
494.454002E-3
494.113541E-3
493.570518E-3
493.237495E-3
492.811775E-3
492.325401E-3
491.899681E-3
491.505432E-3
491.301155E-3
491.041946E-3
490.680885E-3
490.461731E-3
490.217400E-3
489.985657E-3
489.890671E-3
489.777946E-3
489.757919E-3
489.597130E-3
489.611435E-3
489.329910E-3
489.198303E-3
489.212036E-3
489.054108E-3
489.101028E-3
489.002609E-3
488.905334E-3
488.842964E-3
488.719940E-3
488.682175E-3
488.646126E-3
488.573456E-3
488.449860E-3
488.241005E-3
488.251877E-3
488.009834E-3
487.950325E-3
487.879372E-3
487.680244E-3
487.610435E-3
487.391853E-3
487.251663E-3
487.171555E-3
486.906052E-3
486.653709E-3
486.554146E-3
486.447144E-3
486.166191E-3
485.987091E-3
485.691833E-3
485.464668E-3
485.172272E-3
484.921074E-3
484.639549E-3
484.772301E-3
484.684753E-3
484.755707E-3
485.255241E-3
486.377907E-3
488.289070E-3
490.871429E-3
493.711853E-3
496.873283E-3
499.488258E-3
501.710129E-3
503.088570E-3
503.672791E-3
503.457069E-3
502.674866E-3
501.662064E-3
500.262451E-3
498.760986E-3
497.717857E-3
496.598053E-3
495.847321E-3
495.220757E-3
494.882584E-3
494.689178E-3
494.664001E-3
494.904900E-3
495.049667E-3
495.041656E-3
494.819069E-3
494.377327E-3
493.826294E-3
493.245506E-3
492.912483E-3
492.879868E-3
492.787170E-3
492.951393E-3
493.175697E-3
493.453789E-3
493.781090E-3
494.050026E-3
494.227982E-3
494.205093E-3
493.938446E-3
493.892670E-3
493.600273E-3
493.152809E-3
492.689323E-3
492.191505E-3
491.780663E-3
491.271400E-3
490.864563E-3
490.389633E-3
490.067482E-3
489.828873E-3
489.602280E-3
489.442635E-3
489.197731E-3
488.996887E-3
488.989449E-3
488.849258E-3
488.746262E-3
488.682747E-3
488.639259E-3
488.620377E-3
488.505936E-3
488.605499E-3
488.589478E-3
488.500786E-3
488.562012E-3
488.322258E-3
488.309669E-3
488.330841E-3
488.205528E-3
488.220978E-3
488.018417E-3
487.957191E-3
487.865639E-3
487.685966E-3
487.727737E-3
487.554932E-3
487.336922E-3
487.273407E-3
487.070274E-3
487.019348E-3
486.848831E-3
487.047386E-3
486.821365E-3
486.621666E-3
486.550713E-3
486.406517E-3
486.312103E-3
486.242294E-3
486.063766E-3
485.874939E-3
485.772514E-3
485.567093E-3
485.296440E-3
485.012054E-3
484.917068E-3
484.767723E-3
484.825516E-3
484.961128E-3
485.477829E-3
486.863708E-3
488.896179E-3
491.804695E-3
495.009041E-3
498.288918E-3
501.402855E-3
503.732872E-3
505.304718E-3
506.030846E-3
505.658340E-3
505.067825E-3
503.855896E-3
502.625084E-3
501.284409E-3
500.090790E-3
499.001312E-3
498.120689E-3
497.728729E-3
497.222328E-3
497.396851E-3
497.601700E-3
497.843170E-3
498.173904E-3
498.318672E-3
498.402214E-3
498.172760E-3
497.637749E-3
497.159386E-3
496.454430E-3
495.843887E-3
495.446777E-3
495.233345E-3
495.293999E-3
495.435905E-3
495.433617E-3
495.773506E-3
495.905685E-3
496.081352E-3
496.052742E-3
495.924568E-3
495.774651E-3
495.453072E-3
495.126915E-3
494.759560E-3
494.157028E-3
493.780518E-3
493.259239E-3
492.887306E-3
492.534256E-3
492.177200E-3
491.943741E-3
491.542053E-3
491.536903E-3
491.224480E-3
490.937805E-3
490.930367E-3
490.651703E-3
490.573311E-3
490.430832E-3
490.361023E-3
490.319824E-3
490.080643E-3
490.081215E-3
489.995956E-3
489.963913E-3
489.949608E-3
489.755058E-3
489.680672E-3
489.636040E-3
489.454651E-3
489.252090E-3
489.146805E-3
489.056969E-3
489.066696E-3
488.892174E-3
488.812637E-3
488.622093E-3
488.543129E-3
488.426971E-3
488.452148E-3
488.301659E-3
488.041306E-3
487.903976E-3
487.837029E-3
487.721443E-3
487.701988E-3
487.786102E-3
487.560081E-3
487.393570E-3
487.217903E-3
487.207603E-3
487.075996E-3
486.867142E-3
486.658859E-3
486.460876E-3
486.421967E-3
486.162758E-3
485.857773E-3
485.686111E-3
485.591698E-3
485.758781E-3
485.920143E-3
486.710358E-3
488.314247E-3
490.630531E-3
493.758774E-3
496.852112E-3
500.059319E-3
502.783585E-3
504.868698E-3
506.153297E-3
506.422234E-3
506.011963E-3
504.904747E-3
503.692818E-3
502.364159E-3
500.952530E-3
499.658203E-3
498.608780E-3
497.809982E-3
497.344780E-3
497.102165E-3
497.134209E-3
497.239494E-3
497.427177E-3
497.708130E-3
497.775078E-3
497.759056E-3
497.464943E-3
496.820068E-3
496.199226E-3
495.952606E-3
495.473099E-3
495.271683E-3
495.182991E-3
495.430756E-3
495.677948E-3
495.900536E-3
496.202087E-3
496.330833E-3
496.337700E-3
496.278191E-3
496.064758E-3
495.797539E-3
495.374107E-3
494.982147E-3
494.486618E-3
493.876648E-3
493.523598E-3
493.098450E-3
492.800331E-3
492.435265E-3
492.225266E-3
491.912270E-3
491.609573E-3
491.415024E-3
491.378975E-3
491.168976E-3
490.925217E-3
490.844536E-3
490.884590E-3
490.739250E-3
490.671730E-3
490.649986E-3
490.490341E-3
490.492630E-3
490.295792E-3
490.339279E-3
490.336418E-3
490.189362E-3
490.159607E-3
490.026283E-3
489.955902E-3
489.931297E-3
489.925575E-3
489.792824E-3
489.585686E-3
489.446640E-3
489.329910E-3
489.219475E-3
489.052391E-3
488.853836E-3
488.742256E-3
488.661575E-3
488.396645E-3
488.338280E-3
488.214684E-3
488.162613E-3
488.108253E-3
487.927437E-3
487.786102E-3
487.621307E-3
487.469101E-3
487.352943E-3
486.977005E-3
486.895752E-3
486.581039E-3
486.321831E-3
486.207962E-3
486.153030E-3
486.131287E-3
486.013985E-3
486.271477E-3
487.305450E-3
489.046097E-3
491.627884E-3
494.469452E-3
497.454643E-3
500.336266E-3
502.448845E-3
503.980064E-3
504.621506E-3
504.599762E-3
503.876495E-3
502.584457E-3
501.360512E-3
499.940872E-3
498.544693E-3
497.401428E-3
496.309662E-3
495.520592E-3
495.058250E-3
494.768715E-3
494.745255E-3
494.725800E-3
494.816780E-3
494.678879E-3
494.586754E-3
494.452858E-3
493.803406E-3
493.372536E-3
493.024063E-3
492.890167E-3
492.950249E-3
492.957687E-3
493.260384E-3
493.553925E-3
493.927002E-3
494.340134E-3
494.387054E-3
494.572449E-3
494.420242E-3
494.027710E-3
493.853760E-3
493.445206E-3
493.014336E-3
492.460442E-3
492.006111E-3
491.555786E-3
491.004753E-3
490.620232E-3
490.218544E-3
489.818573E-3
489.598274E-3
489.208031E-3
489.076424E-3
488.938522E-3
488.921356E-3
488.822937E-3
488.638115E-3
488.775444E-3
488.621521E-3
488.497925E-3
488.499641E-3
488.384056E-3
488.430977E-3
488.360596E-3
488.297081E-3
488.242722E-3
487.919426E-3
487.968063E-3
487.883377E-3
487.864494E-3
487.825012E-3
487.564659E-3
487.549210E-3
487.443352E-3
487.281418E-3
487.204742E-3
487.062263E-3
487.026787E-3
486.815643E-3
486.641121E-3
486.581612E-3
486.488914E-3
486.528397E-3
486.360741E-3
486.265182E-3
486.165047E-3
486.023712E-3
485.985374E-3
485.822868E-3
485.663795E-3
485.541344E-3
485.444069E-3
485.194588E-3
484.899902E-3
484.638977E-3
484.553719E-3
484.364319E-3
484.404945E-3
484.503365E-3
485.045815E-3
486.356735E-3
488.423538E-3
491.170692E-3
494.312668E-3
497.514725E-3
500.664711E-3
502.948952E-3
504.569435E-3
505.417442E-3
505.561638E-3
504.767418E-3
503.503990E-3
502.155304E-3
500.752258E-3
499.384117E-3
498.352432E-3
497.387123E-3
496.890450E-3
496.538544E-3
496.326256E-3
496.477318E-3
496.593475E-3
496.809769E-3
496.992874E-3
497.002029E-3
497.007179E-3
496.583176E-3
495.928574E-3
495.368958E-3
494.852829E-3
494.625664E-3
494.410515E-3
494.437408E-3
494.660568E-3
494.750404E-3
495.101166E-3
495.269966E-3
495.450783E-3
495.521736E-3
495.378113E-3
495.283127E-3
494.956970E-3
494.625092E-3
494.154167E-3
493.617439E-3
493.136787E-3
492.737389E-3
492.314529E-3
491.884232E-3
491.488838E-3
491.209602E-3
490.956688E-3
490.743256E-3
490.537834E-3
490.395355E-3
490.450859E-3
490.164757E-3
490.093803E-3
489.945602E-3
489.912987E-3
489.807129E-3
489.652634E-3
489.700699E-3
489.486694E-3
489.461517E-3
489.456367E-3
489.338493E-3
489.315605E-3
489.256668E-3
489.134789E-3
489.107323E-3
488.833237E-3
488.805199E-3
488.674736E-3
488.595772E-3
488.537407E-3
488.222122E-3
488.111115E-3
487.907982E-3
487.557220E-3
487.569237E-3
487.432480E-3
487.447929E-3
487.343788E-3
487.190437E-3
487.137222E-3
487.030792E-3
486.938667E-3
486.886597E-3
486.746407E-3
486.670876E-3
486.536980E-3
486.415100E-3
486.274338E-3
486.103249E-3
486.045456E-3
