Notes :


2023-10-31 ¿ÀÀü 12:01:38
Volts
Ch : LED 2,
871.094513E-3
871.022415E-3
870.045662E-3
870.360947E-3
869.223404E-3
869.599342E-3
869.674301E-3
868.701553E-3
869.711494E-3
868.723869E-3
869.047737E-3
869.187355E-3
868.856621E-3
869.843102E-3
868.612289E-3
868.275833E-3
867.689896E-3
867.026711E-3
867.624664E-3
866.438484E-3
866.936874E-3
867.258453E-3
866.774368E-3
867.586899E-3
866.238213E-3
866.172981E-3
866.308022E-3
867.549133E-3
871.566582E-3
874.880219E-3
881.251717E-3
889.346695E-3
895.410919E-3
902.238464E-3
904.984474E-3
906.550598E-3
906.702232E-3
905.050850E-3
903.579712E-3
900.043488E-3
897.760391E-3
895.306778E-3
892.995071E-3
892.533875E-3
890.592957E-3
890.126610E-3
890.468216E-3
890.772629E-3
892.503548E-3
892.474365E-3
893.583870E-3
894.462204E-3
894.195557E-3
894.407272E-3
892.072678E-3
890.225029E-3
888.090134E-3
885.902023E-3
885.645103E-3
884.713554E-3
885.254860E-3
885.697746E-3
885.055733E-3
887.015533E-3
887.202072E-3
887.717056E-3
888.016319E-3
887.538528E-3
888.214874E-3
886.827850E-3
886.349487E-3
885.765266E-3
884.653473E-3
885.082054E-3
883.788300E-3
883.208084E-3
882.995224E-3
882.295418E-3
882.834435E-3
881.952667E-3
881.585312E-3
881.467438E-3
880.371094E-3
881.124687E-3
880.353928E-3
880.733299E-3
881.558990E-3
881.275177E-3
882.111168E-3
881.384468E-3
881.278610E-3
881.715775E-3
881.035423E-3
881.262016E-3
880.099297E-3
879.893303E-3
880.150223E-3
879.372025E-3
880.472946E-3
879.822350E-3
879.675293E-3
879.527092E-3
878.089714E-3
878.256226E-3
877.300072E-3
876.909828E-3
876.706696E-3
875.820923E-3
876.450920E-3
875.999451E-3
876.167107E-3
876.502419E-3
874.985504E-3
876.206589E-3
875.612640E-3
875.091934E-3
875.218964E-3
874.064255E-3
874.368668E-3
873.645401E-3
873.512650E-3
873.705482E-3
872.900391E-3
872.991371E-3
872.110748E-3
871.673012E-3
871.751404E-3
871.197510E-3
873.251724E-3
875.328255E-3
879.230690E-3
884.580803E-3
890.987778E-3
898.240471E-3
903.038979E-3
906.807518E-3
909.710312E-3
909.218788E-3
909.551811E-3
907.444954E-3
904.848862E-3
902.368355E-3
898.776054E-3
896.864319E-3
894.321442E-3
892.941284E-3
892.810822E-3
891.819191E-3
892.916679E-3
893.470001E-3
894.739151E-3
895.872116E-3
895.349693E-3
895.301056E-3
893.400192E-3
891.317368E-3
889.809036E-3
887.517929E-3
887.287331E-3
886.910820E-3
887.414932E-3
888.703537E-3
888.812828E-3
890.189552E-3
889.929199E-3
889.617348E-3
889.661980E-3
888.454628E-3
888.737869E-3
887.828636E-3
886.815262E-3
886.184120E-3
884.508705E-3
884.156799E-3
882.415581E-3
881.058311E-3
880.795670E-3
879.379463E-3
879.873276E-3
878.941727E-3
878.029633E-3
878.051376E-3
876.926994E-3
877.585602E-3
876.864624E-3
876.125908E-3
876.401711E-3
875.489044E-3
876.303864E-3
875.972557E-3
875.435257E-3
875.399780E-3
874.434471E-3
875.158310E-3
874.338341E-3
873.690605E-3
874.138069E-3
873.151588E-3
873.830223E-3
873.274040E-3
872.452927E-3
872.577667E-3
871.483040E-3
871.549416E-3
870.773506E-3
870.082283E-3
870.230484E-3
869.207382E-3
870.105171E-3
869.336128E-3
868.645477E-3
868.460655E-3
867.596054E-3
868.409157E-3
867.862129E-3
867.473602E-3
867.725372E-3
866.888809E-3
867.612076E-3
866.870499E-3
866.110611E-3
866.109467E-3
865.172768E-3
865.545845E-3
864.825439E-3
863.960838E-3
864.120483E-3
864.075851E-3
866.596985E-3
869.414520E-3
872.830582E-3
879.067039E-3
885.459137E-3
892.599106E-3
898.067665E-3
901.294899E-3
903.933334E-3
903.891563E-3
903.990555E-3
902.320862E-3
899.871826E-3
897.921181E-3
895.179176E-3
894.031334E-3
892.149353E-3
890.497971E-3
890.037346E-3
889.232826E-3
890.219307E-3
890.721130E-3
891.527939E-3
893.007660E-3
893.179893E-3
894.137192E-3
893.534088E-3
891.820908E-3
890.754890E-3
888.114738E-3
886.851883E-3
884.826279E-3
883.467865E-3
882.951736E-3
882.810402E-3
883.758545E-3
883.918762E-3
883.550835E-3
884.284401E-3
883.820343E-3
884.477234E-3
884.111595E-3
883.105087E-3
882.559204E-3
881.501770E-3
881.199074E-3
880.267525E-3
878.962898E-3
878.975487E-3
877.439690E-3
877.630234E-3
877.123833E-3
876.358795E-3
876.594543E-3
875.676155E-3
875.923920E-3
875.440407E-3
874.682236E-3
875.067329E-3
874.143219E-3
874.305153E-3
873.964119E-3
872.938728E-3
873.151016E-3
872.253799E-3
872.795677E-3
872.320175E-3
871.591187E-3
871.748543E-3
870.947456E-3
871.205521E-3
871.076775E-3
870.163536E-3
870.336342E-3
869.228554E-3
869.277191E-3
868.493843E-3
867.672729E-3
868.025208E-3
866.842461E-3
867.157745E-3
867.108536E-3
866.079712E-3
866.790962E-3
866.083145E-3
866.429901E-3
866.373825E-3
864.736176E-3
866.114044E-3
865.287209E-3
865.679741E-3
865.450859E-3
864.769936E-3
865.282631E-3
864.165115E-3
864.411736E-3
864.054108E-3
862.727165E-3
864.013481E-3
863.345718E-3
863.630104E-3
863.210106E-3
862.403297E-3
864.656639E-3
866.319466E-3
870.727158E-3
876.398849E-3
882.445335E-3
891.128540E-3
896.657181E-3
901.456833E-3
904.058647E-3
904.826546E-3
905.267143E-3
902.704239E-3
900.831985E-3
898.665047E-3
895.953941E-3
895.221519E-3
893.009949E-3
892.465210E-3
892.118454E-3
891.851234E-3
893.531799E-3
893.689728E-3
895.389175E-3
896.713257E-3
897.097206E-3
898.368645E-3
897.046280E-3
896.538734E-3
895.141411E-3
892.780495E-3
892.230606E-3
890.190125E-3
889.806747E-3
889.656258E-3
889.016533E-3
890.639877E-3
890.208435E-3
890.894508E-3
891.530800E-3
891.354561E-3
892.438316E-3
891.527367E-3
891.780281E-3
891.814613E-3
891.142845E-3
890.925407E-3
888.831711E-3
887.939072E-3
887.489319E-3
886.397552E-3
886.545181E-3
884.874916E-3
884.690094E-3
884.777069E-3
884.278107E-3
885.087204E-3
884.004021E-3
884.329605E-3
884.233475E-3
883.323669E-3
884.143066E-3
883.007240E-3
882.736015E-3
882.490540E-3
881.474304E-3
881.603050E-3
880.633163E-3
880.779076E-3
880.999947E-3
880.571365E-3
881.298637E-3
880.183411E-3
879.723358E-3
879.342842E-3
878.657341E-3
878.842163E-3
877.555847E-3
877.322960E-3
877.135849E-3
876.322746E-3
877.003670E-3
876.070976E-3
876.187134E-3
876.239777E-3
875.414085E-3
875.901604E-3
874.862480E-3
874.953461E-3
874.705124E-3
873.888588E-3
874.832153E-3
873.749542E-3
873.790741E-3
874.253082E-3
873.629379E-3
874.432755E-3
873.338699E-3
872.761345E-3
872.405434E-3
871.198654E-3
871.562004E-3
870.696259E-3
871.261597E-3
873.224831E-3
875.951958E-3
881.570435E-3
887.239838E-3
894.081116E-3
900.528717E-3
904.590225E-3
908.705521E-3
909.294891E-3
908.971596E-3
908.046341E-3
904.460907E-3
903.770256E-3
900.934982E-3
898.787498E-3
897.396469E-3
895.318794E-3
895.055008E-3
893.922615E-3
893.959808E-3
894.343758E-3
894.196129E-3
895.822334E-3
895.699310E-3
896.054649E-3
895.548248E-3
894.259644E-3
893.617058E-3
891.800308E-3
890.859032E-3
890.696526E-3
889.494896E-3
890.299988E-3
889.949226E-3
890.481377E-3
891.440964E-3
891.063309E-3
891.849518E-3
891.496468E-3
891.143990E-3
891.374016E-3
890.545464E-3
890.901947E-3
889.637947E-3
888.492393E-3
887.385178E-3
885.198784E-3
884.662056E-3
882.996941E-3
881.777000E-3
881.415939E-3
880.371094E-3
881.042862E-3
880.435181E-3
880.514717E-3
880.892372E-3
880.016899E-3
880.119324E-3
878.979492E-3
878.423309E-3
878.415298E-3
877.050018E-3
877.527237E-3
876.877213E-3
876.449776E-3
876.511002E-3
875.735664E-3
876.393127E-3
875.934792E-3
875.776863E-3
875.461578E-3
873.909760E-3
874.068832E-3
872.736168E-3
871.691322E-3
871.148300E-3
870.034218E-3
870.341492E-3
869.628525E-3
869.591904E-3
869.681740E-3
868.414879E-3
868.924713E-3
868.232346E-3
867.366600E-3
867.340851E-3
866.105461E-3
866.483688E-3
865.823364E-3
865.481758E-3
865.358162E-3
864.448929E-3
865.392494E-3
865.221977E-3
864.721298E-3
864.323044E-3
862.869644E-3
863.131142E-3
862.550354E-3
862.255096E-3
863.814926E-3
866.031075E-3
871.519089E-3
876.989365E-3
882.993507E-3
890.881348E-3
896.272087E-3
901.211357E-3
902.796936E-3
902.423286E-3
901.504326E-3
898.599815E-3
896.832848E-3
893.588448E-3
890.905380E-3
889.585876E-3
887.501907E-3
887.900734E-3
887.602615E-3
887.844086E-3
888.994789E-3
888.645172E-3
890.033340E-3
889.997864E-3
890.171814E-3
890.556908E-3
889.252853E-3
889.302635E-3
887.269020E-3
885.453415E-3
884.360504E-3
882.620430E-3
883.204651E-3
882.512856E-3
881.701469E-3
881.958961E-3
881.184196E-3
881.733513E-3
880.987930E-3
880.555916E-3
880.912399E-3
880.267525E-3
880.825424E-3
880.466652E-3
879.685593E-3
878.940010E-3
877.845383E-3
878.035927E-3
876.946449E-3
875.808907E-3
875.602341E-3
874.710846E-3
875.034714E-3
874.382401E-3
873.821640E-3
873.901749E-3
872.644043E-3
872.664070E-3
872.347069E-3
871.940231E-3
872.303009E-3
871.879578E-3
872.880936E-3
872.688103E-3
871.921921E-3
871.678734E-3
870.166397E-3
870.510292E-3
869.753265E-3
869.095230E-3
869.254303E-3
868.611717E-3
869.437981E-3
869.294930E-3
868.609428E-3
868.648338E-3
867.490196E-3
867.494774E-3
866.569519E-3
865.649414E-3
865.933800E-3
864.881516E-3
865.185928E-3
864.654922E-3
864.245796E-3
864.590836E-3
864.240074E-3
864.920998E-3
865.016556E-3
864.596558E-3
865.015984E-3
864.226913E-3
864.258385E-3
863.747406E-3
862.987518E-3
863.374329E-3
862.354088E-3
862.764931E-3
862.450790E-3
861.668587E-3
862.505150E-3
862.508583E-3
865.377617E-3
868.753052E-3
872.652054E-3
878.528023E-3
884.106445E-3
891.696739E-3
896.829414E-3
899.424362E-3
901.586723E-3
901.360703E-3
901.036263E-3
899.313354E-3
896.878052E-3
895.500755E-3
892.722130E-3
891.010094E-3
889.340973E-3
888.107872E-3
888.931274E-3
888.701820E-3
889.813614E-3
890.361786E-3
891.406631E-3
893.314934E-3
893.364143E-3
894.525719E-3
894.316864E-3
892.584801E-3
891.730499E-3
889.033127E-3
887.886429E-3
886.699677E-3
885.242271E-3
885.659981E-3
885.143280E-3
886.047935E-3
886.493111E-3
886.111450E-3
887.941933E-3
887.872124E-3
888.434029E-3
888.245201E-3
887.215233E-3
887.396049E-3
885.747528E-3
884.736443E-3
883.542252E-3
881.490326E-3
881.737518E-3
880.323601E-3
880.421448E-3
880.122185E-3
879.454422E-3
879.892731E-3
878.743744E-3
878.862190E-3
879.091644E-3
878.662491E-3
879.153442E-3
878.031921E-3
878.039932E-3
878.013039E-3
877.519798E-3
878.430176E-3
877.450562E-3
877.425957E-3
877.538109E-3
876.802254E-3
877.832794E-3
876.640892E-3
876.837158E-3
876.603127E-3
875.645828E-3
876.440048E-3
875.057030E-3
875.079346E-3
875.077057E-3
874.058533E-3
874.955177E-3
873.831940E-3
873.890877E-3
874.142647E-3
873.698616E-3
874.265671E-3
873.254585E-3
873.171043E-3
873.212814E-3
872.574806E-3
873.342133E-3
871.858978E-3
871.936226E-3
871.796036E-3
871.303940E-3
872.194862E-3
871.500778E-3
871.838379E-3
871.872139E-3
870.661926E-3
870.916557E-3
869.360161E-3
869.622803E-3
870.292282E-3
871.092796E-3
874.588394E-3
877.917480E-3
883.792305E-3
891.086769E-3
896.718979E-3
903.278160E-3
906.681633E-3
909.612465E-3
910.721970E-3
909.306335E-3
907.838058E-3
904.328728E-3
901.595879E-3
898.995781E-3
896.405983E-3
895.599174E-3
893.683434E-3
892.938423E-3
893.043137E-3
893.121529E-3
894.550323E-3
894.618988E-3
895.553970E-3
895.820618E-3
894.176102E-3
894.709969E-3
892.701530E-3
891.173744E-3
890.350342E-3
889.027977E-3
889.950371E-3
889.385033E-3
889.905739E-3
890.604973E-3
890.337181E-3
891.111374E-3
889.996147E-3
889.865685E-3
889.805031E-3
888.873482E-3
889.322662E-3
888.499260E-3
887.831497E-3
887.623787E-3
885.679436E-3
885.197067E-3
883.398056E-3
882.048798E-3
880.932426E-3
879.465294E-3
879.644966E-3
878.481674E-3
877.955246E-3
878.277969E-3
876.450348E-3
878.086853E-3
877.760124E-3
878.080559E-3
878.049088E-3
877.029991E-3
877.516365E-3
876.407433E-3
875.911331E-3
876.066971E-3
874.208450E-3
875.310516E-3
875.000954E-3
875.027275E-3
875.696182E-3
875.122833E-3
875.872421E-3
874.511719E-3
873.909760E-3
873.615646E-3
871.308517E-3
872.218323E-3
871.000671E-3
870.555496E-3
870.917702E-3
870.254517E-3
871.179199E-3
870.930290E-3
871.053314E-3
871.344566E-3
870.028496E-3
870.029068E-3
869.001389E-3
868.637466E-3
868.419456E-3
867.252159E-3
867.625237E-3
867.001534E-3
866.636467E-3
866.518593E-3
864.894104E-3
866.217613E-3
866.781235E-3
868.442917E-3
871.475029E-3
875.062180E-3
881.249428E-3
887.481308E-3
893.554687E-3
898.925400E-3
901.760674E-3
904.969025E-3
905.644798E-3
905.308914E-3
904.579353E-3
902.151489E-3
900.695229E-3
897.210503E-3
894.128609E-3
891.743660E-3
889.154434E-3
889.129829E-3
888.384247E-3
888.442612E-3
889.949799E-3
890.568352E-3
892.926407E-3
893.655396E-3
893.459129E-3
893.167305E-3
891.171455E-3
890.180969E-3
887.492180E-3
885.148430E-3
884.215736E-3
882.419014E-3
882.777786E-3
882.551765E-3
882.580376E-3
883.495903E-3
883.514214E-3
885.392189E-3
885.480309E-3
884.982491E-3
884.771347E-3
883.288193E-3
883.176041E-3
881.960106E-3
880.791664E-3
880.217743E-3
878.839302E-3
879.391479E-3
878.571510E-3
877.440262E-3
877.366447E-3
876.468086E-3
876.769066E-3
875.760269E-3
875.079346E-3
874.846458E-3
873.729515E-3
874.296570E-3
873.782158E-3
873.232841E-3
873.562431E-3
872.686958E-3
873.521805E-3
873.271179E-3
872.866631E-3
872.910118E-3
872.395706E-3
872.890663E-3
872.314453E-3
871.532822E-3
871.618080E-3
870.734596E-3
870.970917E-3
870.379829E-3
869.738388E-3
869.778442E-3
868.783951E-3
869.242859E-3
868.816566E-3
868.278122E-3
868.556213E-3
867.761421E-3
868.186569E-3
867.455292E-3
866.771507E-3
866.966629E-3
866.185570E-3
866.156387E-3
865.528679E-3
864.830589E-3
864.848328E-3
863.907623E-3
864.590263E-3
864.502716E-3
863.927078E-3
863.686180E-3
862.890816E-3
863.415527E-3
863.167763E-3
862.912560E-3
864.493561E-3
866.495705E-3
871.475029E-3
876.968765E-3
882.859039E-3
890.897942E-3
896.805954E-3
902.444458E-3
905.746078E-3
906.246758E-3
906.206703E-3
903.667259E-3
901.961517E-3
899.604607E-3
896.385384E-3
894.830132E-3
892.540741E-3
892.210579E-3
891.927910E-3
891.583443E-3
893.054008E-3
893.424225E-3
895.347404E-3
896.240044E-3
896.515846E-3
897.638512E-3
897.008514E-3
896.712685E-3
895.342827E-3
893.171310E-3
892.548752E-3
890.868759E-3
891.137123E-3
891.311073E-3
891.307068E-3
893.184471E-3
893.313789E-3
894.571495E-3
894.928551E-3
894.894791E-3
895.828629E-3
895.131683E-3
895.644951E-3
895.311928E-3
894.461060E-3
894.892502E-3
893.887711E-3
893.648529E-3
893.147278E-3
892.172813E-3
892.446327E-3
890.868759E-3
890.939713E-3
891.106224E-3
890.195847E-3
892.179108E-3
892.107010E-3
892.655182E-3
892.707825E-3
892.425156E-3
893.138123E-3
892.080116E-3
892.309570E-3
892.188263E-3
891.584587E-3
892.296410E-3
891.419792E-3
891.473007E-3
891.265297E-3
890.373802E-3
890.808678E-3
889.815331E-3
890.040779E-3
890.566635E-3
890.298843E-3
891.498756E-3
890.713120E-3
890.723419E-3
890.671921E-3
889.696312E-3
889.714622E-3
887.786865E-3
887.608337E-3
887.567711E-3
886.886787E-3
887.663841E-3
886.957741E-3
