Notes :


2023-11-10 ¿ÀÈÄ 11:06:19
Volts
Ch : LED 2,
61.540031E-3
61.584091E-3
61.437607E-3
61.461067E-3
61.437035E-3
61.295128E-3
61.394119E-3
61.232758E-3
61.138344E-3
61.174965E-3
61.108017E-3
61.131477E-3
61.002731E-3
60.987854E-3
60.900879E-3
60.783005E-3
60.773277E-3
60.676003E-3
60.637093E-3
60.549545E-3
60.563278E-3
60.569000E-3
60.619926E-3
60.916901E-3
61.308289E-3
61.915970E-3
62.829781E-3
63.667488E-3
64.462852E-3
65.243912E-3
65.594673E-3
65.892220E-3
65.955162E-3
65.897369E-3
65.723419E-3
65.335464E-3
65.080261E-3
64.716339E-3
64.521217E-3
64.267731E-3
63.989067E-3
63.932419E-3
63.946724E-3
63.978767E-3
63.932419E-3
63.910675E-3
64.060020E-3
63.832855E-3
63.830566E-3
63.744736E-3
63.485527E-3
63.464355E-3
63.301277E-3
63.161659E-3
63.267517E-3
63.165092E-3
63.487816E-3
63.434601E-3
63.551903E-3
63.672066E-3
63.602257E-3
63.697243E-3
63.597679E-3
63.553047E-3
63.522720E-3
63.238335E-3
63.237762E-3
63.038635E-3
62.901878E-3
62.827492E-3
62.610054E-3
62.563133E-3
62.385750E-3
62.293053E-3
62.212372E-3
62.131691E-3
62.188911E-3
62.074471E-3
62.048721E-3
62.031555E-3
61.845016E-3
61.867905E-3
61.835861E-3
61.860466E-3
61.848450E-3
61.786079E-3
61.813545E-3
61.777496E-3
61.738586E-3
61.704254E-3
61.547470E-3
61.640739E-3
61.539459E-3
61.518860E-3
61.605835E-3
61.453629E-3
61.507988E-3
61.441040E-3
61.402702E-3
61.289978E-3
61.267662E-3
61.235046E-3
61.272240E-3
61.171532E-3
61.185837E-3
61.065674E-3
61.100006E-3
61.083984E-3
61.109734E-3
61.072540E-3
60.894012E-3
60.964966E-3
60.852242E-3
60.851097E-3
60.783577E-3
60.670280E-3
60.701180E-3
60.792160E-3
60.652542E-3
60.573006E-3
60.431671E-3
60.477448E-3
60.475159E-3
60.643959E-3
61.001587E-3
61.588669E-3
62.583733E-3
63.389969E-3
64.195061E-3
64.971542E-3
65.516853E-3
65.918541E-3
66.073036E-3
66.021538E-3
65.971184E-3
65.492249E-3
65.291977E-3
64.930916E-3
64.597893E-3
64.406204E-3
64.104080E-3
64.084625E-3
64.054298E-3
64.049149E-3
64.115524E-3
64.080048E-3
64.199066E-3
64.255142E-3
64.212799E-3
64.194489E-3
64.022827E-3
63.911819E-3
63.724709E-3
63.625717E-3
63.515282E-3
63.402557E-3
63.511848E-3
63.426018E-3
63.557053E-3
63.702393E-3
63.654900E-3
63.755035E-3
63.874054E-3
63.700676E-3
63.644600E-3
63.490105E-3
63.448334E-3
63.306999E-3
63.145638E-3
63.095284E-3
62.743378E-3
62.806892E-3
62.698174E-3
62.497330E-3
62.583733E-3
62.388611E-3
62.350845E-3
62.246132E-3
62.285614E-3
62.359428E-3
62.227249E-3
62.283897E-3
62.260437E-3
62.111664E-3
62.136841E-3
62.020111E-3
62.013245E-3
61.960030E-3
61.972046E-3
62.027550E-3
61.942291E-3
62.008095E-3
61.868477E-3
61.887360E-3
61.908531E-3
61.840439E-3
61.812973E-3
61.839867E-3
61.657906E-3
61.701393E-3
61.555481E-3
61.582947E-3
61.502838E-3
61.471939E-3
61.542320E-3
61.429024E-3
61.426163E-3
61.382675E-3
61.288261E-3
61.278534E-3
61.170387E-3
61.201859E-3
61.105156E-3
61.086845E-3
60.945511E-3
60.839081E-3
60.909462E-3
60.900879E-3
60.759544E-3
60.773277E-3
60.672569E-3
60.662842E-3
60.626221E-3
60.563278E-3
60.733223E-3
60.938644E-3
61.497116E-3
62.207794E-3
62.983131E-3
63.835716E-3
64.564705E-3
65.312004E-3
65.727425E-3
65.864182E-3
65.947723E-3
65.718842E-3
65.574646E-3
65.258789E-3
64.851952E-3
64.764977E-3
64.316368E-3
64.144707E-3
63.946152E-3
63.805389E-3
63.793945E-3
63.705254E-3
63.863182E-3
63.926697E-3
63.862610E-3
63.903236E-3
63.640594E-3
63.615990E-3
63.355064E-3
63.179398E-3
63.280106E-3
63.161659E-3
63.248634E-3
63.276100E-3
63.412285E-3
63.516998E-3
63.593674E-3
63.709259E-3
63.788223E-3
63.668060E-3
63.726425E-3
63.548470E-3
63.377953E-3
63.349915E-3
63.185120E-3
63.071251E-3
62.885284E-3
62.831497E-3
62.713623E-3
62.564278E-3
62.553978E-3
62.219238E-3
62.287903E-3
62.214088E-3
62.146568E-3
62.132835E-3
62.038994E-3
62.131119E-3
62.078476E-3
61.952591E-3
62.041283E-3
61.949730E-3
61.917114E-3
61.866188E-3
61.777496E-3
61.854172E-3
61.739159E-3
61.816406E-3
61.799812E-3
61.758041E-3
61.744308E-3
61.616135E-3
61.724854E-3
61.660767E-3
61.532593E-3
61.626434E-3
61.549187E-3
61.683655E-3
61.588669E-3
61.462212E-3
61.473656E-3
61.399269E-3
61.410713E-3
61.383247E-3
61.249352E-3
61.269379E-3
61.114311E-3
61.112022E-3
61.084557E-3
60.923195E-3
60.965538E-3
60.816193E-3
60.893440E-3
60.874557E-3
60.839081E-3
61.140060E-3
61.428452E-3
62.124825E-3
62.824631E-3
63.585663E-3
64.513779E-3
65.001869E-3
65.589523E-3
65.712547E-3
65.819550E-3
65.859604E-3
65.579796E-3
65.333176E-3
65.001869E-3
64.662552E-3
64.476585E-3
64.186478E-3
64.209938E-3
63.999367E-3
63.846016E-3
63.916397E-3
63.836288E-3
63.994789E-3
63.923836E-3
63.803101E-3
63.867760E-3
63.458061E-3
63.373947E-3
63.209152E-3
63.141060E-3
63.258362E-3
63.159370E-3
63.361931E-3
63.460922E-3
63.456345E-3
63.653755E-3
63.728142E-3
63.754463E-3
63.747597E-3
63.643456E-3
63.621712E-3
63.444328E-3
63.327026E-3
63.242340E-3
62.978554E-3
62.987709E-3
62.793159E-3
62.685585E-3
62.555695E-3
62.459564E-3
62.456703E-3
62.107658E-3
62.182617E-3
62.146568E-3
62.065315E-3
62.158585E-3
61.948586E-3
62.069893E-3
62.028122E-3
61.971474E-3
62.083054E-3
61.911964E-3
61.903954E-3
61.914825E-3
61.863327E-3
61.894226E-3
61.777496E-3
61.862755E-3
61.731720E-3
61.816978E-3
61.824417E-3
61.656189E-3
61.780357E-3
61.714554E-3
61.627579E-3
61.721992E-3
61.538315E-3
61.578941E-3
61.610413E-3
61.460495E-3
61.485100E-3
61.415291E-3
61.436462E-3
61.386681E-3
61.271095E-3
61.421013E-3
61.156654E-3
61.308289E-3
61.184120E-3
60.971832E-3
60.994720E-3
60.873985E-3
60.840797E-3
60.877419E-3
60.741234E-3
60.877991E-3
60.938072E-3
61.317444E-3
61.848450E-3
62.537384E-3
63.491249E-3
64.300346E-3
65.151215E-3
65.765190E-3
66.157722E-3
66.474724E-3
66.382027E-3
66.288185E-3
66.126823E-3
65.778923E-3
65.542603E-3
65.166092E-3
65.015030E-3
64.883995E-3
64.635658E-3
64.708328E-3
64.647102E-3
64.724350E-3
64.707756E-3
64.736366E-3
64.813614E-3
64.635086E-3
64.701462E-3
64.630508E-3
64.296341E-3
64.132118E-3
63.874054E-3
63.799667E-3
63.848305E-3
63.735008E-3
63.968468E-3
63.960457E-3
64.029121E-3
64.128113E-3
64.100647E-3
64.150429E-3
64.036560E-3
63.977051E-3
63.943863E-3
63.953590E-3
63.770485E-3
63.531876E-3
63.467789E-3
63.299561E-3
63.181114E-3
63.094139E-3
63.047791E-3
62.912750E-3
62.960243E-3
62.808609E-3
62.848091E-3
62.695313E-3
62.666702E-3
62.623787E-3
62.501907E-3
62.599182E-3
62.524796E-3
62.402344E-3
62.493324E-3
62.456131E-3
62.467003E-3
62.369728E-3
62.397766E-3
62.389183E-3
62.305641E-3
62.325096E-3
62.319946E-3
62.325668E-3
62.325668E-3
62.165451E-3
62.255287E-3
62.101936E-3
62.093925E-3
62.142563E-3
61.977768E-3
61.929131E-3
61.832428E-3
61.861610E-3
61.840439E-3
61.795807E-3
61.792946E-3
61.718559E-3
61.754036E-3
61.745453E-3
61.616135E-3
61.646461E-3
61.433601E-3
61.519432E-3
61.391830E-3
61.316872E-3
61.347198E-3
61.166382E-3
61.232185E-3
61.275673E-3
61.223602E-3
61.505127E-3
61.873055E-3
62.508774E-3
63.379097E-3
64.183617E-3
64.990997E-3
65.560913E-3
66.121674E-3
66.412926E-3
66.442108E-3
66.480446E-3
66.178322E-3
65.976334E-3
65.631294E-3
65.258217E-3
65.157509E-3
64.869690E-3
64.684296E-3
64.714622E-3
64.593887E-3
64.744377E-3
64.724922E-3
64.723206E-3
64.859962E-3
64.759827E-3
64.786720E-3
64.513206E-3
64.385605E-3
64.136124E-3
63.910103E-3
63.953018E-3
63.902092E-3
63.943291E-3
64.080048E-3
64.116669E-3
64.246559E-3
64.324379E-3
64.379883E-3
64.450264E-3
64.277458E-3
64.306068E-3
64.071465E-3
63.976479E-3
63.885498E-3
63.673210E-3
63.625717E-3
63.403702E-3
63.369370E-3
63.337898E-3
63.117599E-3
63.153648E-3
62.986565E-3
62.915611E-3
62.990570E-3
62.899017E-3
62.901306E-3
62.808037E-3
62.771988E-3
62.764549E-3
62.655830E-3
62.713051E-3
62.607765E-3
62.606621E-3
62.661552E-3
62.586594E-3
62.603188E-3
62.602043E-3
62.487602E-3
62.472725E-3
62.377167E-3
62.408638E-3
62.318802E-3
62.315941E-3
62.300491E-3
62.233543E-3
62.404633E-3
62.221527E-3
62.096214E-3
62.149429E-3
62.020683E-3
62.079048E-3
61.979485E-3
61.949730E-3
61.916542E-3
61.842155E-3
61.777496E-3
61.649323E-3
61.571503E-3
61.564064E-3
61.446190E-3
61.512566E-3
61.411285E-3
61.407852E-3
61.561775E-3
61.543465E-3
61.991501E-3
62.522507E-3
63.285828E-3
64.155006E-3
64.853096E-3
65.600967E-3
66.074181E-3
66.316223E-3
66.518784E-3
66.327095E-3
66.265869E-3
65.849876E-3
65.556908E-3
65.342903E-3
65.063095E-3
64.879417E-3
64.763260E-3
64.589310E-3
64.600182E-3
64.463425E-3
64.603043E-3
64.629364E-3
64.574432E-3
64.586449E-3
64.405632E-3
64.330101E-3
64.052582E-3
63.876343E-3
63.846016E-3
63.712120E-3
63.841438E-3
63.830566E-3
63.926697E-3
64.117813E-3
64.099503E-3
64.187622E-3
64.203644E-3
64.220810E-3
64.293480E-3
64.019966E-3
64.044571E-3
63.752174E-3
63.584518E-3
63.624573E-3
63.413429E-3
63.313293E-3
63.142776E-3
63.048363E-3
63.024902E-3
62.787437E-3
62.762833E-3
62.706184E-3
62.670708E-3
62.717628E-3
62.548256E-3
62.596321E-3
62.527084E-3
62.445259E-3
62.487602E-3
62.230682E-3
62.351418E-3
62.340546E-3
62.379456E-3
62.367439E-3
62.265587E-3
62.274742E-3
62.232399E-3
62.276459E-3
62.368584E-3
62.194061E-3
62.207794E-3
62.124252E-3
62.037849E-3
62.040710E-3
61.927986E-3
62.016106E-3
61.964607E-3
61.923981E-3
61.954880E-3
61.765480E-3
61.835289E-3
61.759758E-3
61.782074E-3
61.799812E-3
61.603546E-3
61.616707E-3
61.514282E-3
61.439896E-3
61.462784E-3
61.287689E-3
61.258507E-3
61.116028E-3
61.132050E-3
61.257362E-3
61.235046E-3
61.630440E-3
62.233543E-3
62.994576E-3
63.970757E-3
64.687157E-3
65.506554E-3
66.063881E-3
66.484451E-3
66.723061E-3
66.718483E-3
66.581154E-3
66.226959E-3
65.914536E-3
65.717125E-3
65.323448E-3
65.223312E-3
65.099716E-3
64.970398E-3
65.023041E-3
64.984131E-3
65.112305E-3
65.173531E-3
65.180969E-3
65.286255E-3
65.103722E-3
65.159798E-3
64.909172E-3
64.784431E-3
64.567566E-3
64.229965E-3
64.229965E-3
64.151573E-3
64.211082E-3
64.303780E-3
64.342690E-3
64.405632E-3
64.480019E-3
64.422798E-3
64.497757E-3
64.303207E-3
64.373589E-3
64.266014E-3
64.039993E-3
64.060020E-3
63.828850E-3
63.725281E-3
63.548470E-3
63.392258E-3
63.360214E-3
63.226318E-3
63.230324E-3
63.151360E-3
63.098145E-3
63.036346E-3
62.885284E-3
62.907028E-3
62.853813E-3
62.795448E-3
62.814331E-3
62.729645E-3
62.751389E-3
62.656975E-3
62.634659E-3
62.663841E-3
62.567139E-3
62.678146E-3
62.528801E-3
62.453270E-3
62.488747E-3
62.469292E-3
62.545395E-3
62.430954E-3
62.330818E-3
62.407494E-3
62.314796E-3
62.369728E-3
62.267303E-3
62.168884E-3
62.199211E-3
62.124825E-3
62.133980E-3
62.104225E-3
62.017822E-3
62.040138E-3
61.921120E-3
61.925125E-3
61.982918E-3
61.835861E-3
61.923409E-3
61.744308E-3
61.614418E-3
61.577797E-3
61.465073E-3
61.425018E-3
61.275673E-3
61.364365E-3
61.440468E-3
61.407280E-3
61.741447E-3
62.049294E-3
62.829781E-3
63.481522E-3
64.322090E-3
65.235901E-3
65.772057E-3
66.317940E-3
66.573143E-3
66.689301E-3
66.629219E-3
66.323090E-3
66.163445E-3
65.869904E-3
65.535736E-3
65.306854E-3
65.047646E-3
65.043640E-3
64.965820E-3
64.918327E-3
65.019608E-3
65.012169E-3
65.162086E-3
65.217018E-3
65.218163E-3
65.158653E-3
64.929771E-3
64.747810E-3
64.542961E-3
64.257431E-3
64.246559E-3
64.117241E-3
64.219666E-3
64.250565E-3
64.251709E-3
64.464569E-3
64.512634E-3
64.545822E-3
64.564133E-3
64.509773E-3
64.505196E-3
64.305496E-3
64.157295E-3
64.092636E-3
63.958740E-3
63.829994E-3
63.720131E-3
63.595963E-3
63.505554E-3
63.418579E-3
63.345909E-3
63.293839E-3
63.273811E-3
63.199425E-3
63.043213E-3
63.079834E-3
62.984276E-3
62.936211E-3
62.934494E-3
62.880707E-3
63.060379E-3
62.742233E-3
62.721062E-3
62.712479E-3
62.670708E-3
62.720490E-3
62.675285E-3
62.660980E-3
62.598038E-3
62.362862E-3
62.527657E-3
62.441826E-3
62.509346E-3
62.375450E-3
62.326241E-3
62.393761E-3
62.260437E-3
62.286186E-3
62.219238E-3
62.095070E-3
62.141418E-3
62.067604E-3
62.010956E-3
62.037277E-3
61.828995E-3
61.901093E-3
61.800957E-3
61.684799E-3
61.680794E-3
61.561203E-3
61.544037E-3
61.474800E-3
61.512566E-3
61.523437E-3
61.447334E-3
61.691666E-3
61.880493E-3
62.533379E-3
63.295555E-3
63.981628E-3
64.898300E-3
65.487099E-3
66.011238E-3
66.269302E-3
66.383171E-3
66.441536E-3
66.144562E-3
65.933418E-3
65.686798E-3
65.303993E-3
65.088844E-3
64.840508E-3
64.869118E-3
64.780998E-3
64.627075E-3
64.754677E-3
64.604187E-3
64.719200E-3
64.737511E-3
64.649963E-3
64.651680E-3
64.342690E-3
64.105797E-3
63.868332E-3
63.701820E-3
63.824272E-3
63.717842E-3
63.827705E-3
63.911247E-3
63.923836E-3
64.048004E-3
64.091492E-3
64.279747E-3
64.209366E-3
64.098930E-3
64.194489E-3
63.914108E-3
63.784790E-3
63.656616E-3
63.456917E-3
63.416862E-3
63.185120E-3
63.094139E-3
63.015747E-3
62.814331E-3
62.808037E-3
62.683296E-3
62.636375E-3
62.466431E-3
62.432098E-3
62.520790E-3
62.516212E-3
62.464714E-3
62.430382E-3
62.347984E-3
62.513924E-3
62.298775E-3
62.277603E-3
62.311363E-3
62.256432E-3
62.271309E-3
62.147141E-3
62.168312E-3
62.135124E-3
62.090492E-3
62.121964E-3
62.038994E-3
61.969185E-3
61.992073E-3
61.843300E-3
61.924553E-3
61.759186E-3
61.740303E-3
61.713409E-3
61.640167E-3
61.699677E-3
61.642456E-3
61.628151E-3
61.548042E-3
61.445618E-3
61.491394E-3
61.357498E-3
61.337471E-3
61.289406E-3
61.257362E-3
61.217308E-3
61.102295E-3
60.999298E-3
61.080551E-3
60.970116E-3
61.219025E-3
61.407852E-3
62.008095E-3
62.836647E-3
63.566208E-3
64.570999E-3
65.212440E-3
65.830994E-3
66.335678E-3
66.477585E-3
66.616631E-3
66.372299E-3
66.156578E-3
65.941429E-3
65.650749E-3
65.479088E-3
65.111160E-3
64.948082E-3
64.941788E-3
64.714622E-3
64.858246E-3
64.919472E-3
65.032768E-3
65.137482E-3
65.053368E-3
65.161514E-3
64.987564E-3
64.802170E-3
64.613914E-3
64.345551E-3
64.197350E-3
63.953590E-3
