Notes :


2023-10-25 ¿ÀÈÄ 9:46:46
Volts
Ch : LED 2,
253.003120E-3
252.894402E-3
252.812576E-3
252.975655E-3
252.861214E-3
253.087807E-3
252.827454E-3
252.782822E-3
252.888680E-3
252.721024E-3
252.856636E-3
252.785683E-3
252.651215E-3
252.766228E-3
252.176857E-3
252.654076E-3
252.539635E-3
252.501297E-3
252.638626E-3
252.483559E-3
252.648926E-3
252.543640E-3
252.422905E-3
252.526474E-3
252.363968E-3
252.470398E-3
252.293015E-3
252.149963E-3
252.214622E-3
252.040100E-3
252.214050E-3
252.070999E-3
251.894760E-3
251.887894E-3
251.483345E-3
251.863289E-3
251.864433E-3
251.811790E-3
252.180290E-3
252.574539E-3
253.383636E-3
253.993607E-3
254.501152E-3
255.182648E-3
255.442429E-3
255.830956E-3
255.784607E-3
255.459023E-3
255.417824E-3
254.759216E-3
254.564667E-3
254.090309E-3
253.565025E-3
253.316689E-3
252.999115E-3
252.944756E-3
252.856636E-3
252.572823E-3
252.860641E-3
252.531624E-3
252.859497E-3
252.816010E-3
252.598000E-3
252.716446E-3
252.424622E-3
252.500725E-3
252.377701E-3
252.255821E-3
252.523613E-3
252.345657E-3
252.598572E-3
252.721596E-3
252.623749E-3
252.777100E-3
252.719307E-3
252.900696E-3
252.827454E-3
252.572823E-3
252.692986E-3
252.284431E-3
252.326202E-3
252.249527E-3
251.973152E-3
252.088165E-3
251.771736E-3
251.989174E-3
251.987457E-3
251.760864E-3
251.903915E-3
251.590919E-3
251.792336E-3
251.745987E-3
251.644707E-3
251.837540E-3
251.691055E-3
251.847267E-3
251.909637E-3
251.679611E-3
251.883888E-3
251.657295E-3
251.870155E-3
251.937675E-3
251.775742E-3
251.894188E-3
251.751709E-3
251.846123E-3
251.885033E-3
251.673889E-3
251.705933E-3
251.367187E-3
251.687622E-3
251.716805E-3
251.655006E-3
251.782608E-3
251.514244E-3
251.672745E-3
251.780319E-3
251.634979E-3
251.729965E-3
251.430702E-3
251.545143E-3
251.566887E-3
251.563454E-3
251.527405E-3
251.171494E-3
251.449013E-3
251.495934E-3
251.279068E-3
251.428413E-3
251.227570E-3
251.483345E-3
251.443291E-3
251.522255E-3
251.943398E-3
252.365112E-3
253.174210E-3
253.927803E-3
254.442215E-3
255.164337E-3
255.457306E-3
255.788040E-3
255.630684E-3
255.383492E-3
255.085945E-3
254.569817E-3
254.317474E-3
254.013634E-3
253.574181E-3
253.428268E-3
253.032303E-3
253.195381E-3
253.084946E-3
252.991676E-3
253.099823E-3
253.082657E-3
253.265190E-3
253.399658E-3
253.114700E-3
253.145027E-3
252.836037E-3
252.912140E-3
252.791977E-3
252.444077E-3
252.630043E-3
252.485275E-3
252.766228E-3
252.908134E-3
252.687263E-3
252.908707E-3
252.755356E-3
252.937317E-3
252.898407E-3
252.657509E-3
252.696991E-3
252.410889E-3
252.568817E-3
252.456665E-3
252.122498E-3
252.171707E-3
251.950264E-3
252.099609E-3
252.009201E-3
251.663017E-3
251.836967E-3
251.612091E-3
251.910782E-3
251.937103E-3
251.663017E-3
251.747131E-3
251.644135E-3
251.866722E-3
251.919365E-3
251.552010E-3
251.754570E-3
251.609230E-3
251.893044E-3
251.931953E-3
251.625824E-3
251.786041E-3
251.636124E-3
251.857567E-3
251.859283E-3
251.634979E-3
251.810074E-3
251.614952E-3
251.830101E-3
251.818657E-3
251.554298E-3
251.743126E-3
251.584053E-3
251.767731E-3
251.792336E-3
251.543427E-3
251.673317E-3
251.560020E-3
251.741409E-3
251.651573E-3
251.450729E-3
251.539993E-3
251.388931E-3
251.595497E-3
251.560593E-3
251.241302E-3
251.186371E-3
251.149750E-3
251.433563E-3
251.400948E-3
251.357460E-3
251.838684E-3
252.167702E-3
252.934456E-3
253.581619E-3
254.073715E-3
254.829025E-3
255.192947E-3
255.576897E-3
255.673599E-3
255.319405E-3
255.265045E-3
254.757500E-3
254.470253E-3
254.253960E-3
253.630257E-3
253.449440E-3
253.214264E-3
253.209114E-3
253.199959E-3
252.982521E-3
253.165054E-3
253.152466E-3
253.274345E-3
253.305817E-3
253.098679E-3
253.189659E-3
252.962494E-3
252.904701E-3
252.876091E-3
252.590561E-3
252.678680E-3
252.623749E-3
252.953339E-3
253.014565E-3
252.876091E-3
253.064346E-3
253.076363E-3
253.164482E-3
253.171349E-3
252.755356E-3
252.805710E-3
252.693558E-3
252.663231E-3
252.500725E-3
252.290154E-3
252.336502E-3
252.097893E-3
252.084732E-3
252.053833E-3
251.865578E-3
251.795769E-3
251.823235E-3
251.945686E-3
251.905632E-3
251.827240E-3
251.930809E-3
251.820374E-3
251.961136E-3
252.013206E-3
251.659584E-3
251.883316E-3
251.776314E-3
251.903915E-3
251.989174E-3
251.824951E-3
251.888466E-3
251.909637E-3
251.979446E-3
251.952553E-3
251.820946E-3
251.983452E-3
251.747131E-3
251.933670E-3
251.914787E-3
251.659584E-3
251.768303E-3
251.642990E-3
251.775169E-3
251.738548E-3
251.526260E-3
251.632118E-3
251.503944E-3
251.618385E-3
251.625824E-3
251.407242E-3
251.413536E-3
251.378632E-3
251.394081E-3
251.276207E-3
251.052475E-3
251.193810E-3
251.092529E-3
251.170921E-3
251.107979E-3
250.902557E-3
251.212692E-3
251.469040E-3
251.939964E-3
252.648354E-3
253.129578E-3
253.866005E-3
254.329491E-3
254.771805E-3
254.984093E-3
254.681396E-3
254.760361E-3
254.422760E-3
253.978157E-3
253.573036E-3
253.083801E-3
252.910995E-3
252.457809E-3
252.363396E-3
252.294731E-3
251.959991E-3
252.202034E-3
252.074432E-3
252.251244E-3
252.337646E-3
252.072716E-3
252.224922E-3
251.939964E-3
251.898766E-3
251.793480E-3
251.599503E-3
251.857567E-3
251.686478E-3
251.808357E-3
251.993179E-3
251.823807E-3
252.058983E-3
252.053833E-3
252.128220E-3
252.094460E-3
251.837540E-3
251.949692E-3
251.600075E-3
251.449013E-3
251.460457E-3
251.124573E-3
251.074791E-3
250.954628E-3
250.962639E-3
250.998116E-3
250.789833E-3
250.924873E-3
250.820160E-3
250.776100E-3
250.794983E-3
250.638771E-3
250.854492E-3
250.817299E-3
250.888252E-3
250.971794E-3
250.758934E-3
250.920868E-3
250.780106E-3
250.789261E-3
250.918007E-3
250.798988E-3
250.934601E-3
250.782967E-3
250.812149E-3
250.874519E-3
250.602722E-3
250.798416E-3
250.557518E-3
250.732040E-3
250.745201E-3
250.566101E-3
250.748062E-3
250.588417E-3
250.656509E-3
250.781822E-3
250.512314E-3
250.638771E-3
250.442505E-3
250.468254E-3
250.521469E-3
250.266266E-3
250.278282E-3
250.213623E-3
250.318336E-3
250.310898E-3
250.120926E-3
250.243378E-3
250.222206E-3
250.292015E-3
250.619888E-3
250.859642E-3
251.629257E-3
252.196312E-3
252.983093E-3
253.653717E-3
253.959274E-3
254.389000E-3
254.453087E-3
254.382133E-3
254.390717E-3
253.814507E-3
253.550148E-3
253.097534E-3
252.806854E-3
252.599144E-3
252.141380E-3
252.303886E-3
252.048111E-3
252.034378E-3
252.121925E-3
252.036095E-3
252.399445E-3
252.206039E-3
252.211189E-3
252.231216E-3
251.913643E-3
252.132797E-3
251.843834E-3
251.596642E-3
251.525116E-3
251.247597E-3
251.665306E-3
251.501083E-3
251.609230E-3
251.733971E-3
251.403809E-3
251.884460E-3
251.661301E-3
251.691628E-3
251.628113E-3
251.342010E-3
251.659012E-3
251.271629E-3
251.199532E-3
251.163483E-3
250.584412E-3
250.975227E-3
250.739479E-3
250.673676E-3
250.784683E-3
250.532341E-3
250.896835E-3
250.676537E-3
250.651932E-3
250.734901E-3
250.525475E-3
250.856209E-3
250.675964E-3
250.619316E-3
250.702286E-3
250.567818E-3
250.943184E-3
250.804138E-3
250.732040E-3
250.730896E-3
250.527763E-3
250.888824E-3
250.689125E-3
250.683403E-3
250.766945E-3
250.216484E-3
250.712585E-3
250.527763E-3
250.435638E-3
250.556374E-3
250.414467E-3
250.721169E-3
250.470543E-3
250.418472E-3
250.507736E-3
250.307465E-3
250.621033E-3
250.403595E-3
250.217056E-3
250.376129E-3
250.166702E-3
250.545502E-3
250.191307E-3
250.146675E-3
250.205612E-3
250.004768E-3
250.338936E-3
250.088310E-3
250.057411E-3
250.341225E-3
250.424194E-3
251.182365E-3
251.552582E-3
252.100182E-3
252.967644E-3
253.389931E-3
254.132652E-3
254.162979E-3
254.189301E-3
254.176140E-3
253.733826E-3
253.664589E-3
253.025436E-3
252.530479E-3
252.347374E-3
252.018356E-3
252.158546E-3
251.762009E-3
251.496506E-3
251.794052E-3
251.686478E-3
252.116203E-3
251.828957E-3
251.816940E-3
251.988029E-3
251.850700E-3
252.031517E-3
251.523972E-3
251.252174E-3
251.366043E-3
251.316261E-3
251.510811E-3
251.264191E-3
251.319695E-3
251.545715E-3
251.015282E-3
251.582336E-3
251.594925E-3
251.584625E-3
251.655006E-3
251.134300E-3
251.339722E-3
251.112556E-3
250.983238E-3
251.007843E-3
250.890541E-3
251.045609E-3
250.801849E-3
250.659943E-3
250.728607E-3
250.584412E-3
250.859070E-3
250.576973E-3
250.503731E-3
250.658226E-3
250.618172E-3
250.800133E-3
250.591278E-3
250.585556E-3
250.726318E-3
250.586128E-3
250.835609E-3
250.590706E-3
250.536346E-3
250.742912E-3
250.691986E-3
250.817299E-3
250.620461E-3
250.522614E-3
250.617599E-3
250.457382E-3
250.829887E-3
250.515175E-3
250.431061E-3
250.539207E-3
250.445366E-3
250.620461E-3
250.440788E-3
250.352097E-3
250.544930E-3
250.374413E-3
250.567818E-3
250.320053E-3
250.171280E-3
250.289154E-3
249.869156E-3
250.280571E-3
250.107193E-3
250.004768E-3
250.073433E-3
250.003624E-3
250.216484E-3
249.953842E-3
249.961281E-3
250.116348E-3
250.128365E-3
250.841331E-3
251.194954E-3
251.725388E-3
252.525902E-3
253.027153E-3
253.761864E-3
253.892899E-3
253.896332E-3
253.883743E-3
253.562164E-3
253.380203E-3
252.826309E-3
252.382851E-3
252.041245E-3
251.348305E-3
251.576042E-3
251.300240E-3
251.253319E-3
251.308250E-3
251.026726E-3
251.340294E-3
251.253319E-3
251.281929E-3
251.296234E-3
251.149750E-3
251.169205E-3
250.884247E-3
250.760078E-3
250.846481E-3
250.723457E-3
250.899124E-3
250.842476E-3
250.782967E-3
251.054764E-3
251.044464E-3
251.239014E-3
251.107407E-3
250.932884E-3
250.963783E-3
250.790977E-3
250.805855E-3
250.476265E-3
250.294876E-3
250.234795E-3
250.045967E-3
250.215912E-3
249.922943E-3
249.789619E-3
249.875450E-3
249.706078E-3
249.890327E-3
249.861145E-3
249.688911E-3
249.707222E-3
249.755287E-3
249.952126E-3
249.718094E-3
249.660873E-3
249.817657E-3
249.741554E-3
249.916077E-3
249.866867E-3
249.732399E-3
249.854851E-3
249.638557E-3
249.873161E-3
249.855995E-3
249.650574E-3
249.814224E-3
249.648857E-3
249.889755E-3
249.724388E-3
249.606514E-3
249.805069E-3
249.557877E-3
249.825668E-3
249.622536E-3
249.595070E-3
249.597359E-3
249.367332E-3
249.605370E-3
249.480057E-3
249.349594E-3
249.440575E-3
248.858070E-3
249.350166E-3
249.277496E-3
249.175644E-3
249.304390E-3
248.777962E-3
249.208260E-3
249.390221E-3
249.596786E-3
250.219917E-3
250.727463E-3
251.634979E-3
252.300453E-3
252.760506E-3
253.286362E-3
253.349304E-3
253.520393E-3
253.351021E-3
253.008842E-3
252.735901E-3
252.277565E-3
252.069283E-3
251.613808E-3
251.202393E-3
251.114845E-3
250.895691E-3
251.044464E-3
251.058197E-3
250.908279E-3
251.121140E-3
251.025581E-3
251.223564E-3
251.070213E-3
250.774384E-3
250.869942E-3
250.588417E-3
250.587845E-3
250.454521E-3
250.302887E-3
250.330925E-3
250.311470E-3
250.518036E-3
250.562096E-3
250.555801E-3
250.667381E-3
250.563812E-3
250.745773E-3
250.632477E-3
250.400162E-3
250.447655E-3
250.204468E-3
250.276566E-3
250.217628E-3
250.062561E-3
250.027657E-3
249.682045E-3
249.861717E-3
249.719238E-3
249.600792E-3
249.756432E-3
249.621964E-3
249.727821E-3
249.742126E-3
249.643135E-3
249.761009E-3
249.502373E-3
249.742126E-3
249.726677E-3
249.595070E-3
249.855423E-3
249.602509E-3
249.873734E-3
249.871445E-3
249.757576E-3
249.942970E-3
249.430847E-3
249.815369E-3
249.833679E-3
249.584770E-3
249.781036E-3
249.484062E-3
249.663162E-3
249.736977E-3
249.477196E-3
249.657440E-3
249.132729E-3
249.452591E-3
249.536133E-3
249.448586E-3
249.494934E-3
249.311829E-3
249.524689E-3
249.501801E-3
249.278069E-3
249.443436E-3
249.271202E-3
249.315262E-3
249.221992E-3
249.098969E-3
249.267197E-3
249.054337E-3
249.183655E-3
249.177933E-3
249.256325E-3
249.607658E-3
249.728966E-3
250.585556E-3
251.237869E-3
251.745987E-3
252.472115E-3
252.845192E-3
253.354454E-3
253.506088E-3
253.215408E-3
253.125572E-3
252.595711E-3
252.414322E-3
252.054977E-3
251.537132E-3
251.301956E-3
250.894547E-3
250.948334E-3
250.907135E-3
250.729752E-3
250.923729E-3
250.764656E-3
251.030731E-3
251.093674E-3
250.869370E-3
250.861359E-3
250.649071E-3
250.677109E-3
250.598717E-3
250.292015E-3
250.392723E-3
250.218201E-3
250.380135E-3
250.583839E-3
250.414467E-3
250.450516E-3
250.403023E-3
250.721169E-3
250.750923E-3
250.453377E-3
250.632477E-3
250.244522E-3
250.407600E-3
250.274849E-3
249.997902E-3
250.131226E-3
249.773598E-3
249.956131E-3
249.997902E-3
249.594498E-3
249.697495E-3
249.468613E-3
249.855995E-3
249.851418E-3
249.619102E-3
249.785042E-3
249.476051E-3
249.718666E-3
249.808502E-3
249.604797E-3
249.815941E-3
249.613380E-3
249.886322E-3
249.839973E-3
249.581909E-3
249.754143E-3
249.639130E-3
249.888039E-3
249.888039E-3
249.537277E-3
249.675179E-3
249.536705E-3
249.753571E-3
249.699783E-3
249.473763E-3
249.638557E-3
249.433708E-3
249.748421E-3
249.617958E-3
249.393082E-3
249.545860E-3
249.351883E-3
249.616241E-3
249.603081E-3
249.219131E-3
249.384499E-3
249.226570E-3
249.367332E-3
249.316406E-3
249.004555E-3
249.193382E-3
249.060631E-3
249.083519E-3
249.085236E-3
248.870087E-3
249.188805E-3
249.418259E-3
250.007629E-3
250.547791E-3
251.039314E-3
251.906776E-3
252.426338E-3
252.971077E-3
253.170204E-3
253.058624E-3
252.971649E-3
252.522469E-3
252.236938E-3
251.816368E-3
251.177216E-3
250.938034E-3
250.598145E-3
250.554657E-3
250.504875E-3
250.171280E-3
250.214767E-3
250.181580E-3
250.294876E-3
250.414467E-3
250.174141E-3
250.255966E-3
250.061989E-3
250.036812E-3
250.052261E-3
249.813652E-3
249.882317E-3
249.837112E-3
249.964142E-3
250.192451E-3
250.003624E-3
250.242805E-3
250.155258E-3
250.286865E-3
250.218773E-3
249.910355E-3
250.140953E-3
249.952698E-3
249.928665E-3
249.791336E-3
249.548149E-3
249.624252E-3
249.393654E-3
249.361610E-3
249.307823E-3
249.069786E-3
249.148178E-3
249.053192E-3
249.144173E-3
249.130440E-3
248.787117E-3
249.068069E-3
248.974228E-3
249.056053E-3
249.093819E-3
249.033165E-3
249.122429E-3
249.114990E-3
249.197960E-3
249.207115E-3
249.054337E-3
249.194527E-3
249.098969E-3
249.111557E-3
249.192810E-3
249.037170E-3
249.126434E-3
248.978806E-3
249.026299E-3
249.062920E-3
248.924446E-3
248.908997E-3
248.901558E-3
249.007416E-3
249.134445E-3
248.989105E-3
249.092102E-3
248.882103E-3
248.892975E-3
248.894119E-3
248.472404E-3
248.550224E-3
248.559952E-3
248.658371E-3
248.754501E-3
248.475838E-3
248.677826E-3
248.613739E-3
248.851204E-3
249.110413E-3
249.411964E-3
250.174713E-3
250.630188E-3
251.467896E-3
252.140236E-3
252.478981E-3
252.900696E-3
252.911568E-3
252.900696E-3
252.840614E-3
252.318764E-3
252.064705E-3
251.610374E-3
251.177216E-3
250.962067E-3
250.510597E-3
250.584412E-3
250.423622E-3
250.487709E-3
250.530052E-3
250.340080E-3
250.643921E-3
250.560379E-3
250.605583E-3
250.599861E-3
250.310326E-3
250.307465E-3
250.079727E-3
250.088882E-3
250.040817E-3
249.824524E-3
250.087166E-3
250.012207E-3
250.071144E-3
250.305748E-3
250.171280E-3
250.320625E-3
250.144386E-3
250.193024E-3
