Notes :


2023-11-13 ¿ÀÀü 12:17:19
Volts
Ch : LED 2,
971.231461E-3
971.499825E-3
971.488953E-3
972.165298E-3
971.989059E-3
971.616554E-3
971.541595E-3
971.172523E-3
970.444679E-3
969.691658E-3
968.914604E-3
968.237114E-3
968.059731E-3
967.537308E-3
967.410278E-3
967.322159E-3
967.433739E-3
967.523575E-3
967.684937E-3
967.880630E-3
967.940712E-3
968.384171E-3
967.991638E-3
967.734718E-3
967.711258E-3
967.267799E-3
967.059517E-3
966.653824E-3
966.873550E-3
966.341972E-3
965.761185E-3
965.507126E-3
965.259361E-3
965.111732E-3
964.837074E-3
964.462280E-3
964.245415E-3
963.997078E-3
963.684082E-3
963.407135E-3
963.205719E-3
963.121605E-3
962.808609E-3
962.640953E-3
962.427521E-3
962.207794E-3
962.361145E-3
962.138557E-3
962.002945E-3
962.009239E-3
961.677361E-3
961.574936E-3
961.407280E-3
961.219025E-3
961.091995E-3
960.478592E-3
960.775566E-3
960.736084E-3
960.658836E-3
960.524940E-3
960.417366E-3
960.524940E-3
960.397911E-3
960.242271E-3
960.012245E-3
959.973335E-3
959.791946E-3
959.734154E-3
959.632301E-3
959.449196E-3
958.999443E-3
958.835220E-3
958.585739E-3
958.785439E-3
958.379745E-3
958.316803E-3
958.276176E-3
958.653259E-3
959.668922E-3
961.637306E-3
963.902664E-3
966.723061E-3
969.107437E-3
971.894073E-3
974.059296E-3
975.306129E-3
976.031685E-3
976.132965E-3
975.797081E-3
975.782776E-3
974.619484E-3
973.916245E-3
972.970963E-3
972.285461E-3
971.726418E-3
971.264076E-3
971.004295E-3
970.769119E-3
970.351410E-3
970.740509E-3
970.780563E-3
970.951080E-3
970.798874E-3
970.421219E-3
969.971466E-3
969.239616E-3
968.488884E-3
967.660904E-3
967.149925E-3
967.012596E-3
966.929054E-3
967.010307E-3
967.059517E-3
967.219734E-3
967.466354E-3
967.520142E-3
967.765617E-3
967.587090E-3
967.533302E-3
967.521286E-3
967.284966E-3
967.024612E-3
966.796303E-3
965.480232E-3
965.869331E-3
965.765190E-3
965.610695E-3
965.598679E-3
965.139771E-3
964.972115E-3
964.892578E-3
964.668846E-3
964.241409E-3
964.010811E-3
963.751602E-3
963.615990E-3
963.335037E-3
963.002586E-3
962.779427E-3
962.409210E-3
962.197495E-3
962.081337E-3
961.907959E-3
961.538887E-3
961.358070E-3
961.104584E-3
960.977554E-3
960.930634E-3
960.272026E-3
960.610771E-3
960.463142E-3
960.459709E-3
960.381317E-3
960.277748E-3
960.173035E-3
959.894943E-3
959.817123E-3
958.887291E-3
959.097290E-3
959.002304E-3
958.955383E-3
958.761978E-3
958.423233E-3
958.151436E-3
958.082199E-3
957.730293E-3
957.750320E-3
957.546616E-3
957.365227E-3
957.680511E-3
958.430672E-3
959.976768E-3
962.158585E-3
964.894867E-3
967.539597E-3
970.040703E-3
972.082329E-3
973.689079E-3
974.519920E-3
974.838638E-3
974.600029E-3
974.323082E-3
973.658180E-3
972.869110E-3
972.225380E-3
971.630859E-3
970.927048E-3
970.401192E-3
969.976616E-3
969.808388E-3
969.734573E-3
969.724274E-3
969.778061E-3
969.944000E-3
969.910240E-3
969.522285E-3
968.985558E-3
968.339539E-3
967.677498E-3
966.977119E-3
965.924263E-3
965.995216E-3
966.008949E-3
965.979195E-3
966.379166E-3
966.543388E-3
966.987419E-3
967.161369E-3
967.252350E-3
968.051147E-3
967.345047E-3
967.171097E-3
966.931915E-3
966.563988E-3
966.240120E-3
965.818977E-3
965.445328E-3
965.210152E-3
963.916969E-3
964.193344E-3
963.913536E-3
963.730431E-3
963.465500E-3
963.269234E-3
962.999153E-3
962.747955E-3
962.520218E-3
962.507629E-3
962.052727E-3
961.889648E-3
961.484528E-3
961.312866E-3
961.222458E-3
960.860252E-3
960.737801E-3
960.510063E-3
960.151863E-3
960.133553E-3
960.136414E-3
960.075760E-3
959.868622E-3
959.804535E-3
959.535027E-3
959.379387E-3
959.517288E-3
959.565353E-3
959.389114E-3
959.244347E-3
959.161377E-3
958.969116E-3
958.714485E-3
958.686447E-3
959.084129E-3
958.584595E-3
958.373451E-3
957.917976E-3
957.710838E-3
957.468796E-3
957.192421E-3
956.921196E-3
956.536102E-3
956.060028E-3
956.429672E-3
956.603622E-3
957.552338E-3
959.220314E-3
961.708832E-3
964.666557E-3
967.533302E-3
970.243835E-3
972.668839E-3
974.287605E-3
975.417709E-3
975.823975E-3
976.000214E-3
975.598526E-3
975.080681E-3
974.411201E-3
973.548889E-3
972.568703E-3
972.140694E-3
971.724129E-3
971.643448E-3
971.341324E-3
971.372795E-3
971.417999E-3
971.573067E-3
971.791077E-3
971.586227E-3
971.646309E-3
971.495819E-3
971.048927E-3
970.354843E-3
969.504547E-3
968.745232E-3
968.017960E-3
967.729568E-3
967.598534E-3
967.300987E-3
967.507553E-3
967.481232E-3
967.607117E-3
967.720985E-3
967.739296E-3
967.828560E-3
967.732430E-3
967.656898E-3
967.647171E-3
967.251778E-3
966.978836E-3
966.748238E-3
966.477013E-3
966.210365E-3
965.556908E-3
965.480804E-3
965.424156E-3
965.204430E-3
965.093994E-3
964.672279E-3
964.498901E-3
964.223671E-3
963.971329E-3
964.249992E-3
963.496971E-3
963.265800E-3
963.046646E-3
962.651253E-3
962.497902E-3
962.160873E-3
962.165451E-3
961.866188E-3
960.819626E-3
961.176109E-3
960.883713E-3
961.149216E-3
960.928345E-3
960.771561E-3
960.626793E-3
960.583305E-3
960.522079E-3
960.963821E-3
960.574722E-3
960.401917E-3
960.191345E-3
960.228539E-3
960.117531E-3
960.015678E-3
959.978485E-3
959.708405E-3
959.643745E-3
959.378242E-3
959.070969E-3
958.871269E-3
958.717346E-3
958.386612E-3
958.224678E-3
957.595253E-3
957.753181E-3
957.539177E-3
957.782364E-3
958.509064E-3
959.775352E-3
961.932564E-3
964.540100E-3
967.377090E-3
969.553185E-3
972.113800E-3
974.029541E-3
975.015450E-3
975.545883E-3
975.497246E-3
975.223732E-3
974.787712E-3
973.953438E-3
973.801804E-3
972.772408E-3
971.954727E-3
971.571922E-3
971.056938E-3
970.834351E-3
970.796585E-3
970.778275E-3
970.901871E-3
971.120453E-3
971.075249E-3
971.008301E-3
970.506477E-3
970.082474E-3
969.344330E-3
968.491173E-3
967.753601E-3
967.292976E-3
967.358780E-3
967.071533E-3
967.161942E-3
967.270660E-3
967.377090E-3
967.728996E-3
967.750740E-3
967.770195E-3
967.713547E-3
967.069817E-3
967.397690E-3
967.296410E-3
966.946793E-3
966.697884E-3
966.412926E-3
966.144562E-3
965.928841E-3
965.673637E-3
965.521431E-3
965.125465E-3
964.867401E-3
964.439964E-3
964.227104E-3
963.979340E-3
963.760185E-3
963.704109E-3
963.454056E-3
963.297844E-3
962.971115E-3
962.608910E-3
962.473869E-3
962.258720E-3
961.957169E-3
961.684799E-3
960.836792E-3
961.197281E-3
961.161232E-3
961.138344E-3
961.019897E-3
960.846519E-3
960.903740E-3
960.706329E-3
960.674858E-3
960.506058E-3
960.448837E-3
960.302925E-3
960.162163E-3
959.946442E-3
959.856033E-3
959.623146E-3
959.517288E-3
959.214020E-3
959.233475E-3
958.876991E-3
958.443832E-3
958.312798E-3
958.019829E-3
957.980347E-3
957.909393E-3
957.886505E-3
958.438110E-3
959.514427E-3
961.490822E-3
963.793945E-3
966.518784E-3
969.188118E-3
971.432877E-3
973.250198E-3
974.340820E-3
974.911308E-3
975.586510E-3
974.882126E-3
974.163437E-3
973.624420E-3
972.768974E-3
972.112656E-3
971.418571E-3
970.485306E-3
970.302200E-3
970.077896E-3
970.042419E-3
969.906235E-3
970.102501E-3
970.153427E-3
970.049286E-3
969.806671E-3
969.620705E-3
968.757248E-3
967.928123E-3
967.105293E-3
966.664696E-3
966.338539E-3
966.308212E-3
966.371727E-3
966.528511E-3
966.360855E-3
966.925049E-3
967.229462E-3
967.593956E-3
967.482948E-3
967.430878E-3
967.315292E-3
967.046928E-3
966.959381E-3
967.259216E-3
966.578293E-3
965.706253E-3
965.423012E-3
965.245628E-3
964.730644E-3
964.493752E-3
964.153290E-3
963.823128E-3
963.827133E-3
963.504982E-3
963.137054E-3
962.842941E-3
962.621498E-3
962.335968E-3
962.064171E-3
961.885643E-3
961.685371E-3
961.980057E-3
961.376953E-3
960.986137E-3
960.893440E-3
960.689735E-3
960.650826E-3
960.508347E-3
960.433960E-3
960.228539E-3
960.042000E-3
959.925270E-3
959.953880E-3
959.792519E-3
959.885788E-3
959.646606E-3
959.676361E-3
960.243988E-3
959.613991E-3
959.537315E-3
959.354210E-3
959.167099E-3
959.161949E-3
958.729362E-3
958.548546E-3
958.348274E-3
958.272171E-3
957.834435E-3
957.418442E-3
957.190132E-3
956.973839E-3
956.909180E-3
957.249641E-3
957.666206E-3
959.046936E-3
961.814690E-3
964.215660E-3
966.867828E-3
969.681358E-3
972.098351E-3
973.909950E-3
975.267792E-3
975.971031E-3
976.039124E-3
976.180458E-3
975.480652E-3
974.770546E-3
974.245834E-3
973.383522E-3
972.888565E-3
972.431374E-3
972.092628E-3
971.914673E-3
971.819115E-3
971.989632E-3
972.066879E-3
972.176170E-3
972.265434E-3
972.255707E-3
972.139549E-3
971.645164E-3
971.040344E-3
970.283890E-3
969.467926E-3
968.880844E-3
968.353271E-3
967.928123E-3
967.881775E-3
967.747307E-3
967.162514E-3
967.783928E-3
968.148422E-3
968.222237E-3
968.243980E-3
968.340111E-3
968.237114E-3
968.144989E-3
967.893219E-3
967.766762E-3
967.332458E-3
967.105865E-3
966.593170E-3
966.280174E-3
965.960884E-3
965.776062E-3
965.527153E-3
965.306282E-3
965.268517E-3
964.882851E-3
964.580154E-3
964.330673E-3
963.899231E-3
963.799095E-3
963.434029E-3
963.116455E-3
962.912178E-3
963.081551E-3
962.541389E-3
962.190628E-3
962.034988E-3
961.764908E-3
961.621284E-3
961.476517E-3
961.296272E-3
961.190987E-3
960.367012E-3
960.694313E-3
960.781860E-3
960.681725E-3
960.685158E-3
960.695457E-3
960.499763E-3
960.459709E-3
960.373878E-3
960.180473E-3
960.267448E-3
960.054588E-3
959.981918E-3
959.780502E-3
959.681511E-3
959.283257E-3
958.893585E-3
958.945656E-3
958.611488E-3
958.372307E-3
957.998657E-3
957.875633E-3
957.899094E-3
957.839012E-3
958.185768E-3
959.715271E-3
961.120605E-3
963.462067E-3
966.010666E-3
968.950653E-3
971.609116E-3
973.467064E-3
974.966812E-3
975.791359E-3
976.642227E-3
976.254272E-3
975.789642E-3
975.470924E-3
974.693298E-3
974.168015E-3
973.500252E-3
972.962379E-3
972.806740E-3
973.211861E-3
972.712326E-3
972.423935E-3
972.512054E-3
972.587585E-3
972.673988E-3
972.810173E-3
972.639656E-3
972.325516E-3
971.837425E-3
970.959091E-3
970.203209E-3
969.532585E-3
968.966103E-3
968.810463E-3
968.594170E-3
968.744087E-3
968.820190E-3
968.310928E-3
968.859100E-3
968.955231E-3
969.003868E-3
969.049072E-3
968.903732E-3
968.829346E-3
968.526077E-3
968.242264E-3
967.699814E-3
967.605972E-3
967.529297E-3
967.078400E-3
966.773415E-3
966.570854E-3
966.301918E-3
966.134262E-3
965.846443E-3
965.678215E-3
965.476799E-3
965.154648E-3
964.969254E-3
964.689445E-3
964.682579E-3
964.414787E-3
964.247704E-3
964.048576E-3
963.861465E-3
963.531303E-3
963.500977E-3
963.214302E-3
963.092995E-3
962.852097E-3
962.805748E-3
962.659836E-3
962.424088E-3
962.328529E-3
962.064743E-3
962.013817E-3
961.979485E-3
961.815834E-3
961.846161E-3
961.747169E-3
961.686516E-3
961.498833E-3
961.316299E-3
961.288261E-3
960.976982E-3
960.913467E-3
960.726929E-3
960.392189E-3
960.284042E-3
960.104942E-3
959.780502E-3
959.474373E-3
959.164810E-3
959.165955E-3
959.032059E-3
958.993149E-3
959.325027E-3
960.269165E-3
962.572289E-3
964.462280E-3
967.019463E-3
969.622993E-3
971.852875E-3
973.701096E-3
974.755669E-3
975.376511E-3
975.664330E-3
975.290680E-3
975.025749E-3
974.418640E-3
973.687935E-3
973.026466E-3
972.250557E-3
971.774483E-3
970.512199E-3
970.721054E-3
970.859528E-3
970.876694E-3
970.966530E-3
971.035194E-3
971.123886E-3
970.794296E-3
970.330238E-3
968.863106E-3
968.536377E-3
967.953873E-3
967.620277E-3
967.138481E-3
967.163658E-3
967.164230E-3
967.445755E-3
967.787361E-3
968.534088E-3
968.337822E-3
967.595673E-3
968.105507E-3
968.198776E-3
968.076324E-3
967.961311E-3
967.688942E-3
967.445183E-3
968.150711E-3
967.143059E-3
966.639519E-3
966.254425E-3
965.909386E-3
965.563202E-3
965.314293E-3
965.132332E-3
964.876556E-3
964.711189E-3
964.409065E-3
964.098358E-3
963.919258E-3
963.688087E-3
963.423729E-3
963.210297E-3
962.921333E-3
962.785721E-3
962.178612E-3
962.178612E-3
962.118530E-3
961.879921E-3
961.846733E-3
961.618423E-3
961.419868E-3
961.322021E-3
961.081123E-3
961.137199E-3
960.886574E-3
961.018753E-3
960.884285E-3
960.697746E-3
960.631371E-3
960.476303E-3
959.993362E-3
960.086632E-3
959.960747E-3
959.820557E-3
959.485817E-3
959.263802E-3
958.957672E-3
958.662987E-3
958.497620E-3
958.275604E-3
958.387756E-3
958.404922E-3
959.054947E-3
960.527229E-3
962.443542E-3
965.057373E-3
967.746735E-3
970.263863E-3
972.612190E-3
974.285316E-3
975.361061E-3
975.886345E-3
975.959015E-3
975.812531E-3
975.379944E-3
974.877548E-3
974.311638E-3
972.731209E-3
972.858238E-3
972.589874E-3
972.379875E-3
972.223091E-3
972.187042E-3
972.266006E-3
972.598457E-3
972.413063E-3
972.443962E-3
972.146988E-3
971.859741E-3
971.371651E-3
970.608330E-3
970.028114E-3
969.184113E-3
968.902588E-3
968.456268E-3
968.221664E-3
968.373299E-3
968.458557E-3
968.682289E-3
968.899155E-3
969.017029E-3
969.187546E-3
969.242477E-3
969.205284E-3
968.922043E-3
968.697166E-3
968.446541E-3
968.023109E-3
967.749596E-3
967.454910E-3
967.046356E-3
967.043495E-3
966.443253E-3
966.283035E-3
965.911102E-3
965.777206E-3
965.590096E-3
965.204430E-3
965.007019E-3
964.735794E-3
964.320374E-3
964.160156E-3
963.499832E-3
963.660622E-3
963.423157E-3
963.091850E-3
962.973976E-3
962.675285E-3
962.599754E-3
962.372017E-3
962.175179E-3
962.073326E-3
961.867332E-3
961.847878E-3
961.671638E-3
961.630440E-3
961.497688E-3
961.451340E-3
961.518288E-3
961.386681E-3
961.114883E-3
961.167526E-3
960.929489E-3
960.879707E-3
960.795021E-3
960.461998E-3
960.493469E-3
960.020828E-3
959.786224E-3
959.474945E-3
959.178543E-3
959.019470E-3
958.711624E-3
958.621788E-3
958.779716E-3
958.737373E-3
959.525299E-3
960.854530E-3
962.998581E-3
965.598679E-3
968.396187E-3
971.027184E-3
973.187828E-3
975.314713E-3
976.039696E-3
976.492882E-3
976.620483E-3
976.258278E-3
975.841713E-3
975.199699E-3
974.668121E-3
974.114227E-3
973.514557E-3
973.126030E-3
972.881699E-3
972.867393E-3
972.831917E-3
972.989273E-3
972.981834E-3
973.072815E-3
973.114586E-3
973.284531E-3
972.992134E-3
972.480583E-3
971.922112E-3
971.026039E-3
970.327950E-3
969.804382E-3
969.425011E-3
969.051933E-3
968.867111E-3
969.194984E-3
969.223022E-3
969.536591E-3
969.506836E-3
969.642448E-3
969.601822E-3
969.448471E-3
969.267654E-3
969.426155E-3
968.946075E-3
968.725204E-3
968.322372E-3
968.019676E-3
967.713547E-3
967.358208E-3
967.270088E-3
966.933632E-3
966.797447E-3
966.602898E-3
966.332245E-3
966.001511E-3
965.715408E-3
965.638161E-3
965.329170E-3
965.225601E-3
965.000153E-3
964.658546E-3
964.400482E-3
964.160156E-3
963.965607E-3
963.796234E-3
963.733292E-3
963.596535E-3
962.985420E-3
962.949944E-3
962.943077E-3
962.759399E-3
962.769127E-3
962.698174E-3
962.591171E-3
962.464142E-3
962.348557E-3
962.516785E-3
962.428665E-3
962.073326E-3
962.019539E-3
961.881065E-3
961.748314E-3
961.628723E-3
961.376381E-3
961.300850E-3
960.909462E-3
960.748672E-3
960.455704E-3
960.229683E-3
959.929848E-3
959.795952E-3
959.544182E-3
959.451485E-3
959.362221E-3
959.803391E-3
960.867691E-3
962.765121E-3
965.070534E-3
967.707825E-3
970.333099E-3
