Notes :


2023-11-10 ¿ÀÈÄ 11:29:43
Volts
Ch : LED 2,
61.499405E-3
61.922836E-3
61.558914E-3
61.485672E-3
61.306572E-3
61.316872E-3
61.344910E-3
61.224747E-3
61.168098E-3
61.138916E-3
61.155510E-3
61.157799E-3
61.109734E-3
61.070824E-3
61.035919E-3
61.303711E-3
61.101723E-3
60.769272E-3
60.915756E-3
60.908318E-3
60.764694E-3
60.844231E-3
60.768127E-3
60.790443E-3
60.059738E-3
60.425949E-3
60.332108E-3
60.424232E-3
60.481453E-3
60.426521E-3
60.451698E-3
60.445404E-3
60.266304E-3
60.352707E-3
60.349846E-3
60.323524E-3
60.487747E-3
60.447121E-3
60.937500E-3
61.388397E-3
62.097359E-3
62.854385E-3
63.218880E-3
64.071465E-3
64.558983E-3
64.877129E-3
65.004730E-3
64.842224E-3
64.782715E-3
64.500618E-3
64.223099E-3
63.978195E-3
63.651466E-3
63.561630E-3
63.477516E-3
63.387108E-3
63.467216E-3
63.454056E-3
63.488960E-3
63.559341E-3
63.458061E-3
63.657761E-3
63.574219E-3
63.566208E-3
63.286400E-3
63.058662E-3
62.944221E-3
62.519646E-3
62.520790E-3
62.481308E-3
62.487602E-3
62.658119E-3
62.640953E-3
62.803459E-3
62.920761E-3
62.941933E-3
63.063240E-3
62.918472E-3
62.777138E-3
62.797737E-3
62.697601E-3
62.694168E-3
62.438965E-3
62.377167E-3
62.270737E-3
62.257004E-3
62.218666E-3
62.048721E-3
62.009811E-3
61.891365E-3
61.791801E-3
61.811829E-3
61.693954E-3
61.705971E-3
61.610413E-3
61.550903E-3
61.602974E-3
61.443329E-3
61.406136E-3
61.442184E-3
61.358643E-3
61.399269E-3
61.219025E-3
61.102295E-3
61.193848E-3
61.114883E-3
61.215019E-3
61.043930E-3
61.122322E-3
61.028481E-3
61.046219E-3
61.049652E-3
60.966110E-3
61.014748E-3
60.849380E-3
60.783577E-3
60.824776E-3
60.707474E-3
60.713768E-3
60.743523E-3
60.699463E-3
60.683441E-3
60.511208E-3
60.550117E-3
60.555267E-3
60.470581E-3
60.524940E-3
60.414505E-3
60.455132E-3
60.400772E-3
60.214806E-3
60.260010E-3
60.146713E-3
60.201645E-3
60.132980E-3
60.010529E-3
60.044289E-3
59.883499E-3
60.003090E-3
60.068893E-3
59.969330E-3
60.094070E-3
60.342407E-3
60.901451E-3
61.522293E-3
62.185478E-3
63.014030E-3
63.661766E-3
64.127541E-3
64.498329E-3
64.566422E-3
64.596748E-3
64.471436E-3
64.348984E-3
64.057159E-3
63.866043E-3
63.729286E-3
63.475227E-3
63.389969E-3
63.328171E-3
63.318443E-3
63.302994E-3
63.331604E-3
63.409424E-3
63.464928E-3
63.466072E-3
63.378525E-3
63.395691E-3
63.295555E-3
63.023186E-3
62.761116E-3
62.588882E-3
62.342834E-3
62.265015E-3
62.224388E-3
62.364006E-3
62.414932E-3
62.413788E-3
62.644386E-3
62.714195E-3
62.658691E-3
62.729645E-3
62.590599E-3
62.675858E-3
62.703323E-3
62.410927E-3
62.374306E-3
62.101936E-3
62.075043E-3
62.008667E-3
61.815262E-3
61.792946E-3
61.639595E-3
61.630440E-3
61.557198E-3
61.466789E-3
61.491966E-3
61.348343E-3
61.456490E-3
61.356354E-3
61.091423E-3
61.189270E-3
61.142921E-3
61.232185E-3
61.090279E-3
61.031342E-3
61.106873E-3
60.930634E-3
60.994148E-3
61.005020E-3
60.918617E-3
60.934067E-3
60.831070E-3
60.829926E-3
60.797310E-3
60.744095E-3
60.859108E-3
60.700607E-3
60.742378E-3
60.653114E-3
60.524940E-3
60.551834E-3
60.451126E-3
60.536957E-3
60.476303E-3
60.379601E-3
60.423088E-3
60.264015E-3
60.368729E-3
60.354424E-3
60.281754E-3
60.341263E-3
60.226250E-3
60.224533E-3
60.240555E-3
60.115814E-3
60.181046E-3
60.023117E-3
59.948158E-3
59.902382E-3
59.873772E-3
59.847450E-3
59.751320E-3
59.742737E-3
59.799385E-3
59.609413E-3
59.914398E-3
60.057449E-3
60.613060E-3
61.248207E-3
61.939430E-3
62.731934E-3
63.415718E-3
63.969612E-3
64.399338E-3
64.589310E-3
64.707756E-3
64.560127E-3
64.396477E-3
64.068031E-3
63.812828E-3
63.662338E-3
63.408279E-3
63.237762E-3
63.236618E-3
63.210869E-3
63.314438E-3
63.266373E-3
63.396263E-3
63.557053E-3
63.517570E-3
63.604546E-3
63.552475E-3
63.463211E-3
63.225174E-3
62.875557E-3
62.746239E-3
62.417221E-3
62.385178E-3
62.309647E-3
62.164307E-3
62.273598E-3
62.402916E-3
62.490463E-3
62.561417E-3
62.600327E-3
62.758827E-3
62.652969E-3
62.661552E-3
62.614059E-3
62.488174E-3
62.493324E-3
62.285614E-3
62.179756E-3
62.119675E-3
61.964035E-3
61.940002E-3
61.749458E-3
61.762047E-3
61.652756E-3
61.657906E-3
61.652756E-3
61.437607E-3
61.406708E-3
61.510849E-3
61.343765E-3
61.225319E-3
61.168098E-3
61.223602E-3
61.167526E-3
61.018181E-3
61.100006E-3
61.039352E-3
61.106873E-3
60.968971E-3
60.876846E-3
60.967827E-3
60.831642E-3
60.930061E-3
60.909462E-3
60.815620E-3
60.946655E-3
60.819626E-3
60.810471E-3
60.808182E-3
60.682869E-3
60.680580E-3
60.587311E-3
60.603905E-3
60.548973E-3
60.472298E-3
60.507202E-3
60.389328E-3
60.415649E-3
60.363007E-3
60.340118E-3
60.402489E-3
60.289764E-3
60.359001E-3
60.260010E-3
60.162163E-3
60.214233E-3
60.047150E-3
59.985924E-3
59.971619E-3
59.854317E-3
59.921265E-3
59.885216E-3
59.861183E-3
59.829712E-3
59.761620E-3
60.078621E-3
59.944725E-3
60.288620E-3
60.778427E-3
61.394691E-3
62.211227E-3
62.917900E-3
63.605118E-3
64.069176E-3
64.471436E-3
64.638519E-3
64.429665E-3
64.375305E-3
64.162445E-3
63.830566E-3
63.741875E-3
63.420296E-3
63.202858E-3
63.070107E-3
62.932205E-3
62.995720E-3
62.945366E-3
63.000870E-3
63.109589E-3
63.073540E-3
63.195992E-3
63.055229E-3
63.032341E-3
62.773132E-3
62.470436E-3
62.331390E-3
62.058449E-3
62.017250E-3
61.984634E-3
61.962891E-3
62.197495E-3
62.220955E-3
62.378883E-3
62.458992E-3
62.439537E-3
62.588882E-3
62.472725E-3
62.555695E-3
62.493324E-3
62.309074E-3
62.228394E-3
62.096786E-3
61.929131E-3
61.818123E-3
61.619568E-3
61.617851E-3
61.464500E-3
61.537170E-3
61.408997E-3
61.367226E-3
61.386108E-3
61.271667E-3
61.251640E-3
61.186981E-3
61.145782E-3
61.251068E-3
61.150360E-3
61.051369E-3
61.014175E-3
60.958672E-3
60.950661E-3
60.819626E-3
60.823059E-3
60.773849E-3
60.656548E-3
60.766411E-3
60.595894E-3
60.581589E-3
60.653687E-3
60.530663E-3
60.571289E-3
60.583305E-3
60.543823E-3
60.470009E-3
60.536385E-3
60.509491E-3
60.293198E-3
60.325241E-3
60.324097E-3
60.293770E-3
60.243988E-3
60.200500E-3
60.112381E-3
60.061455E-3
60.055161E-3
60.056877E-3
60.003090E-3
59.933281E-3
59.863472E-3
59.767342E-3
59.802818E-3
59.616280E-3
59.548759E-3
59.615707E-3
59.532738E-3
59.619141E-3
59.547043E-3
59.717560E-3
60.026550E-3
60.406494E-3
61.065674E-3
61.701393E-3
62.611198E-3
63.375664E-3
63.874054E-3
64.320374E-3
64.403915E-3
64.407921E-3
64.403915E-3
64.152718E-3
64.034843E-3
63.667488E-3
63.434029E-3
63.268661E-3
63.091278E-3
63.092995E-3
62.963676E-3
62.965393E-3
63.103294E-3
63.057518E-3
63.204002E-3
63.198853E-3
63.197708E-3
63.209152E-3
63.014603E-3
62.872124E-3
62.570000E-3
62.286758E-3
62.250710E-3
62.016106E-3
61.996078E-3
61.978340E-3
62.085915E-3
62.212944E-3
62.282181E-3
62.477875E-3
62.378311E-3
62.520790E-3
62.468719E-3
62.329674E-3
62.373734E-3
62.215805E-3
62.109375E-3
61.997795E-3
61.804390E-3
61.723137E-3
61.653328E-3
61.495972E-3
61.459351E-3
61.297989E-3
61.379814E-3
61.192131E-3
61.120033E-3
61.153793E-3
61.035347E-3
61.078835E-3
60.927200E-3
60.983849E-3
60.940361E-3
60.742378E-3
60.870552E-3
60.835648E-3
60.852814E-3
60.690880E-3
60.618210E-3
60.613632E-3
60.539818E-3
60.471725E-3
60.540390E-3
60.425949E-3
60.607338E-3
60.389328E-3
60.417938E-3
60.470581E-3
60.348701E-3
60.395622E-3
60.351562E-3
60.250854E-3
60.276031E-3
60.136986E-3
60.197067E-3
60.173035E-3
60.056305E-3
60.062027E-3
59.968758E-3
60.015678E-3
59.900665E-3
59.961319E-3
59.968185E-3
59.868622E-3
59.930420E-3
59.831429E-3
59.799385E-3
59.837151E-3
59.609413E-3
59.681511E-3
59.557343E-3
59.559631E-3
59.559631E-3
59.404564E-3
59.421730E-3
59.353065E-3
59.338760E-3
59.506416E-3
59.732437E-3
60.260010E-3
60.884285E-3
61.617851E-3
62.521362E-3
63.198280E-3
63.941574E-3
64.366722E-3
64.651680E-3
64.760971E-3
64.558411E-3
64.482307E-3
64.274597E-3
63.978767E-3
63.826561E-3
63.484955E-3
63.344193E-3
63.255501E-3
63.182259E-3
63.231468E-3
63.138771E-3
63.273239E-3
63.309288E-3
63.448334E-3
63.502693E-3
63.442039E-3
63.403702E-3
63.203430E-3
62.981415E-3
62.770844E-3
62.536240E-3
62.408638E-3
62.239265E-3
62.224388E-3
62.313080E-3
62.260437E-3
62.409210E-3
62.549400E-3
62.543106E-3
62.567711E-3
62.530518E-3
62.518501E-3
62.492752E-3
62.492180E-3
62.466431E-3
62.168884E-3
62.123680E-3
62.030411E-3
61.832428E-3
61.891937E-3
61.748314E-3
61.683655E-3
61.558342E-3
61.495399E-3
61.452484E-3
61.297989E-3
61.383247E-3
61.215591E-3
61.224747E-3
61.275101E-3
61.108017E-3
61.116600E-3
60.982132E-3
60.975266E-3
61.002159E-3
60.919762E-3
61.057091E-3
61.034203E-3
60.837364E-3
60.930061E-3
60.792160E-3
60.866547E-3
60.761833E-3
60.730934E-3
60.716057E-3
60.600471E-3
60.659981E-3
60.556412E-3
60.457993E-3
60.494614E-3
60.432816E-3
60.448837E-3
60.312080E-3
60.263443E-3
60.363579E-3
60.269737E-3
60.276604E-3
60.349846E-3
60.259438E-3
60.253716E-3
60.132408E-3
60.112381E-3
60.080910E-3
60.005379E-3
60.097504E-3
59.944153E-3
60.056877E-3
59.908104E-3
59.764481E-3
59.770203E-3
59.695244E-3
59.746742E-3
59.615707E-3
59.581947E-3
59.597397E-3
59.480095E-3
59.621429E-3
59.840584E-3
60.189056E-3
60.828209E-3
61.491966E-3
62.414932E-3
63.133049E-3
63.717270E-3
64.257431E-3
64.435959E-3
64.675140E-3
64.628792E-3
64.467430E-3
64.340401E-3
63.874626E-3
63.706970E-3
63.475800E-3
63.176537E-3
63.133621E-3
62.975121E-3
62.956238E-3
62.986565E-3
63.023758E-3
63.091278E-3
63.024902E-3
63.197136E-3
63.002014E-3
62.853813E-3
62.765121E-3
62.393188E-3
62.290192E-3
62.197495E-3
61.987495E-3
62.038422E-3
61.962891E-3
62.153435E-3
62.291336E-3
62.353134E-3
62.495613E-3
62.530518E-3
62.517929E-3
62.443542E-3
62.397194E-3
62.402916E-3
62.169456E-3
62.145424E-3
62.020111E-3
61.842728E-3
61.864471E-3
61.660767E-3
61.612129E-3
61.510849E-3
61.291122E-3
61.432457E-3
61.292267E-3
61.303139E-3
61.181831E-3
61.231613E-3
61.178398E-3
61.018753E-3
61.010170E-3
60.945511E-3
60.856819E-3
60.861397E-3
60.754395E-3
60.931206E-3
60.898590E-3
60.680580E-3
60.733223E-3
60.619926E-3
60.662842E-3
60.561562E-3
60.557556E-3
60.566139E-3
60.486603E-3
60.444832E-3
60.380173E-3
60.290337E-3
60.396767E-3
60.241699E-3
60.294914E-3
60.210800E-3
60.209656E-3
60.191917E-3
60.028267E-3
60.119820E-3
60.051155E-3
60.016823E-3
60.130119E-3
59.963608E-3
60.002518E-3
59.769058E-3
59.781075E-3
59.793663E-3
59.643173E-3
59.682655E-3
59.627151E-3
59.553337E-3
59.523010E-3
59.393120E-3
59.430885E-3
59.395981E-3
59.321594E-3
59.544182E-3
59.613991E-3
60.068321E-3
60.588455E-3
61.292267E-3
62.157440E-3
62.791443E-3
63.642883E-3
64.253998E-3
64.610481E-3
64.852524E-3
64.725494E-3
64.673996E-3
64.414215E-3
64.052010E-3
63.902092E-3
63.574791E-3
63.281250E-3
63.146782E-3
63.085556E-3
63.192558E-3
63.129616E-3
63.152504E-3
63.206863E-3
63.028908E-3
63.224030E-3
63.115883E-3
63.138771E-3
62.963104E-3
62.642097E-3
62.553978E-3
62.231827E-3
62.117386E-3
61.996651E-3
61.940002E-3
62.194061E-3
62.113953E-3
62.240410E-3
62.385750E-3
62.298775E-3
62.484741E-3
62.374878E-3
62.424088E-3
62.306213E-3
62.217522E-3
62.245560E-3
62.048149E-3
62.010384E-3
61.803818E-3
61.689377E-3
61.638451E-3
61.454773E-3
61.355782E-3
61.337471E-3
61.277390E-3
61.237907E-3
61.112595E-3
61.080551E-3
61.043930E-3
60.934639E-3
60.968399E-3
60.829353E-3
60.783005E-3
60.728645E-3
60.632515E-3
60.732079E-3
60.607910E-3
60.600471E-3
60.618782E-3
60.631371E-3
60.623360E-3
60.498047E-3
60.582161E-3
60.482025E-3
60.374451E-3
60.483170E-3
60.363007E-3
60.337257E-3
60.464859E-3
60.276031E-3
60.360146E-3
60.113525E-3
60.152435E-3
60.107803E-3
60.012817E-3
60.099220E-3
60.045433E-3
59.937286E-3
60.041428E-3
59.917831E-3
59.916687E-3
59.848595E-3
59.835434E-3
59.893799E-3
59.770775E-3
59.904099E-3
59.728432E-3
59.660912E-3
59.737015E-3
59.596825E-3
59.573364E-3
59.469795E-3
59.433746E-3
59.444046E-3
59.357643E-3
59.390259E-3
59.190559E-3
59.251213E-3
59.427452E-3
59.607124E-3
60.143280E-3
60.717201E-3
61.513138E-3
62.449837E-3
63.191986E-3
63.931274E-3
64.377022E-3
64.699745E-3
64.909172E-3
64.792442E-3
64.649391E-3
64.371872E-3
64.100647E-3
63.863754E-3
63.498688E-3
63.376808E-3
63.149643E-3
63.159370E-3
63.246346E-3
63.133621E-3
63.240623E-3
63.278961E-3
63.355064E-3
63.416862E-3
63.407135E-3
63.356781E-3
63.133049E-3
62.905312E-3
62.718773E-3
62.379456E-3
62.273598E-3
62.088776E-3
62.117958E-3
62.177467E-3
62.322235E-3
62.398911E-3
62.529373E-3
62.524796E-3
62.566566E-3
62.568855E-3
62.606621E-3
62.549400E-3
62.437248E-3
62.433243E-3
62.191772E-3
62.199211E-3
62.013245E-3
61.766624E-3
61.816406E-3
61.731148E-3
61.691666E-3
61.598969E-3
61.564064E-3
61.466217E-3
61.299133E-3
61.334038E-3
61.222458E-3
61.265373E-3
61.256790E-3
61.051369E-3
61.089134E-3
61.093140E-3
61.022758E-3
61.030197E-3
60.880852E-3
61.009026E-3
60.848236E-3
60.808182E-3
60.839081E-3
60.685730E-3
60.789299E-3
60.642815E-3
60.683441E-3
60.662842E-3
60.688019E-3
60.607910E-3
60.555267E-3
60.487747E-3
60.498047E-3
60.379028E-3
60.474014E-3
60.383606E-3
60.391617E-3
60.339546E-3
60.260010E-3
60.324669E-3
60.154152E-3
60.221100E-3
60.227394E-3
60.055161E-3
60.131264E-3
60.075760E-3
60.057449E-3
60.005951E-3
59.884644E-3
59.952736E-3
59.892654E-3
59.876060E-3
59.878922E-3
59.700966E-3
59.757042E-3
59.673500E-3
59.604263E-3
59.619141E-3
59.571075E-3
59.529877E-3
59.506989E-3
59.607697E-3
59.791374E-3
60.236549E-3
60.944939E-3
61.609268E-3
62.391472E-3
63.242912E-3
63.799667E-3
64.323807E-3
64.620209E-3
64.649963E-3
64.724922E-3
64.338112E-3
64.156151E-3
63.764763E-3
63.503265E-3
63.289833E-3
62.953949E-3
62.856102E-3
62.659264E-3
62.672997E-3
62.786865E-3
62.690163E-3
62.797737E-3
62.752533E-3
62.788010E-3
62.834358E-3
62.615204E-3
62.472153E-3
62.207794E-3
61.910820E-3
61.867332E-3
61.691093E-3
61.786079E-3
61.901665E-3
62.000084E-3
62.154007E-3
62.192345E-3
