Notes :


2023-11-02 ¿ÀÈÄ 6:35:59
Volts
Ch : LED 2,
642.430687E-3
644.688034E-3
647.369957E-3
651.145363E-3
653.707695E-3
656.877708E-3
658.586311E-3
658.821487E-3
659.494400E-3
657.976341E-3
657.461929E-3
656.007385E-3
654.400635E-3
653.477097E-3
651.722145E-3
651.585960E-3
650.949669E-3
650.234413E-3
650.537109E-3
650.174904E-3
650.649261E-3
650.665283E-3
650.297928E-3
650.363159E-3
649.920845E-3
650.498772E-3
650.585747E-3
650.746536E-3
651.813698E-3
651.848030E-3
653.413010E-3
654.073906E-3
654.275322E-3
655.070686E-3
654.707909E-3
655.155945E-3
654.594040E-3
653.790092E-3
653.455925E-3
652.107239E-3
651.699257E-3
650.521660E-3
649.061966E-3
648.595619E-3
647.026062E-3
646.683884E-3
645.788383E-3
644.264030E-3
643.719864E-3
642.992020E-3
643.083572E-3
642.308807E-3
641.437340E-3
641.281700E-3
640.105820E-3
640.048599E-3
639.608002E-3
638.831520E-3
638.832092E-3
637.887955E-3
637.844467E-3
637.511444E-3
636.705208E-3
637.126350E-3
636.503220E-3
636.501503E-3
636.076355E-3
635.525894E-3
635.579681E-3
634.320831E-3
634.614944E-3
633.925438E-3
632.427979E-3
632.876015E-3
632.118988E-3
632.229996E-3
631.799126E-3
630.906487E-3
631.240082E-3
630.593491E-3
631.270409E-3
632.100105E-3
633.241081E-3
635.902405E-3
638.567162E-3
641.992378E-3
645.115471E-3
646.594048E-3
649.210167E-3
649.451637E-3
649.891663E-3
649.151230E-3
647.549629E-3
646.721077E-3
644.710922E-3
643.687248E-3
642.179489E-3
640.801048E-3
640.574455E-3
639.561653E-3
639.564514E-3
639.336205E-3
638.762856E-3
639.197731E-3
638.089943E-3
637.756348E-3
637.574959E-3
636.627960E-3
637.296295E-3
636.974716E-3
637.720299E-3
638.176346E-3
638.282776E-3
639.900970E-3
639.783096E-3
640.552139E-3
640.814209E-3
640.329552E-3
641.205025E-3
640.334129E-3
640.472031E-3
640.099525E-3
639.126205E-3
639.258957E-3
638.100243E-3
637.703133E-3
637.598419E-3
636.684036E-3
637.165833E-3
635.987091E-3
635.973930E-3
636.052322E-3
635.647202E-3
636.304665E-3
635.367966E-3
635.889244E-3
636.116982E-3
635.808563E-3
636.623955E-3
635.779381E-3
636.016846E-3
636.158752E-3
635.800552E-3
636.661148E-3
635.744476E-3
635.775375E-3
636.003113E-3
635.095596E-3
636.150169E-3
635.231209E-3
635.203171E-3
634.986877E-3
633.971214E-3
634.986305E-3
633.852768E-3
633.667946E-3
633.695984E-3
632.980156E-3
633.332062E-3
632.301521E-3
632.224846E-3
632.173347E-3
630.441856E-3
631.527328E-3
630.745125E-3
631.107903E-3
631.468391E-3
631.765938E-3
634.090233E-3
635.877228E-3
639.171982E-3
642.874718E-3
645.865059E-3
649.347496E-3
650.909615E-3
652.268600E-3
652.747536E-3
651.630020E-3
651.939011E-3
649.860764E-3
648.728943E-3
647.430038E-3
645.654488E-3
645.485115E-3
643.898964E-3
643.428612E-3
643.267250E-3
642.811775E-3
643.507576E-3
642.841530E-3
642.609787E-3
642.333984E-3
641.342354E-3
641.695976E-3
640.517235E-3
640.262032E-3
640.441132E-3
640.260315E-3
641.099739E-3
640.917778E-3
641.227913E-3
641.849899E-3
641.591835E-3
642.424393E-3
641.758347E-3
641.605568E-3
641.572380E-3
640.472031E-3
640.429115E-3
639.010048E-3
638.308525E-3
637.687683E-3
636.860275E-3
637.036514E-3
635.898972E-3
635.396004E-3
635.389137E-3
634.623528E-3
635.034370E-3
634.224701E-3
634.101677E-3
634.190369E-3
633.638191E-3
634.327698E-3
633.658218E-3
633.552933E-3
633.870506E-3
633.419037E-3
633.913994E-3
633.344650E-3
633.454514E-3
633.779526E-3
633.304596E-3
633.824730E-3
633.315468E-3
633.196449E-3
633.504295E-3
632.876587E-3
633.467102E-3
632.935524E-3
632.727242E-3
632.990456E-3
632.395935E-3
632.933235E-3
632.433701E-3
632.066345E-3
632.229996E-3
631.498146E-3
632.117271E-3
631.350517E-3
630.913353E-3
631.133652E-3
630.344009E-3
630.804634E-3
630.227280E-3
629.899406E-3
630.402946E-3
630.341721E-3
632.270622E-3
633.763504E-3
636.649132E-3
640.373611E-3
642.905617E-3
646.963120E-3
649.201584E-3
650.679016E-3
651.655197E-3
650.782013E-3
650.322533E-3
648.728943E-3
646.847534E-3
645.561790E-3
643.570518E-3
642.780876E-3
641.410446E-3
640.496063E-3
640.121269E-3
639.427757E-3
639.885521E-3
639.545059E-3
638.963127E-3
639.046669E-3
637.825584E-3
637.937164E-3
637.416458E-3
636.925507E-3
637.359238E-3
636.970711E-3
638.184357E-3
638.503075E-3
638.810349E-3
639.640617E-3
639.531898E-3
640.600204E-3
640.441132E-3
640.114403E-3
639.865494E-3
639.056969E-3
639.339638E-3
638.374901E-3
637.586975E-3
637.119484E-3
635.758781E-3
636.051750E-3
635.442352E-3
634.529686E-3
634.565735E-3
633.716583E-3
634.114265E-3
633.724022E-3
633.001328E-3
633.345795E-3
632.448006E-3
633.010483E-3
632.821083E-3
632.295227E-3
632.888031E-3
632.239151E-3
632.929802E-3
632.571602E-3
632.147598E-3
632.623100E-3
632.112694E-3
632.818222E-3
632.758141E-3
631.973076E-3
632.778168E-3
632.324409E-3
633.166695E-3
632.961273E-3
632.342720E-3
632.699203E-3
631.957626E-3
632.322121E-3
631.904984E-3
631.521034E-3
631.663513E-3
630.808067E-3
631.384850E-3
630.783463E-3
630.334854E-3
630.376053E-3
629.758644E-3
630.402374E-3
631.085587E-3
632.300949E-3
634.771729E-3
637.390709E-3
641.406441E-3
644.777298E-3
647.466087E-3
650.066185E-3
650.870132E-3
652.062607E-3
651.628876E-3
650.499916E-3
649.533463E-3
647.617722E-3
646.885300E-3
645.315742E-3
643.647766E-3
642.799759E-3
641.866493E-3
642.119980E-3
641.869354E-3
641.413307E-3
641.764069E-3
641.054535E-3
641.223907E-3
640.537834E-3
639.864349E-3
639.974213E-3
639.372253E-3
640.277481E-3
640.332413E-3
640.630531E-3
641.738319E-3
641.867065E-3
642.950821E-3
643.341064E-3
642.889595E-3
643.666077E-3
643.126488E-3
643.276978E-3
642.937088E-3
641.848755E-3
641.847610E-3
640.684319E-3
640.569305E-3
639.951897E-3
639.201164E-3
639.221764E-3
638.096237E-3
638.110542E-3
637.668228E-3
636.781311E-3
636.729813E-3
636.253738E-3
636.853981E-3
636.617088E-3
636.100388E-3
636.602783E-3
636.020851E-3
636.353874E-3
636.443138E-3
635.826874E-3
636.302376E-3
636.051178E-3
636.156464E-3
636.329269E-3
635.691261E-3
636.437988E-3
635.762215E-3
635.943604E-3
635.873222E-3
635.258102E-3
635.977936E-3
635.216904E-3
635.389709E-3
635.323334E-3
634.664726E-3
635.111618E-3
633.863068E-3
633.954620E-3
633.673668E-3
632.843399E-3
633.238220E-3
632.063484E-3
632.350731E-3
631.971359E-3
631.024933E-3
631.658936E-3
631.006622E-3
632.257462E-3
633.817863E-3
635.214615E-3
639.574242E-3
642.392921E-3
645.921707E-3
648.855400E-3
650.479317E-3
652.444839E-3
651.931572E-3
651.603699E-3
650.673866E-3
648.827362E-3
648.120117E-3
645.825005E-3
644.488335E-3
643.771935E-3
641.587257E-3
642.195511E-3
641.027641E-3
641.009331E-3
640.993881E-3
640.121269E-3
641.081429E-3
639.926147E-3
639.488411E-3
639.383698E-3
638.567734E-3
639.169693E-3
638.167763E-3
638.659286E-3
638.932800E-3
639.107895E-3
640.368462E-3
640.022850E-3
640.468597E-3
640.724945E-3
640.500641E-3
641.163826E-3
640.003395E-3
640.035439E-3
639.773941E-3
638.754272E-3
638.711929E-3
637.283707E-3
636.634827E-3
636.186790E-3
635.286713E-3
635.647202E-3
634.150314E-3
634.081650E-3
633.952332E-3
633.212471E-3
633.798981E-3
632.814789E-3
632.818222E-3
632.953835E-3
632.397079E-3
633.070564E-3
632.201385E-3
632.255745E-3
632.591057E-3
631.748199E-3
632.599068E-3
632.112122E-3
632.271767E-3
632.544136E-3
632.084084E-3
632.780457E-3
631.783104E-3
631.955910E-3
632.107544E-3
631.744194E-3
632.502937E-3
631.701279E-3
631.509018E-3
631.812286E-3
631.244087E-3
631.832886E-3
630.777740E-3
630.379486E-3
630.264473E-3
629.790688E-3
630.314827E-3
629.158401E-3
629.020500E-3
628.817940E-3
628.106689E-3
628.582191E-3
628.016281E-3
629.139519E-3
631.024933E-3
632.484627E-3
636.939812E-3
639.981651E-3
643.244362E-3
645.824432E-3
646.369171E-3
648.654556E-3
647.958183E-3
647.255516E-3
646.498489E-3
644.594765E-3
643.646622E-3
641.472244E-3
640.021133E-3
639.212036E-3
637.764359E-3
637.806702E-3
636.587906E-3
636.627960E-3
636.531830E-3
635.800552E-3
636.211967E-3
635.326195E-3
634.663582E-3
634.634399E-3
634.114838E-3
634.811783E-3
634.491920E-3
634.969711E-3
635.617447E-3
635.689545E-3
637.003326E-3
637.090874E-3
637.449074E-3
637.911415E-3
637.405014E-3
637.843895E-3
637.232208E-3
636.944389E-3
636.887741E-3
634.691620E-3
635.247803E-3
634.491920E-3
633.798409E-3
633.618164E-3
632.812500E-3
632.777596E-3
632.200813E-3
632.025146E-3
632.132721E-3
631.439209E-3
632.033730E-3
631.357956E-3
630.986595E-3
631.329918E-3
630.780602E-3
631.281281E-3
630.923653E-3
631.017494E-3
631.439781E-3
629.422760E-3
631.088448E-3
630.995750E-3
631.046677E-3
631.474113E-3
631.101608E-3
631.842613E-3
631.392288E-3
631.411743E-3
631.789970E-3
631.131935E-3
631.915855E-3
631.453514E-3
630.946541E-3
631.332779E-3
630.589485E-3
631.074715E-3
630.496788E-3
629.841042E-3
629.954338E-3
629.197884E-3
630.020142E-3
630.346298E-3
631.236076E-3
633.891106E-3
636.139297E-3
640.010262E-3
642.993164E-3
645.561218E-3
648.219109E-3
649.081421E-3
650.605774E-3
650.245285E-3
649.197578E-3
648.573303E-3
646.776009E-3
646.240997E-3
644.540405E-3
643.248940E-3
642.593765E-3
641.239357E-3
641.420746E-3
640.684319E-3
640.196228E-3
640.415382E-3
639.605141E-3
640.011406E-3
639.024353E-3
638.594627E-3
638.713074E-3
638.093948E-3
639.231491E-3
639.058685E-3
639.222908E-3
640.334702E-3
640.324402E-3
641.705704E-3
641.772079E-3
641.940308E-3
642.396355E-3
641.538620E-3
642.181778E-3
641.636467E-3
640.683174E-3
640.358734E-3
639.144516E-3
639.372826E-3
638.365173E-3
637.314606E-3
636.724663E-3
635.909843E-3
636.569595E-3
635.814285E-3
635.160255E-3
635.191727E-3
634.479904E-3
634.832382E-3
634.436417E-3
633.827019E-3
634.204102E-3
633.469963E-3
634.142876E-3
633.969498E-3
633.256531E-3
633.707428E-3
633.130074E-3
633.829880E-3
633.712006E-3
633.312607E-3
633.605003E-3
633.123779E-3
633.842468E-3
633.627892E-3
632.945824E-3
633.450508E-3
632.907486E-3
633.246803E-3
633.135223E-3
632.724380E-3
632.714081E-3
631.888390E-3
632.433128E-3
631.934166E-3
631.360245E-3
631.119347E-3
630.287361E-3
630.564880E-3
630.128860E-3
630.409241E-3
631.490135E-3
633.100891E-3
636.743546E-3
639.672661E-3
642.635536E-3
645.955467E-3
647.677231E-3
649.738312E-3
650.374031E-3
649.384689E-3
649.540901E-3
647.921562E-3
647.093582E-3
645.772934E-3
643.880653E-3
643.000031E-3
641.103172E-3
640.698051E-3
640.104675E-3
638.708496E-3
639.260674E-3
638.811493E-3
639.494705E-3
638.963699E-3
637.670517E-3
637.776375E-3
637.172699E-3
637.388992E-3
637.548065E-3
637.322617E-3
638.110542E-3
637.971497E-3
639.173698E-3
639.688110E-3
639.645195E-3
640.567017E-3
640.228844E-3
640.659714E-3
640.476608E-3
639.715576E-3
639.648628E-3
638.639259E-3
638.560295E-3
637.833595E-3
636.271477E-3
636.411095E-3
635.301590E-3
635.318756E-3
634.947395E-3
634.356308E-3
634.525108E-3
633.472824E-3
633.695412E-3
633.352089E-3
632.819366E-3
632.914352E-3
632.361603E-3
632.869148E-3
632.723808E-3
632.263184E-3
632.698059E-3
632.268333E-3
632.709503E-3
632.438278E-3
631.995964E-3
632.687759E-3
632.109833E-3
632.429123E-3
632.416534E-3
631.800842E-3
632.441711E-3
631.809425E-3
631.970787E-3
631.959915E-3
631.241798E-3
631.644630E-3
630.868149E-3
630.942535E-3
630.599785E-3
629.761505E-3
630.054474E-3
628.960419E-3
628.792191E-3
628.787041E-3
628.204536E-3
629.413033E-3
629.974937E-3
632.240868E-3
634.772873E-3
636.844254E-3
641.132927E-3
643.456650E-3
645.914841E-3
647.209167E-3
647.165680E-3
647.520447E-3
646.038437E-3
644.947243E-3
643.507576E-3
641.397858E-3
640.700912E-3
638.833809E-3
638.022423E-3
637.147522E-3
635.295868E-3
635.899544E-3
635.184288E-3
635.280418E-3
635.032654E-3
634.167480E-3
634.426117E-3
633.255386E-3
633.100891E-3
633.479691E-3
633.277130E-3
634.391212E-3
634.236145E-3
634.926224E-3
635.680962E-3
635.881233E-3
637.157249E-3
636.641693E-3
636.735535E-3
636.917496E-3
635.406303E-3
636.507225E-3
635.291862E-3
634.894180E-3
634.382629E-3
633.409882E-3
633.492279E-3
632.397079E-3
632.108116E-3
631.864357E-3
631.207466E-3
631.757355E-3
630.816078E-3
630.524254E-3
630.452728E-3
629.566383E-3
630.641556E-3
630.003548E-3
630.466461E-3
630.707359E-3
630.531120E-3
631.282997E-3
630.399513E-3
630.769157E-3
631.201172E-3
630.882454E-3
631.735039E-3
631.089020E-3
631.436348E-3
631.869507E-3
631.696129E-3
632.434273E-3
631.645203E-3
631.831169E-3
632.040596E-3
631.573105E-3
632.211113E-3
631.100464E-3
631.038666E-3
630.990028E-3
630.363464E-3
631.199455E-3
630.595207E-3
631.344795E-3
632.734108E-3
634.553146E-3
638.184929E-3
640.452576E-3
643.675804E-3
646.331406E-3
648.068619E-3
649.962616E-3
649.882507E-3
649.909401E-3
649.310303E-3
646.945381E-3
647.044373E-3
645.217896E-3
644.170761E-3
643.426895E-3
642.055321E-3
642.172050E-3
641.175842E-3
640.835953E-3
640.816498E-3
640.109825E-3
640.599060E-3
639.613724E-3
639.216614E-3
639.131927E-3
638.604927E-3
639.521599E-3
639.272118E-3
639.920425E-3
640.431976E-3
639.609718E-3
641.759491E-3
641.863060E-3
642.402077E-3
643.223190E-3
642.778015E-3
643.536758E-3
642.543983E-3
642.181778E-3
641.975212E-3
640.114975E-3
640.641403E-3
639.748764E-3
639.430618E-3
639.141655E-3
637.998962E-3
638.234711E-3
637.306023E-3
637.162971E-3
637.291145E-3
635.592270E-3
636.594772E-3
636.019135E-3
635.788536E-3
636.175919E-3
635.549355E-3
636.203384E-3
635.570526E-3
635.655785E-3
635.948753E-3
635.449791E-3
636.126137E-3
635.592270E-3
635.381699E-3
635.685539E-3
635.134506E-3
635.600853E-3
635.052109E-3
634.817505E-3
635.284424E-3
634.572601E-3
635.068130E-3
634.229851E-3
633.817291E-3
634.200668E-3
633.380127E-3
633.930016E-3
632.967567E-3
632.603645E-3
632.734680E-3
631.547928E-3
633.233643E-3
633.936882E-3
635.702133E-3
638.644981E-3
640.395927E-3
644.601631E-3
647.084427E-3
649.329185E-3
651.283836E-3
651.296997E-3
651.963043E-3
651.016045E-3
649.753189E-3
648.742104E-3
646.670723E-3
645.725441E-3
644.205666E-3
643.235207E-3
642.858696E-3
641.690826E-3
642.004967E-3
641.505432E-3
641.165543E-3
641.500282E-3
640.364456E-3
640.558434E-3
639.796829E-3
639.352798E-3
639.446640E-3
638.998032E-3
640.041733E-3
640.221405E-3
640.244293E-3
641.148949E-3
641.005898E-3
642.153740E-3
642.062759E-3
641.791534E-3
642.061043E-3
641.099167E-3
641.787529E-3
641.066551E-3
640.121269E-3
639.724159E-3
638.681602E-3
638.860130E-3
638.215828E-3
637.417603E-3
637.485695E-3
636.244583E-3
636.990166E-3
636.510086E-3
636.062050E-3
636.335564E-3
635.664940E-3
636.124420E-3
635.836601E-3
635.455513E-3
635.805130E-3
635.223198E-3
635.993385E-3
635.642052E-3
635.446358E-3
635.744476E-3
635.215759E-3
635.812569E-3
635.737038E-3
635.428619E-3
635.743332E-3
635.145378E-3
635.910416E-3
635.467529E-3
634.882164E-3
635.262108E-3
634.354019E-3
634.672737E-3
634.230423E-3
633.624458E-3
633.580399E-3
632.498360E-3
