Notes :


2023-10-25 ¿ÀÈÄ 10:01:31
Volts
Ch : LED 2,
206.000519E-3
205.764198E-3
205.955887E-3
205.744743E-3
205.732155E-3
205.791664E-3
205.563354E-3
205.723000E-3
205.615425E-3
205.504990E-3
205.598831E-3
205.439186E-3
205.551338E-3
205.411148E-3
205.242920E-3
205.416870E-3
204.511070E-3
205.069542E-3
205.186844E-3
205.071831E-3
205.252075E-3
205.187416E-3
205.220604E-3
205.050087E-3
204.901886E-3
204.986572E-3
204.840088E-3
204.930496E-3
204.817200E-3
204.675293E-3
204.723358E-3
203.584671E-3
204.394341E-3
204.349709E-3
204.382324E-3
204.742813E-3
205.064392E-3
206.081200E-3
206.766701E-3
207.586670E-3
208.443832E-3
208.852386E-3
209.457779E-3
209.416580E-3
209.268379E-3
209.053802E-3
208.354568E-3
208.141136E-3
207.530022E-3
206.965828E-3
206.783295E-3
206.390190E-3
206.334686E-3
206.158447E-3
206.050301E-3
206.181908E-3
206.096077E-3
206.310081E-3
206.342697E-3
206.093216E-3
206.182480E-3
205.868340E-3
205.997658E-3
205.843735E-3
205.644608E-3
205.934715E-3
205.852318E-3
206.156731E-3
206.250000E-3
206.145859E-3
206.436539E-3
206.393623E-3
206.536102E-3
206.484604E-3
206.252289E-3
206.200218E-3
205.942726E-3
206.001663E-3
205.865479E-3
205.537605E-3
205.545044E-3
205.266953E-3
205.318451E-3
205.179977E-3
204.956818E-3
205.084991E-3
204.814339E-3
204.951668E-3
204.940224E-3
204.838371E-3
204.910469E-3
204.648399E-3
204.893303E-3
204.915619E-3
204.648399E-3
204.836082E-3
204.653549E-3
204.868698E-3
204.712486E-3
204.524803E-3
204.788589E-3
204.600334E-3
204.818344E-3
204.706764E-3
204.511642E-3
204.678726E-3
204.432106E-3
204.761124E-3
204.648399E-3
204.384041E-3
204.457283E-3
204.188919E-3
204.424667E-3
204.310799E-3
204.207802E-3
204.307365E-3
203.955460E-3
204.303932E-3
204.163170E-3
203.853607E-3
204.042435E-3
203.857040E-3
204.139137E-3
204.029274E-3
203.725433E-3
203.837013E-3
203.635025E-3
204.015541E-3
203.817558E-3
203.762627E-3
204.293060E-3
204.731941E-3
205.949020E-3
206.739807E-3
207.322311E-3
208.109093E-3
208.442116E-3
208.967400E-3
208.850098E-3
208.430099E-3
208.279037E-3
207.614136E-3
207.353210E-3
207.012177E-3
206.221962E-3
206.175041E-3
205.976486E-3
206.060600E-3
205.986214E-3
205.857468E-3
206.006241E-3
205.856323E-3
206.280327E-3
206.166458E-3
205.961037E-3
206.025124E-3
205.750465E-3
205.801392E-3
205.586815E-3
205.278397E-3
205.566216E-3
205.462074E-3
205.689240E-3
205.895805E-3
205.668640E-3
205.803680E-3
205.819702E-3
206.096649E-3
206.018829E-3
205.847740E-3
205.870056E-3
205.568504E-3
205.565643E-3
205.566216E-3
205.228043E-3
205.240059E-3
204.990578E-3
205.016327E-3
204.960251E-3
204.739952E-3
204.834938E-3
204.653549E-3
204.807472E-3
204.878998E-3
204.659843E-3
204.739380E-3
204.538536E-3
204.757118E-3
204.794884E-3
204.588890E-3
204.659843E-3
204.476166E-3
204.687881E-3
204.524231E-3
204.313087E-3
204.268456E-3
204.308510E-3
204.571152E-3
204.535675E-3
204.297066E-3
204.394341E-3
204.196358E-3
204.313087E-3
204.301071E-3
204.141998E-3
204.277611E-3
204.108810E-3
204.239273E-3
204.163170E-3
204.007530E-3
204.131699E-3
203.949738E-3
204.105949E-3
204.126549E-3
203.950310E-3
204.032135E-3
203.822708E-3
203.873634E-3
203.870773E-3
203.716278E-3
203.746033E-3
203.524017E-3
203.534317E-3
203.554916E-3
203.673935E-3
204.189491E-3
204.588890E-3
205.400848E-3
206.152153E-3
206.730652E-3
207.809258E-3
208.226967E-3
208.664703E-3
208.735657E-3
208.370590E-3
208.257294E-3
207.603836E-3
207.361221E-3
206.920052E-3
206.125832E-3
206.150436E-3
205.937004E-3
205.977631E-3
205.972481E-3
205.807114E-3
205.735588E-3
205.852890E-3
205.975914E-3
206.074333E-3
205.894661E-3
205.999374E-3
205.727577E-3
205.665779E-3
205.471230E-3
205.227470E-3
205.517006E-3
205.326462E-3
205.612564E-3
205.682945E-3
205.612564E-3
205.894661E-3
205.770493E-3
205.880928E-3
205.975914E-3
205.780220E-3
205.842590E-3
205.652618E-3
205.590820E-3
205.450058E-3
205.119896E-3
205.202293E-3
204.937935E-3
205.007172E-3
204.866409E-3
204.396057E-3
204.503632E-3
204.496765E-3
204.531670E-3
204.602623E-3
204.444695E-3
204.559135E-3
204.524231E-3
204.659271E-3
204.632378E-3
204.452705E-3
204.714203E-3
204.482460E-3
204.520226E-3
204.499054E-3
204.267311E-3
204.667282E-3
204.467010E-3
204.528809E-3
204.420090E-3
204.227829E-3
204.533386E-3
204.240990E-3
204.356003E-3
204.292488E-3
203.974915E-3
204.318810E-3
204.097366E-3
204.028130E-3
204.063034E-3
203.404427E-3
203.948593E-3
203.844452E-3
203.913689E-3
203.882790E-3
203.602982E-3
203.866196E-3
203.665924E-3
203.591537E-3
203.610992E-3
203.421593E-3
203.665924E-3
203.422165E-3
203.448486E-3
203.495979E-3
203.248215E-3
203.603554E-3
203.526306E-3
204.042435E-3
204.669571E-3
205.281830E-3
206.490326E-3
207.050514E-3
207.710838E-3
208.059311E-3
208.185196E-3
208.299637E-3
207.782364E-3
207.348061E-3
206.921768E-3
206.136703E-3
206.057739E-3
205.589676E-3
205.323029E-3
205.263519E-3
204.986000E-3
205.299568E-3
205.013466E-3
205.137634E-3
205.411720E-3
204.698181E-3
205.282402E-3
205.102158E-3
205.004311E-3
204.972267E-3
204.667854E-3
204.986572E-3
204.693031E-3
204.809761E-3
205.006027E-3
205.047226E-3
205.369949E-3
205.208588E-3
205.254364E-3
205.205727E-3
205.070686E-3
205.347633E-3
204.935074E-3
204.746819E-3
204.648399E-3
204.442406E-3
204.655838E-3
204.278755E-3
204.102516E-3
204.100227E-3
203.880501E-3
204.113960E-3
203.709984E-3
203.782082E-3
203.773499E-3
203.675079E-3
203.968620E-3
203.631592E-3
203.535461E-3
203.828430E-3
203.639030E-3
203.878784E-3
203.527451E-3
203.586388E-3
203.728294E-3
203.687668E-3
203.893661E-3
203.486252E-3
203.561783E-3
203.659058E-3
203.457069E-3
203.722000E-3
203.338623E-3
203.318024E-3
203.355789E-3
203.309441E-3
203.607559E-3
203.318024E-3
203.227615E-3
203.280830E-3
203.180122E-3
203.361511E-3
203.125191E-3
203.009033E-3
203.153801E-3
202.968407E-3
203.152084E-3
202.817917E-3
202.887154E-3
202.855110E-3
202.083778E-3
202.493477E-3
202.470016E-3
202.443695E-3
202.569580E-3
202.055168E-3
202.951813E-3
203.399849E-3
204.091072E-3
205.181694E-3
205.969048E-3
206.850243E-3
207.093430E-3
207.364082E-3
207.515144E-3
207.335472E-3
207.245064E-3
206.517220E-3
206.079483E-3
205.686951E-3
205.179405E-3
205.172539E-3
204.690742E-3
204.656982E-3
204.731369E-3
204.626083E-3
204.814911E-3
204.709053E-3
204.777718E-3
204.882431E-3
204.815483E-3
205.027771E-3
204.644394E-3
204.484749E-3
204.485321E-3
204.264450E-3
204.497337E-3
204.414940E-3
204.351425E-3
204.543114E-3
204.531670E-3
204.876137E-3
204.648399E-3
204.737663E-3
204.892731E-3
204.662704E-3
204.822922E-3
204.525375E-3
204.504776E-3
204.328537E-3
204.061317E-3
204.091072E-3
203.909683E-3
203.742599E-3
203.790665E-3
203.507996E-3
203.782082E-3
203.453064E-3
203.409004E-3
203.574944E-3
203.346634E-3
203.576088E-3
203.321457E-3
203.359222E-3
203.439903E-3
203.284836E-3
203.677940E-3
203.370667E-3
203.341484E-3
203.501129E-3
202.514648E-3
203.205299E-3
203.280258E-3
203.203583E-3
203.296280E-3
203.073120E-3
203.208733E-3
203.166962E-3
203.057098E-3
203.232193E-3
202.637100E-3
202.945518E-3
202.943802E-3
202.875710E-3
203.107452E-3
202.428246E-3
202.846527E-3
202.945518E-3
202.897453E-3
203.030777E-3
202.838516E-3
203.047943E-3
202.817917E-3
202.712059E-3
202.888298E-3
202.777290E-3
202.838516E-3
202.708626E-3
202.586746E-3
202.744675E-3
202.392769E-3
202.519798E-3
202.428246E-3
202.616501E-3
203.117180E-3
203.439331E-3
204.406929E-3
205.168533E-3
206.004524E-3
206.796455E-3
207.121468E-3
207.615852E-3
207.590103E-3
207.339478E-3
207.112312E-3
206.617355E-3
206.365585E-3
205.777931E-3
205.332756E-3
204.979706E-3
204.590034E-3
204.828644E-3
204.711342E-3
204.588318E-3
204.984283E-3
204.740524E-3
204.952812E-3
205.079842E-3
204.952240E-3
204.941940E-3
204.318237E-3
204.566002E-3
204.508209E-3
204.448128E-3
204.489899E-3
204.378319E-3
204.624939E-3
204.610634E-3
204.555130E-3
204.798317E-3
204.702187E-3
204.979706E-3
204.891586E-3
204.797745E-3
204.868126E-3
204.412651E-3
204.640388E-3
204.441833E-3
204.206085E-3
204.235268E-3
203.946877E-3
204.076195E-3
204.025841E-3
203.835297E-3
203.949738E-3
203.697395E-3
203.800392E-3
203.822136E-3
203.659058E-3
203.683662E-3
203.607559E-3
203.770065E-3
203.807831E-3
203.684235E-3
203.833580E-3
203.572083E-3
203.878212E-3
203.834152E-3
203.633881E-3
203.723145E-3
203.491402E-3
203.716278E-3
203.734589E-3
203.480530E-3
203.643608E-3
203.325462E-3
203.477669E-3
203.509140E-3
203.336906E-3
203.417015E-3
203.158379E-3
203.359795E-3
203.237343E-3
203.023338E-3
203.173828E-3
202.911758E-3
203.260803E-3
203.207588E-3
202.907753E-3
203.009033E-3
202.804756E-3
203.217316E-3
203.002739E-3
202.817917E-3
202.902031E-3
202.595329E-3
202.866554E-3
202.789879E-3
202.504349E-3
202.607918E-3
202.474594E-3
202.662849E-3
202.511787E-3
202.401352E-3
202.895164E-3
203.439331E-3
204.542542E-3
205.265236E-3
205.903244E-3
206.771278E-3
207.077980E-3
207.701111E-3
207.631874E-3
207.190704E-3
206.902885E-3
206.352425E-3
206.167030E-3
205.719566E-3
205.067825E-3
204.933357E-3
204.540825E-3
204.616356E-3
204.670143E-3
204.467583E-3
204.579163E-3
204.437828E-3
204.702759E-3
204.830360E-3
204.469872E-3
204.666710E-3
204.438972E-3
204.640961E-3
204.481316E-3
204.357147E-3
204.491043E-3
204.378319E-3
204.623795E-3
204.727936E-3
204.670143E-3
204.745102E-3
204.759407E-3
204.996872E-3
204.947090E-3
204.463005E-3
204.630661E-3
204.366875E-3
204.478455E-3
204.316521E-3
204.013252E-3
203.950310E-3
203.631592E-3
203.721428E-3
203.730011E-3
203.451347E-3
203.525162E-3
203.310585E-3
203.477669E-3
203.366661E-3
203.073120E-3
203.291702E-3
203.174973E-3
203.253937E-3
203.228760E-3
203.054237E-3
202.982712E-3
202.989006E-3
203.258514E-3
203.146362E-3
202.994156E-3
203.209305E-3
203.073120E-3
203.223038E-3
203.121758E-3
202.844810E-3
202.966118E-3
202.801895E-3
202.955246E-3
202.883148E-3
202.783585E-3
202.900887E-3
202.660561E-3
202.694321E-3
202.766418E-3
202.585602E-3
202.776146E-3
202.590752E-3
202.691460E-3
202.563286E-3
202.413940E-3
202.353859E-3
202.328110E-3
202.476311E-3
202.472305E-3
202.302933E-3
202.451706E-3
202.149010E-3
202.350998E-3
202.300644E-3
201.703262E-3
202.218819E-3
202.412224E-3
202.936935E-3
203.588676E-3
204.141998E-3
205.234909E-3
205.952454E-3
206.738663E-3
207.145500E-3
206.806755E-3
207.172394E-3
206.867409E-3
206.684875E-3
206.250572E-3
205.641174E-3
205.476952E-3
204.820633E-3
204.611778E-3
204.485893E-3
203.692818E-3
204.128265E-3
204.092789E-3
204.287338E-3
204.413223E-3
204.210663E-3
204.231262E-3
204.269600E-3
204.300499E-3
204.305649E-3
204.023552E-3
204.227257E-3
204.088783E-3
204.132843E-3
204.395485E-3
203.948021E-3
204.377174E-3
204.353142E-3
204.687309E-3
204.649544E-3
204.544830E-3
204.621506E-3
204.393768E-3
204.565430E-3
204.397202E-3
203.864479E-3
203.977203E-3
203.856468E-3
203.808975E-3
203.728294E-3
203.473663E-3
203.627014E-3
203.395844E-3
203.427315E-3
203.457069E-3
202.882576E-3
203.098869E-3
203.113174E-3
203.160095E-3
203.275108E-3
203.061676E-3
203.287125E-3
203.109741E-3
203.151512E-3
203.187561E-3
203.022194E-3
203.301430E-3
203.092003E-3
203.137207E-3
203.031921E-3
202.897453E-3
203.075409E-3
202.888298E-3
203.075981E-3
202.983856E-3
202.784729E-3
203.161812E-3
202.843666E-3
202.793884E-3
202.838516E-3
202.644539E-3
202.867699E-3
202.667999E-3
202.617645E-3
202.667427E-3
202.474594E-3
202.873421E-3
202.549553E-3
202.507782E-3
202.631950E-3
202.341270E-3
202.730942E-3
202.437401E-3
202.438545E-3
202.460289E-3
202.208519E-3
202.539253E-3
202.239418E-3
202.285194E-3
202.306938E-3
201.939011E-3
202.408218E-3
202.406502E-3
203.014183E-3
203.659630E-3
204.393196E-3
205.630302E-3
206.129837E-3
206.901169E-3
207.277679E-3
207.171249E-3
207.460213E-3
206.997299E-3
206.653976E-3
206.224251E-3
205.546188E-3
205.458069E-3
204.900742E-3
204.621506E-3
204.530525E-3
204.252434E-3
204.528236E-3
204.333687E-3
204.321098E-3
204.551125E-3
204.472160E-3
204.848099E-3
204.549408E-3
204.468727E-3
204.533386E-3
204.220963E-3
204.488754E-3
204.112244E-3
204.033279E-3
204.353142E-3
204.228973E-3
204.720497E-3
204.533386E-3
204.509354E-3
204.706192E-3
204.637527E-3
204.935646E-3
204.578590E-3
204.471016E-3
204.571152E-3
204.247284E-3
204.349136E-3
203.977776E-3
203.881073E-3
203.788376E-3
203.568649E-3
203.779221E-3
203.335190E-3
203.400993E-3
203.449631E-3
202.690887E-3
203.343201E-3
203.161812E-3
203.164101E-3
203.392410E-3
203.285408E-3
203.621864E-3
203.223038E-3
203.253365E-3
203.407288E-3
202.857399E-3
203.321457E-3
203.153801E-3
203.197289E-3
203.333473E-3
202.621078E-3
203.226471E-3
203.062820E-3
203.011894E-3
203.268242E-3
202.851105E-3
203.348923E-3
202.955818E-3
202.994156E-3
203.075409E-3
202.901459E-3
203.117180E-3
202.821922E-3
202.780151E-3
202.860260E-3
202.790451E-3
203.010750E-3
202.865410E-3
202.972984E-3
202.983284E-3
202.823639E-3
203.114891E-3
202.761269E-3
202.677727E-3
202.720070E-3
202.638245E-3
202.841377E-3
202.559280E-3
202.492905E-3
202.543259E-3
202.395058E-3
202.584457E-3
202.421951E-3
202.559853E-3
203.053093E-3
203.622437E-3
204.655266E-3
205.293274E-3
206.144714E-3
206.885147E-3
207.246208E-3
207.750320E-3
207.583809E-3
207.246208E-3
207.011604E-3
206.415367E-3
206.113243E-3
205.403709E-3
204.939651E-3
204.801178E-3
203.966331E-3
204.487038E-3
204.307365E-3
204.294205E-3
204.418373E-3
204.452133E-3
204.844666E-3
204.751396E-3
204.699898E-3
204.713058E-3
204.560280E-3
204.622078E-3
204.357719E-3
204.467583E-3
204.639816E-3
204.540825E-3
204.953957E-3
204.866982E-3
204.853821E-3
205.051231E-3
205.042648E-3
205.225182E-3
205.041504E-3
204.928207E-3
205.015182E-3
204.741096E-3
204.750252E-3
204.448128E-3
204.221535E-3
204.240990E-3
204.061890E-3
204.206085E-3
203.910828E-3
203.804970E-3
203.874207E-3
203.757477E-3
203.833580E-3
203.740311E-3
203.629875E-3
203.625870E-3
203.549194E-3
203.779221E-3
203.629875E-3
203.516006E-3
203.617859E-3
203.466225E-3
203.750610E-3
203.601265E-3
203.474236E-3
203.594971E-3
203.409004E-3
203.694534E-3
203.392982E-3
203.393555E-3
203.434181E-3
203.198433E-3
203.336334E-3
203.210449E-3
203.144646E-3
203.241348E-3
203.023338E-3
203.174973E-3
203.091431E-3
202.901459E-3
203.019333E-3
202.860260E-3
203.088570E-3
202.889442E-3
202.751541E-3
202.696037E-3
202.524376E-3
202.717209E-3
202.639389E-3
202.433395E-3
202.601051E-3
202.430534E-3
202.589607E-3
202.489471E-3
202.629662E-3
203.193855E-3
203.596687E-3
204.545975E-3
205.227470E-3
205.895805E-3
206.607056E-3
206.422806E-3
207.170677E-3
207.053947E-3
206.742096E-3
206.393623E-3
205.189705E-3
205.381966E-3
205.103302E-3
204.812050E-3
204.629517E-3
204.263878E-3
204.218674E-3
