Notes :


2023-11-11 ¿ÀÀü 8:56:42
Volts
Ch : LED 2,
659.611702E-3
663.199425E-3
667.507553E-3
672.141266E-3
676.763535E-3
680.707741E-3
683.884048E-3
685.671043E-3
686.572266E-3
686.535072E-3
685.657310E-3
684.520912E-3
682.914734E-3
681.279373E-3
679.705811E-3
678.275871E-3
677.028465E-3
676.110077E-3
675.512695E-3
675.221443E-3
675.121880E-3
675.251770E-3
675.157928E-3
674.853516E-3
674.384308E-3
673.489952E-3
672.468567E-3
671.495819E-3
670.798874E-3
670.507050E-3
670.432091E-3
670.731926E-3
670.965385E-3
671.364212E-3
672.122955E-3
672.398758E-3
672.743225E-3
672.763252E-3
672.696877E-3
672.663689E-3
672.322655E-3
671.919250E-3
671.373367E-3
670.508194E-3
669.964600E-3
669.094276E-3
668.266869E-3
667.434311E-3
666.780853E-3
666.361427E-3
665.778351E-3
665.222740E-3
664.825058E-3
664.320374E-3
664.027405E-3
663.682365E-3
663.483238E-3
663.255501E-3
663.099861E-3
663.170815E-3
662.794304E-3
662.668419E-3
662.546539E-3
662.302208E-3
662.289619E-3
662.167168E-3
662.000084E-3
662.024117E-3
662.031555E-3
661.992645E-3
661.791229E-3
661.674500E-3
661.608124E-3
661.469078E-3
661.588669E-3
661.454201E-3
661.342049E-3
660.935211E-3
660.945511E-3
660.871696E-3
660.590172E-3
660.313225E-3
660.093498E-3
659.623718E-3
659.337044E-3
658.817482E-3
658.708191E-3
658.045006E-3
657.611275E-3
657.429314E-3
657.069397E-3
656.960678E-3
657.456207E-3
658.529091E-3
661.162949E-3
664.849091E-3
669.207573E-3
673.626137E-3
677.784920E-3
681.620979E-3
684.250259E-3
685.931396E-3
686.750793E-3
686.332512E-3
685.447884E-3
683.942986E-3
682.369995E-3
680.703163E-3
679.194260E-3
677.815819E-3
676.624489E-3
675.482941E-3
675.116730E-3
674.636078E-3
674.648094E-3
674.403191E-3
674.177742E-3
673.733711E-3
672.840500E-3
672.023392E-3
671.270370E-3
670.278740E-3
669.851303E-3
669.746017E-3
670.138550E-3
670.487595E-3
671.080971E-3
671.735001E-3
672.334099E-3
672.874260E-3
673.093987E-3
673.200989E-3
673.188972E-3
672.838211E-3
672.441673E-3
671.868896E-3
671.230316E-3
670.449829E-3
669.447899E-3
668.797874E-3
668.026543E-3
667.403984E-3
666.820335E-3
666.206932E-3
665.834427E-3
665.425873E-3
665.050507E-3
664.843369E-3
664.488602E-3
664.252281E-3
663.877487E-3
663.721848E-3
663.441467E-3
663.174248E-3
663.218880E-3
662.876701E-3
662.778854E-3
662.662697E-3
662.547684E-3
662.636375E-3
662.580872E-3
662.599754E-3
662.678719E-3
662.471581E-3
662.504196E-3
662.369156E-3
662.295341E-3
662.158585E-3
661.831856E-3
661.760902E-3
661.340904E-3
661.021042E-3
660.503197E-3
659.913826E-3
659.564209E-3
658.987999E-3
658.538818E-3
658.320808E-3
657.919693E-3
657.997513E-3
658.355141E-3
659.470940E-3
662.057877E-3
665.453911E-3
669.609261E-3
673.900795E-3
677.919960E-3
681.558609E-3
684.083748E-3
685.721970E-3
686.165428E-3
685.997200E-3
685.030174E-3
683.547592E-3
682.069588E-3
680.383301E-3
678.917313E-3
677.672768E-3
676.486588E-3
675.691223E-3
674.971390E-3
674.574280E-3
674.503326E-3
674.200058E-3
673.805809E-3
673.110008E-3
672.072029E-3
671.023178E-3
670.071030E-3
669.477654E-3
669.072533E-3
669.120598E-3
669.377518E-3
669.799232E-3
670.526505E-3
671.078682E-3
671.848869E-3
672.275734E-3
672.401619E-3
672.438812E-3
672.130966E-3
671.904373E-3
671.435738E-3
670.797729E-3
670.527077E-3
669.620132E-3
668.742943E-3
667.913818E-3
667.143631E-3
666.459846E-3
665.758324E-3
665.249062E-3
664.904594E-3
664.441109E-3
664.154434E-3
663.907242E-3
663.693237E-3
663.439751E-3
663.214302E-3
663.039207E-3
662.674141E-3
662.495613E-3
662.235260E-3
662.199783E-3
662.068176E-3
661.883926E-3
661.860466E-3
661.776924E-3
661.661339E-3
661.643028E-3
661.637306E-3
661.901093E-3
661.689949E-3
661.397552E-3
661.457634E-3
661.343765E-3
661.196709E-3
660.984421E-3
660.812759E-3
660.574722E-3
660.108948E-3
659.745598E-3
659.429169E-3
658.912468E-3
658.496475E-3
657.990074E-3
657.592964E-3
657.289124E-3
656.983566E-3
657.024193E-3
657.634163E-3
659.280396E-3
662.332535E-3
666.058159E-3
670.725632E-3
675.282669E-3
679.637146E-3
683.185387E-3
685.445023E-3
687.062645E-3
687.546730E-3
687.186813E-3
686.244392E-3
684.762383E-3
683.322716E-3
681.631279E-3
680.236244E-3
679.114723E-3
678.151131E-3
677.523422E-3
677.015305E-3
676.766396E-3
676.665115E-3
676.498604E-3
676.411057E-3
676.003075E-3
675.094414E-3
674.073601E-3
672.986984E-3
672.236824E-3
671.571350E-3
671.154213E-3
671.205139E-3
671.373367E-3
671.831703E-3
672.220802E-3
672.699738E-3
673.224449E-3
673.343468E-3
673.479080E-3
673.505974E-3
673.012161E-3
672.624207E-3
671.953583E-3
671.522141E-3
670.832634E-3
670.038986E-3
669.217873E-3
668.373299E-3
667.934418E-3
667.152214E-3
666.449547E-3
665.983200E-3
665.522003E-3
665.127182E-3
664.939499E-3
664.528084E-3
664.361000E-3
663.688087E-3
663.732147E-3
663.535881E-3
663.405991E-3
663.272095E-3
663.159370E-3
663.000870E-3
662.809753E-3
662.659264E-3
662.506485E-3
662.356567E-3
662.397194E-3
662.277603E-3
662.183762E-3
662.222099E-3
661.938286E-3
661.935997E-3
661.882210E-3
661.579514E-3
661.695099E-3
661.414146E-3
661.315155E-3
661.186409E-3
660.806465E-3
660.447693E-3
659.915543E-3
659.692955E-3
659.177399E-3
658.875275E-3
658.321953E-3
657.766914E-3
657.425308E-3
657.142067E-3
657.023621E-3
657.611275E-3
658.815765E-3
661.143494E-3
664.672852E-3
668.990135E-3
673.579788E-3
677.873611E-3
681.690216E-3
684.649086E-3
686.228943E-3
687.270355E-3
686.943626E-3
686.275864E-3
684.834480E-3
683.246613E-3
681.747437E-3
680.044556E-3
678.804016E-3
677.849007E-3
677.013016E-3
676.277161E-3
675.881195E-3
675.838280E-3
675.655746E-3
675.589371E-3
675.133324E-3
674.176598E-3
673.144341E-3
671.981049E-3
671.147346E-3
670.583153E-3
670.172310E-3
670.391464E-3
670.682144E-3
670.956230E-3
671.655464E-3
672.279739E-3
672.970390E-3
673.171806E-3
673.267365E-3
673.231316E-3
672.817612E-3
672.373581E-3
671.816826E-3
671.228027E-3
670.453262E-3
669.695663E-3
669.013023E-3
668.258286E-3
667.484093E-3
666.814613E-3
666.151428E-3
666.105652E-3
665.525436E-3
665.070534E-3
664.810181E-3
664.320946E-3
664.026833E-3
663.716125E-3
663.450050E-3
663.389969E-3
663.041496E-3
662.937355E-3
662.846947E-3
662.642097E-3
662.567139E-3
662.299919E-3
662.206650E-3
661.990929E-3
661.623573E-3
660.840225E-3
660.456276E-3
659.949875E-3
659.366798E-3
658.791161E-3
658.485031E-3
658.182335E-3
658.153152E-3
657.842445E-3
657.531738E-3
657.132339E-3
656.653404E-3
656.223679E-3
655.568504E-3
654.698181E-3
654.055595E-3
653.329468E-3
652.710342E-3
651.983070E-3
651.761055E-3
651.734161E-3
651.718712E-3
652.396202E-3
654.064751E-3
656.854248E-3
660.840797E-3
664.986420E-3
669.433022E-3
673.628998E-3
676.868248E-3
679.408836E-3
680.810738E-3
681.119728E-3
680.711174E-3
679.285812E-3
678.017807E-3
676.226807E-3
674.652672E-3
673.107719E-3
671.763039E-3
670.667267E-3
669.642448E-3
669.062233E-3
668.733215E-3
668.372726E-3
668.187904E-3
667.489243E-3
666.875267E-3
665.662193E-3
664.605331E-3
663.784790E-3
663.290977E-3
662.870979E-3
663.151932E-3
663.632011E-3
664.187050E-3
664.805031E-3
665.541458E-3
666.107368E-3
666.471291E-3
666.705322E-3
666.520500E-3
666.237259E-3
665.849304E-3
665.247917E-3
664.719200E-3
663.908386E-3
663.172531E-3
662.401772E-3
661.527443E-3
661.153793E-3
660.222244E-3
659.605980E-3
659.056091E-3
658.541107E-3
658.144569E-3
657.769775E-3
657.705688E-3
657.349205E-3
656.958961E-3
656.904602E-3
656.562424E-3
656.382179E-3
656.318665E-3
656.130409E-3
655.978775E-3
656.245995E-3
655.931282E-3
655.718994E-3
655.486679E-3
655.462646E-3
655.177116E-3
655.118179E-3
655.042648E-3
655.022621E-3
655.076408E-3
654.749107E-3
654.675865E-3
654.588318E-3
654.309654E-3
654.164886E-3
653.869629E-3
653.772354E-3
653.549194E-3
652.955818E-3
652.803040E-3
652.407074E-3
652.132988E-3
651.637459E-3
651.227760E-3
650.743103E-3
650.164032E-3
649.882507E-3
649.508858E-3
649.558640E-3
650.478172E-3
652.264595E-3
655.451202E-3
659.601402E-3
664.323235E-3
669.184113E-3
673.655891E-3
677.403831E-3
680.020523E-3
681.461906E-3
681.920815E-3
681.511116E-3
680.453682E-3
679.018021E-3
676.983833E-3
675.521278E-3
673.928261E-3
672.707176E-3
671.743011E-3
670.980263E-3
670.507622E-3
670.246124E-3
670.104790E-3
669.808388E-3
669.731140E-3
669.495964E-3
668.621063E-3
667.547035E-3
666.531944E-3
665.517998E-3
665.130043E-3
664.673996E-3
664.431953E-3
664.686584E-3
664.940071E-3
665.489388E-3
665.950584E-3
666.460419E-3
666.696739E-3
666.638947E-3
666.668129E-3
666.416931E-3
665.833855E-3
665.388680E-3
664.679718E-3
664.072037E-3
663.163376E-3
662.374306E-3
661.477661E-3
660.655403E-3
660.139847E-3
659.457779E-3
658.891869E-3
658.470154E-3
658.019829E-3
657.816696E-3
657.482529E-3
657.088280E-3
656.862259E-3
656.510353E-3
656.394768E-3
656.111526E-3
655.843163E-3
655.692673E-3
655.635452E-3
655.478668E-3
655.332756E-3
655.292702E-3
655.210876E-3
654.965401E-3
654.930496E-3
654.827499E-3
654.689598E-3
654.471016E-3
654.414368E-3
654.394341E-3
653.938293E-3
653.691101E-3
653.536034E-3
653.280258E-3
653.200722E-3
652.961540E-3
652.816772E-3
652.673721E-3
652.356148E-3
652.250862E-3
651.733017E-3
651.325035E-3
651.039505E-3
650.503922E-3
650.062752E-3
649.580956E-3
649.195290E-3
648.729515E-3
648.556709E-3
648.465157E-3
648.690033E-3
649.852753E-3
652.162743E-3
655.639458E-3
660.212517E-3
664.981270E-3
669.944572E-3
673.923683E-3
677.042198E-3
679.272652E-3
680.280304E-3
680.344391E-3
679.698372E-3
678.393745E-3
676.851654E-3
675.090981E-3
673.412132E-3
671.980476E-3
670.681000E-3
669.819260E-3
668.968964E-3
668.555260E-3
668.463135E-3
668.437386E-3
668.477440E-3
668.171883E-3
667.595100E-3
666.660690E-3
665.545464E-3
664.532661E-3
663.748169E-3
663.345337E-3
663.244057E-3
663.308716E-3
663.834572E-3
664.263725E-3
664.862251E-3
665.317154E-3
665.717125E-3
665.971756E-3
665.758324E-3
665.752602E-3
665.337181E-3
664.866829E-3
664.381027E-3
663.622856E-3
662.889290E-3
662.129974E-3
661.274529E-3
660.541534E-3
659.884644E-3
659.259224E-3
658.748245E-3
658.162880E-3
657.813835E-3
657.405281E-3
657.046509E-3
656.795883E-3
656.161880E-3
656.175041E-3
655.980492E-3
655.787659E-3
655.626869E-3
655.435753E-3
655.368805E-3
655.209160E-3
655.049515E-3
654.919052E-3
654.834366E-3
654.805183E-3
654.606056E-3
654.592896E-3
654.469299E-3
654.359436E-3
654.266167E-3
654.163742E-3
653.949165E-3
653.758049E-3
653.455353E-3
653.245354E-3
653.123474E-3
652.859688E-3
652.712631E-3
652.571297E-3
652.355003E-3
651.985931E-3
651.736450E-3
651.384544E-3
650.979996E-3
650.635529E-3
650.059891E-3
649.737740E-3
649.477959E-3
648.906898E-3
648.552704E-3
648.251152E-3
648.229980E-3
648.488617E-3
649.452209E-3
651.584816E-3
654.939079E-3
659.279823E-3
663.845444E-3
668.124390E-3
672.164726E-3
675.022316E-3
677.132034E-3
678.079605E-3
677.997208E-3
677.273941E-3
676.066017E-3
674.337387E-3
672.461128E-3
670.640945E-3
669.069099E-3
667.636871E-3
666.394043E-3
665.587234E-3
664.957237E-3
664.857101E-3
664.476585E-3
664.151573E-3
663.555336E-3
662.681007E-3
661.676216E-3
660.718346E-3
660.134697E-3
659.883499E-3
659.777641E-3
660.043716E-3
660.563278E-3
661.316872E-3
661.974335E-3
662.594604E-3
663.157082E-3
663.188553E-3
663.494110E-3
663.412285E-3
663.119888E-3
662.830925E-3
662.289047E-3
661.537170E-3
660.967827E-3
659.993362E-3
659.351349E-3
658.383751E-3
657.575798E-3
656.946945E-3
656.369019E-3
655.881500E-3
655.478668E-3
655.110168E-3
654.796028E-3
654.111099E-3
654.071617E-3
653.837013E-3
653.570366E-3
653.490829E-3
653.221893E-3
653.117180E-3
652.928925E-3
652.794456E-3
652.734375E-3
652.513504E-3
652.523232E-3
652.396774E-3
652.412796E-3
652.380753E-3
652.068329E-3
651.714134E-3
651.629448E-3
651.625443E-3
651.679230E-3
651.360512E-3
651.243210E-3
651.016045E-3
650.830650E-3
650.762558E-3
650.593758E-3
650.466728E-3
650.102806E-3
649.932861E-3
649.691391E-3
649.421310E-3
648.947525E-3
648.597336E-3
648.251152E-3
647.514153E-3
647.223473E-3
646.982002E-3
646.565437E-3
646.322823E-3
646.415520E-3
646.818924E-3
648.481178E-3
651.313591E-3
654.961967E-3
659.791374E-3
664.608192E-3
669.165802E-3
672.934914E-3
675.904083E-3
677.742004E-3
678.374290E-3
678.195763E-3
677.014732E-3
675.799370E-3
674.263000E-3
672.561264E-3
671.015739E-3
669.612122E-3
668.428802E-3
667.376518E-3
666.538239E-3
666.237259E-3
665.977478E-3
665.857887E-3
665.946007E-3
665.659332E-3
665.158081E-3
664.313507E-3
663.483810E-3
662.485313E-3
661.575508E-3
661.171532E-3
661.201286E-3
661.373520E-3
661.688805E-3
662.042999E-3
662.711334E-3
663.082123E-3
663.451767E-3
663.854027E-3
663.740730E-3
663.668633E-3
663.305855E-3
662.863541E-3
662.342834E-3
661.633873E-3
661.272240E-3
660.297203E-3
659.319878E-3
658.659554E-3
657.847595E-3
657.356071E-3
656.742668E-3
656.165314E-3
655.796814E-3
655.272675E-3
655.135345E-3
654.820633E-3
654.501343E-3
654.334259E-3
653.962326E-3
653.829575E-3
653.720284E-3
653.619576E-3
653.431320E-3
653.138924E-3
653.096581E-3
652.943802E-3
652.772141E-3
652.700043E-3
652.535820E-3
652.393913E-3
652.264595E-3
652.133560E-3
652.008820E-3
651.787949E-3
651.777649E-3
651.639175E-3
651.465225E-3
651.301003E-3
650.970840E-3
650.863266E-3
650.601196E-3
650.426674E-3
650.271606E-3
649.886513E-3
649.858475E-3
649.616432E-3
649.273682E-3
648.850822E-3
648.393059E-3
648.040009E-3
647.567368E-3
647.168541E-3
646.855545E-3
646.469879E-3
646.258163E-3
646.251297E-3
646.517944E-3
648.523521E-3
651.448059E-3
655.537605E-3
660.067749E-3
664.867401E-3
669.352341E-3
672.946358E-3
675.852585E-3
677.140045E-3
677.806664E-3
677.570915E-3
676.628494E-3
675.274086E-3
673.503685E-3
671.872330E-3
670.326233E-3
668.818474E-3
667.726135E-3
666.746521E-3
666.124535E-3
665.713692E-3
665.384674E-3
665.456200E-3
665.467644E-3
665.134621E-3
664.579582E-3
663.850021E-3
662.647820E-3
661.808395E-3
661.202431E-3
660.969543E-3
660.975838E-3
661.249924E-3
661.782646E-3
662.095642E-3
662.656403E-3
662.980270E-3
663.431740E-3
663.578796E-3
663.510704E-3
663.397408E-3
662.987709E-3
662.765694E-3
662.089348E-3
661.449623E-3
660.634804E-3
659.750748E-3
659.001732E-3
658.248138E-3
657.655907E-3
657.111740E-3
656.292343E-3
656.058311E-3
655.631447E-3
655.287552E-3
655.026054E-3
654.662132E-3
654.508781E-3
654.316521E-3
653.953743E-3
653.927994E-3
653.554916E-3
653.536034E-3
653.439903E-3
653.385544E-3
653.279686E-3
653.136635E-3
653.035355E-3
652.868843E-3
652.980995E-3
652.809334E-3
652.538681E-3
652.578163E-3
652.450562E-3
652.122688E-3
652.006531E-3
651.838875E-3
651.706123E-3
651.677513E-3
651.218605E-3
651.036644E-3
650.881004E-3
650.746536E-3
650.594330E-3
650.262451E-3
650.189781E-3
649.778938E-3
649.469948E-3
649.047661E-3
