Notes :


2023-11-10 ¿ÀÈÄ 11:21:46
Volts
Ch : LED 2,
77.419853E-3
77.320862E-3
77.340889E-3
77.192688E-3
77.222443E-3
77.171516E-3
77.191544E-3
77.150917E-3
77.065659E-3
77.035332E-3
76.908875E-3
76.942062E-3
76.919746E-3
76.746368E-3
76.853371E-3
76.611900E-3
76.654243E-3
76.594734E-3
76.463127E-3
76.534081E-3
76.405907E-3
76.365852E-3
76.318932E-3
76.126671E-3
76.177025E-3
76.024246E-3
76.003647E-3
76.036263E-3
75.880051E-3
75.920677E-3
75.807381E-3
75.724411E-3
75.741577E-3
75.631142E-3
75.672913E-3
75.480652E-3
75.520706E-3
75.475502E-3
75.353050E-3
75.333595E-3
75.362778E-3
75.366211E-3
75.653458E-3
76.055717E-3
76.968956E-3
77.875328E-3
79.102707E-3
80.425072E-3
81.386375E-3
82.328224E-3
82.882690E-3
83.325005E-3
83.529854E-3
83.405113E-3
83.381081E-3
82.997704E-3
82.584572E-3
82.275581E-3
81.979752E-3
81.757736E-3
81.402397E-3
81.166077E-3
80.980110E-3
80.808449E-3
80.908585E-3
80.826187E-3
80.826759E-3
80.866814E-3
80.806160E-3
80.812454E-3
80.582428E-3
80.373001E-3
80.205345E-3
79.833984E-3
79.715538E-3
79.455757E-3
79.325867E-3
79.376793E-3
79.351616E-3
79.458046E-3
79.449463E-3
79.475784E-3
79.543877E-3
79.498672E-3
79.529572E-3
79.435730E-3
79.396248E-3
79.373360E-3
79.246902E-3
79.190826E-3
79.006577E-3
78.913307E-3
78.797150E-3
78.615189E-3
78.529930E-3
78.381157E-3
78.235245E-3
78.109932E-3
77.930260E-3
77.884483E-3
77.730560E-3
77.790642E-3
77.790642E-3
77.522278E-3
77.528572E-3
77.505112E-3
77.458763E-3
77.425003E-3
77.273941E-3
77.323151E-3
77.162361E-3
77.129173E-3
77.114296E-3
76.964951E-3
77.049065E-3
77.061081E-3
76.889992E-3
76.905441E-3
76.783562E-3
76.857376E-3
76.814461E-3
76.717186E-3
76.730919E-3
76.615906E-3
76.733208E-3
76.617622E-3
76.560402E-3
76.609039E-3
76.493454E-3
76.475716E-3
76.277161E-3
76.276588E-3
76.316643E-3
76.191902E-3
76.233101E-3
76.190758E-3
76.239395E-3
76.222229E-3
76.128387E-3
76.095200E-3
76.055717E-3
76.104355E-3
76.056290E-3
75.884628E-3
75.924110E-3
75.844002E-3
75.758171E-3
75.752449E-3
75.506973E-3
75.688934E-3
75.785065E-3
76.148415E-3
76.887131E-3
77.674484E-3
78.943062E-3
80.056000E-3
81.126595E-3
82.223511E-3
82.724190E-3
83.260918E-3
83.353043E-3
83.349609E-3
83.221436E-3
82.814598E-3
82.520485E-3
82.138824E-3
81.875610E-3
81.496811E-3
81.189537E-3
81.060219E-3
80.821037E-3
80.699158E-3
80.680847E-3
80.580711E-3
80.599022E-3
80.677414E-3
80.666542E-3
80.757523E-3
80.445099E-3
80.297470E-3
80.049706E-3
79.878044E-3
79.801941E-3
79.587364E-3
79.620552E-3
79.629707E-3
79.732704E-3
79.877472E-3
79.863739E-3
80.019951E-3
79.991341E-3
80.050278E-3
80.019379E-3
79.906654E-3
79.926682E-3
79.859734E-3
79.756165E-3
79.670906E-3
79.476357E-3
79.360199E-3
79.178238E-3
79.040909E-3
79.016876E-3
78.804588E-3
78.706741E-3
78.578568E-3
78.520775E-3
78.464699E-3
78.277588E-3
78.221512E-3
78.108215E-3
77.938271E-3
77.923393E-3
77.855301E-3
77.858734E-3
77.786064E-3
77.767181E-3
77.842140E-3
77.657890E-3
77.734566E-3
77.629852E-3
77.527428E-3
77.527428E-3
77.411270E-3
77.491379E-3
77.416992E-3
77.367783E-3
77.380371E-3
77.228165E-3
77.293968E-3
77.238464E-3
77.166367E-3
77.165222E-3
77.012444E-3
77.050209E-3
76.993561E-3
76.938057E-3
76.979828E-3
76.800156E-3
76.818466E-3
76.825333E-3
76.676559E-3
76.683998E-3
76.475716E-3
76.465416E-3
76.383591E-3
76.223373E-3
76.201630E-3
76.011658E-3
76.032829E-3
75.942421E-3
75.962448E-3
76.138687E-3
76.518631E-3
77.482796E-3
78.376579E-3
79.363060E-3
80.538368E-3
81.442451E-3
82.293892E-3
82.825470E-3
83.086967E-3
83.246040E-3
83.148766E-3
82.982254E-3
82.682419E-3
82.189178E-3
81.826973E-3
81.511116E-3
81.242180E-3
80.947495E-3
80.700874E-3
80.717468E-3
80.510330E-3
80.571556E-3
80.490303E-3
80.457115E-3
80.553818E-3
80.431366E-3
80.365562E-3
80.227089E-3
79.986191E-3
79.784775E-3
79.558182E-3
79.487801E-3
79.377365E-3
79.327011E-3
79.468918E-3
79.416847E-3
79.653740E-3
79.580498E-3
79.607391E-3
79.625702E-3
79.626274E-3
79.714966E-3
79.609680E-3
79.490662E-3
79.547882E-3
79.327011E-3
79.116440E-3
78.976822E-3
78.817177E-3
78.753662E-3
78.515625E-3
78.425789E-3
78.382301E-3
78.181458E-3
78.123093E-3
78.059006E-3
77.999496E-3
77.875900E-3
77.820969E-3
77.836990E-3
77.667618E-3
77.708244E-3
77.612114E-3
77.522850E-3
77.507401E-3
77.355766E-3
77.393532E-3
77.322578E-3
77.305412E-3
77.312279E-3
77.107430E-3
77.184677E-3
77.223015E-3
76.978683E-3
77.067375E-3
76.957512E-3
77.023888E-3
76.929474E-3
76.899719E-3
76.938629E-3
76.787567E-3
76.817322E-3
76.681137E-3
76.564407E-3
76.610184E-3
76.518059E-3
76.500893E-3
76.486015E-3
76.453972E-3
76.491737E-3
76.354980E-3
76.409340E-3
76.391029E-3
76.256561E-3
76.260567E-3
76.148415E-3
76.092911E-3
76.005363E-3
75.783920E-3
75.853729E-3
75.667763E-3
75.743294E-3
75.596809E-3
75.577354E-3
75.794792E-3
76.083755E-3
76.687431E-3
77.692223E-3
78.659248E-3
79.903221E-3
80.949211E-3
81.859016E-3
82.600594E-3
82.946777E-3
83.212280E-3
83.086967E-3
83.145905E-3
82.815742E-3
82.386589E-3
82.123375E-3
81.713104E-3
81.529427E-3
81.203270E-3
81.000137E-3
80.987549E-3
80.696869E-3
80.851364E-3
80.940056E-3
80.862808E-3
80.964661E-3
80.966949E-3
81.019592E-3
80.946922E-3
80.669403E-3
80.523491E-3
80.148125E-3
80.026245E-3
79.892349E-3
79.846001E-3
79.888916E-3
79.873466E-3
79.945564E-3
80.019379E-3
80.072594E-3
80.209351E-3
80.164719E-3
80.192757E-3
80.109215E-3
79.987335E-3
80.017662E-3
79.780197E-3
79.710388E-3
79.619980E-3
79.449463E-3
79.404259E-3
79.166222E-3
79.176521E-3
79.030037E-3
78.818893E-3
78.829193E-3
78.714180E-3
78.761101E-3
78.638649E-3
78.387451E-3
78.457260E-3
78.314781E-3
78.328514E-3
78.274155E-3
78.113937E-3
78.179741E-3
78.263283E-3
78.136826E-3
78.037262E-3
77.932549E-3
77.999496E-3
77.915955E-3
77.927399E-3
77.943993E-3
77.933693E-3
78.043556E-3
77.852440E-3
77.807808E-3
77.762604E-3
77.719116E-3
77.771759E-3
77.647591E-3
77.578926E-3
77.534866E-3
77.563477E-3
77.541733E-3
77.378082E-3
77.423859E-3
77.400398E-3
77.251053E-3
77.321434E-3
77.165794E-3
77.158356E-3
77.141762E-3
76.971817E-3
77.033043E-3
76.968956E-3
76.928902E-3
76.860237E-3
76.679993E-3
76.746941E-3
76.519203E-3
76.654816E-3
76.530075E-3
76.439667E-3
76.571274E-3
76.880836E-3
77.515984E-3
78.488159E-3
79.530144E-3
80.694580E-3
81.514549E-3
82.383156E-3
83.030891E-3
83.331299E-3
83.497810E-3
83.284378E-3
83.123016E-3
82.848358E-3
82.388306E-3
82.086754E-3
81.728554E-3
81.420135E-3
81.211853E-3
80.953789E-3
80.953789E-3
80.811310E-3
80.793571E-3
80.787277E-3
80.784988E-3
80.914879E-3
80.771255E-3
80.542374E-3
80.521774E-3
80.189896E-3
80.006218E-3
79.700089E-3
79.678917E-3
79.700661E-3
79.702950E-3
79.831696E-3
79.828262E-3
79.998779E-3
80.113220E-3
80.035973E-3
80.140114E-3
79.976463E-3
79.929543E-3
79.917526E-3
79.737282E-3
79.717255E-3
79.507828E-3
79.321289E-3
79.241753E-3
78.918457E-3
78.927040E-3
78.765678E-3
78.643227E-3
78.559685E-3
78.349686E-3
78.338814E-3
78.256416E-3
78.179169E-3
78.216362E-3
78.016663E-3
78.072739E-3
77.898216E-3
77.881622E-3
77.865028E-3
77.769470E-3
77.846146E-3
77.717972E-3
77.582932E-3
77.715111E-3
77.659607E-3
77.709961E-3
77.594376E-3
77.503967E-3
77.580070E-3
77.434158E-3
77.546310E-3
77.318573E-3
77.348328E-3
77.331161E-3
77.223587E-3
77.244759E-3
77.158928E-3
77.110863E-3
77.156067E-3
77.027893E-3
77.116013E-3
76.927757E-3
76.840210E-3
76.815033E-3
76.772690E-3
76.765823E-3
76.650810E-3
76.635361E-3
76.597595E-3
76.331520E-3
76.359558E-3
76.310349E-3
76.188469E-3
76.144409E-3
75.926971E-3
75.909805E-3
75.873756E-3
75.900650E-3
76.090622E-3
76.404762E-3
77.136040E-3
78.122520E-3
79.190254E-3
80.436516E-3
81.316566E-3
82.330513E-3
82.823753E-3
83.148766E-3
83.353043E-3
83.241463E-3
83.087540E-3
82.794571E-3
82.476997E-3
82.210350E-3
81.774902E-3
81.622696E-3
81.325150E-3
81.267929E-3
81.195259E-3
81.036758E-3
81.079102E-3
81.095123E-3
81.212997E-3
81.295395E-3
81.238747E-3
81.363487E-3
81.223869E-3
80.912590E-3
80.744362E-3
80.465126E-3
80.314064E-3
80.066299E-3
80.026245E-3
80.080605E-3
80.023956E-3
80.203629E-3
80.138969E-3
80.208206E-3
80.342102E-3
80.249405E-3
80.312347E-3
80.223083E-3
80.069733E-3
80.068016E-3
79.887199E-3
79.806519E-3
79.634857E-3
79.539299E-3
79.439163E-3
79.197121E-3
79.195404E-3
78.969383E-3
78.874969E-3
78.884697E-3
78.721046E-3
78.734207E-3
78.565979E-3
78.521347E-3
78.482437E-3
78.413773E-3
78.406334E-3
78.291893E-3
78.186035E-3
78.109360E-3
77.983475E-3
78.040695E-3
77.998924E-3
78.031540E-3
78.083611E-3
77.890778E-3
77.987480E-3
77.811241E-3
77.814102E-3
77.936554E-3
77.818108E-3
77.754021E-3
77.598381E-3
77.621841E-3
77.599525E-3
77.433586E-3
77.439308E-3
77.354622E-3
77.364922E-3
77.300262E-3
77.225304E-3
77.272797E-3
77.202415E-3
77.266502E-3
77.237892E-3
77.050209E-3
77.098274E-3
77.049637E-3
77.010155E-3
76.983833E-3
76.813316E-3
76.770401E-3
76.790428E-3
76.682281E-3
76.636505E-3
76.464272E-3
76.486015E-3
76.385307E-3
76.281738E-3
76.336098E-3
76.143837E-3
76.457405E-3
76.906586E-3
77.642441E-3
78.663254E-3
79.749870E-3
80.906296E-3
81.919098E-3
82.616615E-3
83.102989E-3
83.408546E-3
83.476639E-3
83.357048E-3
83.137894E-3
82.870102E-3
82.440948E-3
82.177734E-3
81.840134E-3
81.617546E-3
81.504822E-3
81.315994E-3
81.311417E-3
81.246758E-3
81.164932E-3
81.311417E-3
81.259918E-3
81.328583E-3
81.416130E-3
81.296539E-3
81.156349E-3
80.826187E-3
80.648804E-3
80.356979E-3
80.277443E-3
80.316925E-3
80.206490E-3
80.364418E-3
80.422783E-3
80.514908E-3
80.576706E-3
80.554390E-3
80.651093E-3
80.587578E-3
80.442810E-3
80.478287E-3
80.395889E-3
80.295181E-3
80.137253E-3
80.050278E-3
79.944420E-3
79.707527E-3
79.571342E-3
79.515839E-3
79.302406E-3
79.213715E-3
79.111290E-3
79.015160E-3
78.922462E-3
78.818893E-3
78.800011E-3
78.614616E-3
78.610611E-3
78.552818E-3
78.364563E-3
78.446388E-3
78.287315E-3
78.279877E-3
78.282738E-3
78.207207E-3
78.180313E-3
78.116798E-3
78.196907E-3
78.108788E-3
77.922821E-3
77.945709E-3
77.812958E-3
77.970314E-3
77.853012E-3
77.747726E-3
77.630997E-3
77.641296E-3
77.640724E-3
77.649879E-3
77.548027E-3
77.530861E-3
77.456474E-3
77.469635E-3
77.398682E-3
77.336311E-3
77.383804E-3
77.153206E-3
77.245331E-3
77.184105E-3
76.980400E-3
76.971817E-3
76.796150E-3
76.829338E-3
76.594734E-3
76.494598E-3
76.564980E-3
76.440811E-3
76.438522E-3
76.357841E-3
76.440811E-3
76.795006E-3
77.311707E-3
78.179169E-3
79.330444E-3
80.382156E-3
81.498528E-3
82.217789E-3
82.914734E-3
83.233452E-3
83.326721E-3
83.351898E-3
82.963371E-3
82.810020E-3
82.526779E-3
82.230377E-3
82.019806E-3
81.646729E-3
81.509972E-3
81.349182E-3
81.196404E-3
81.230164E-3
81.086540E-3
81.125450E-3
81.214714E-3
81.186676E-3
81.258202E-3
81.077957E-3
81.000710E-3
80.750084E-3
80.463982E-3
80.225372E-3
79.860306E-3
79.890633E-3
79.783058E-3
79.749870E-3
79.856300E-3
79.929543E-3
79.977036E-3
79.998207E-3
80.036545E-3
80.147552E-3
80.111504E-3
80.034256E-3
79.944420E-3
79.751015E-3
79.741287E-3
79.469490E-3
79.337883E-3
79.311562E-3
79.051781E-3
79.006004E-3
78.785133E-3
78.761101E-3
78.645515E-3
78.583145E-3
78.559685E-3
78.436089E-3
78.293037E-3
78.208923E-3
78.108788E-3
78.093910E-3
77.919960E-3
77.918243E-3
77.878761E-3
77.732277E-3
77.732277E-3
77.671623E-3
77.696228E-3
77.672768E-3
77.539444E-3
77.673912E-3
77.481651E-3
77.549171E-3
77.435303E-3
77.338028E-3
77.439308E-3
77.293968E-3
77.233315E-3
77.193260E-3
77.005577E-3
77.114296E-3
77.014732E-3
76.975822E-3
76.978683E-3
76.788139E-3
76.800728E-3
76.732635E-3
76.689720E-3
76.667976E-3
76.512909E-3
76.596451E-3
76.465416E-3
76.439095E-3
76.437950E-3
76.309776E-3
76.399040E-3
76.275444E-3
76.241112E-3
76.232529E-3
75.908661E-3
76.032257E-3
75.898933E-3
75.876617E-3
75.906372E-3
75.663185E-3
75.735855E-3
75.581360E-3
75.632286E-3
76.034546E-3
76.343536E-3
77.212143E-3
78.184319E-3
79.356766E-3
80.467415E-3
81.422424E-3
82.229805E-3
82.701874E-3
83.116722E-3
83.125877E-3
82.840919E-3
82.682419E-3
82.319069E-3
81.977463E-3
81.639862E-3
81.310272E-3
81.079674E-3
80.862808E-3
80.754089E-3
80.706024E-3
80.628204E-3
80.774117E-3
80.743790E-3
80.869102E-3
80.933762E-3
80.900002E-3
80.903435E-3
80.691719E-3
80.430794E-3
80.239677E-3
79.981041E-3
79.821968E-3
79.633713E-3
79.713249E-3
79.760170E-3
79.786491E-3
79.819679E-3
79.825974E-3
79.935265E-3
79.975891E-3
79.915810E-3
79.970169E-3
79.816818E-3
79.800797E-3
79.804230E-3
79.557610E-3
79.534721E-3
79.328156E-3
79.278946E-3
79.186821E-3
78.991699E-3
78.976250E-3
78.786278E-3
78.645515E-3
78.533936E-3
78.473282E-3
78.390884E-3
78.203201E-3
78.204346E-3
78.221512E-3
78.051567E-3
78.092766E-3
78.025818E-3
77.946854E-3
77.923393E-3
77.865028E-3
77.811241E-3
77.699089E-3
77.662468E-3
77.739143E-3
77.620125E-3
77.583504E-3
77.528572E-3
77.532578E-3
77.503967E-3
77.425003E-3
77.483368E-3
77.360344E-3
77.281952E-3
77.272224E-3
77.230453E-3
77.248764E-3
77.141190E-3
77.129745E-3
77.078819E-3
76.976967E-3
76.963234E-3
76.813889E-3
76.834488E-3
76.758957E-3
76.702309E-3
76.717186E-3
76.645088E-3
76.559830E-3
76.575851E-3
76.419640E-3
76.391602E-3
76.333809E-3
76.292610E-3
76.348114E-3
76.326942E-3
76.281738E-3
76.086617E-3
75.995064E-3
76.034546E-3
75.891495E-3
76.011658E-3
75.988197E-3
76.191902E-3
76.732063E-3
77.486801E-3
78.569984E-3
79.611969E-3
80.727196E-3
81.724548E-3
82.258415E-3
82.785988E-3
82.906151E-3
82.816315E-3
82.585144E-3
82.288742E-3
82.071877E-3
81.655884E-3
81.323433E-3
80.988121E-3
80.573845E-3
80.496597E-3
80.280876E-3
80.156708E-3
80.188179E-3
80.134392E-3
80.280304E-3
80.261993E-3
80.320358E-3
80.244255E-3
80.019951E-3
79.888344E-3
79.574776E-3
79.330444E-3
79.232597E-3
