Notes :


2023-11-11 ¿ÀÀü 8:54:56
Volts
Ch : LED 2,
654.580879E-3
653.966331E-3
653.149796E-3
652.452278E-3
651.837730E-3
651.095581E-3
651.001740E-3
650.399780E-3
649.935150E-3
649.634171E-3
649.314308E-3
649.061394E-3
648.774147E-3
648.718071E-3
648.613358E-3
648.441124E-3
648.445702E-3
648.340416E-3
648.334694E-3
648.017693E-3
647.997665E-3
648.037148E-3
648.019409E-3
647.992516E-3
648.069191E-3
647.908401E-3
647.826004E-3
647.790527E-3
647.717285E-3
647.835732E-3
647.540474E-3
647.550201E-3
647.438049E-3
647.309875E-3
647.177696E-3
646.784019E-3
646.659851E-3
646.342278E-3
646.183777E-3
645.866203E-3
645.415306E-3
645.141220E-3
644.861984E-3
644.317818E-3
644.069481E-3
643.613434E-3
643.437195E-3
643.306160E-3
643.483543E-3
644.484329E-3
646.359444E-3
649.445915E-3
653.213310E-3
657.142067E-3
661.462212E-3
665.264511E-3
668.727493E-3
670.734787E-3
672.054863E-3
672.338676E-3
671.569633E-3
670.417213E-3
668.952942E-3
666.943359E-3
665.083694E-3
663.473511E-3
661.993790E-3
660.741234E-3
659.775352E-3
659.181404E-3
658.711052E-3
658.538246E-3
658.069611E-3
657.490540E-3
656.823349E-3
655.900955E-3
655.165100E-3
654.570007E-3
654.147148E-3
654.010963E-3
654.107666E-3
654.588890E-3
655.056381E-3
655.745888E-3
656.419373E-3
657.009888E-3
657.515717E-3
657.698250E-3
657.735443E-3
657.673645E-3
657.170105E-3
656.829643E-3
656.302643E-3
655.666351E-3
655.109024E-3
654.297066E-3
653.382111E-3
652.866554E-3
652.218246E-3
651.720428E-3
651.086998E-3
650.766563E-3
650.283623E-3
649.949455E-3
649.670792E-3
648.972702E-3
649.060249E-3
648.880005E-3
648.644257E-3
648.540688E-3
648.292351E-3
648.357010E-3
648.198509E-3
648.158455E-3
648.369598E-3
648.023987E-3
648.017693E-3
648.047447E-3
647.923851E-3
647.886086E-3
647.687531E-3
647.701263E-3
647.546768E-3
647.799110E-3
647.603989E-3
647.328758E-3
647.384834E-3
647.310448E-3
647.085571E-3
646.963692E-3
646.900177E-3
646.584892E-3
646.291351E-3
646.020699E-3
645.764351E-3
645.435905E-3
645.225906E-3
644.736671E-3
644.405365E-3
644.149017E-3
643.632889E-3
643.453217E-3
643.386269E-3
643.761063E-3
644.940376E-3
647.305870E-3
650.770569E-3
654.975128E-3
659.593391E-3
664.062309E-3
668.135834E-3
671.395111E-3
673.561478E-3
674.577141E-3
674.672699E-3
673.737144E-3
672.437668E-3
670.533943E-3
669.034195E-3
667.422295E-3
665.797806E-3
664.579010E-3
663.507271E-3
662.663841E-3
662.357712E-3
661.990356E-3
662.094498E-3
661.943436E-3
661.847305E-3
661.402130E-3
660.560989E-3
659.762764E-3
658.767700E-3
658.252144E-3
657.828140E-3
657.390976E-3
657.532310E-3
657.786369E-3
658.250999E-3
658.781433E-3
659.190559E-3
659.840584E-3
660.189056E-3
660.321236E-3
660.354424E-3
659.983635E-3
659.639168E-3
659.089279E-3
658.470726E-3
657.866478E-3
657.085991E-3
656.295776E-3
655.608559E-3
654.981422E-3
654.384613E-3
653.857613E-3
653.435326E-3
652.989578E-3
652.569580E-3
652.417374E-3
652.324677E-3
652.032852E-3
651.708412E-3
651.465225E-3
651.374245E-3
651.135063E-3
651.003456E-3
650.901031E-3
650.831223E-3
650.796890E-3
650.525093E-3
650.466728E-3
650.327110E-3
650.190926E-3
650.216675E-3
649.986076E-3
650.280190E-3
649.939156E-3
649.794960E-3
649.654198E-3
649.441338E-3
649.316025E-3
649.070549E-3
648.951530E-3
648.846817E-3
648.344994E-3
648.502350E-3
648.146439E-3
647.964478E-3
647.914124E-3
647.650337E-3
647.265244E-3
646.963692E-3
646.590614E-3
646.075630E-3
645.726013E-3
645.409584E-3
645.149231E-3
644.942665E-3
644.967270E-3
645.319176E-3
646.531105E-3
648.851395E-3
652.058029E-3
656.298065E-3
660.786438E-3
665.354919E-3
669.190407E-3
672.281456E-3
674.447823E-3
675.074387E-3
675.346184E-3
674.601746E-3
673.277664E-3
671.625710E-3
669.812965E-3
668.368149E-3
666.782570E-3
665.437889E-3
664.533234E-3
663.693810E-3
663.130760E-3
662.953377E-3
662.826920E-3
662.650681E-3
662.294197E-3
661.910820E-3
661.053658E-3
660.067177E-3
659.415436E-3
658.643532E-3
658.288193E-3
658.192635E-3
658.260727E-3
658.534813E-3
658.843803E-3
659.583664E-3
659.836006E-3
660.343552E-3
660.766411E-3
660.860825E-3
660.756111E-3
660.564995E-3
660.120392E-3
659.712982E-3
659.047508E-3
658.380318E-3
657.721710E-3
656.901741E-3
656.222534E-3
655.446625E-3
654.859543E-3
654.475594E-3
654.042435E-3
653.651619E-3
653.190422E-3
652.902603E-3
652.595901E-3
652.282906E-3
652.191925E-3
651.829720E-3
651.672935E-3
651.574516E-3
651.466370E-3
651.328468E-3
651.069832E-3
651.034355E-3
650.994873E-3
650.889015E-3
650.887299E-3
650.649261E-3
650.506210E-3
650.461006E-3
650.398064E-3
650.487328E-3
650.162315E-3
650.019264E-3
649.741173E-3
649.570656E-3
649.551201E-3
649.382973E-3
649.282837E-3
649.001884E-3
648.850250E-3
648.748970E-3
648.449135E-3
648.290634E-3
648.007393E-3
647.610283E-3
647.416306E-3
647.045517E-3
646.806908E-3
646.453285E-3
646.039581E-3
645.722580E-3
645.339203E-3
645.229912E-3
645.037651E-3
645.133209E-3
646.155739E-3
647.873497E-3
650.893021E-3
654.642105E-3
658.810616E-3
663.265800E-3
667.231178E-3
670.323372E-3
672.479439E-3
673.826408E-3
674.056435E-3
673.331451E-3
672.145271E-3
670.457840E-3
668.571281E-3
666.947365E-3
665.113449E-3
663.772202E-3
662.617493E-3
661.716843E-3
661.340332E-3
660.829926E-3
660.684586E-3
660.294914E-3
659.719276E-3
659.180260E-3
658.452415E-3
657.717133E-3
656.929779E-3
656.347847E-3
656.238556E-3
656.236267E-3
656.715202E-3
657.146072E-3
657.655334E-3
658.585739E-3
659.112167E-3
659.605980E-3
659.903526E-3
659.783936E-3
659.526443E-3
659.249496E-3
658.834076E-3
658.310509E-3
657.800674E-3
657.038498E-3
656.203079E-3
655.430031E-3
654.697037E-3
653.729439E-3
653.392410E-3
652.945518E-3
652.418518E-3
652.092361E-3
651.644897E-3
651.358795E-3
651.101303E-3
650.850677E-3
650.995445E-3
650.592613E-3
650.478172E-3
650.196075E-3
650.159454E-3
650.039864E-3
649.939728E-3
649.916840E-3
649.751472E-3
649.740601E-3
649.687386E-3
649.609566E-3
649.602127E-3
649.504280E-3
649.396706E-3
649.287987E-3
649.324608E-3
649.193573E-3
648.915482E-3
648.629379E-3
648.613930E-3
648.355865E-3
648.446846E-3
648.207092E-3
647.999954E-3
648.087502E-3
647.605705E-3
647.298431E-3
646.946526E-3
646.630096E-3
646.298790E-3
645.973778E-3
645.724297E-3
645.185852E-3
644.940948E-3
644.642830E-3
644.299507E-3
644.320107E-3
644.572449E-3
645.787239E-3
647.957611E-3
651.366806E-3
655.569649E-3
660.300064E-3
664.560699E-3
668.420219E-3
671.574783E-3
673.918533E-3
674.895859E-3
674.898148E-3
674.152565E-3
672.724342E-3
671.252060E-3
669.320869E-3
667.602539E-3
666.130257E-3
664.720345E-3
663.705826E-3
662.808037E-3
662.433243E-3
662.133980E-3
661.891365E-3
661.943436E-3
661.671638E-3
661.445618E-3
660.613060E-3
659.754181E-3
658.857536E-3
658.359718E-3
657.867622E-3
657.518005E-3
657.540894E-3
657.929993E-3
658.336830E-3
658.859253E-3
659.453201E-3
659.876633E-3
660.218239E-3
660.181618E-3
660.190201E-3
660.021400E-3
659.578514E-3
659.189415E-3
658.493614E-3
657.863617E-3
657.146645E-3
656.570435E-3
655.736160E-3
654.957390E-3
654.238701E-3
653.700829E-3
653.087997E-3
652.788162E-3
652.570724E-3
652.078629E-3
651.880074E-3
651.519012E-3
651.299286E-3
651.048660E-3
650.936508E-3
650.759697E-3
650.668144E-3
650.438118E-3
650.352287E-3
650.222397E-3
650.228119E-3
650.046158E-3
650.038719E-3
649.849319E-3
649.727440E-3
649.709129E-3
649.714279E-3
649.552345E-3
649.194717E-3
649.171829E-3
649.053383E-3
648.793030E-3
648.739815E-3
648.619652E-3
648.443413E-3
648.299789E-3
648.080063E-3
647.930145E-3
647.710991E-3
647.564507E-3
647.355080E-3
647.172546E-3
646.939087E-3
646.677589E-3
646.249580E-3
645.965767E-3
645.539474E-3
645.239639E-3
644.894028E-3
644.566727E-3
644.337845E-3
644.129562E-3
644.301224E-3
644.931793E-3
646.800613E-3
649.792671E-3
653.583527E-3
657.907104E-3
662.398911E-3
666.579437E-3
669.811249E-3
672.413635E-3
674.026680E-3
674.518204E-3
674.022102E-3
672.953796E-3
671.356201E-3
669.721413E-3
667.830276E-3
666.132545E-3
664.710617E-3
663.519287E-3
662.611198E-3
661.905670E-3
661.574936E-3
661.465645E-3
661.308861E-3
661.275101E-3
660.833359E-3
660.457420E-3
659.687805E-3
658.794022E-3
658.140564E-3
657.399559E-3
657.056808E-3
657.088280E-3
657.163239E-3
657.371521E-3
657.848740E-3
658.467865E-3
658.975983E-3
659.280396E-3
659.577942E-3
659.462929E-3
659.208870E-3
658.947372E-3
658.374596E-3
657.993507E-3
657.389259E-3
656.727791E-3
656.050873E-3
655.230331E-3
654.694176E-3
654.004097E-3
653.294563E-3
652.758980E-3
652.167320E-3
651.880074E-3
651.535034E-3
651.307869E-3
650.991440E-3
650.716782E-3
650.201225E-3
650.224113E-3
649.952316E-3
650.007820E-3
649.821281E-3
649.867058E-3
649.825287E-3
649.787521E-3
649.697113E-3
649.587250E-3
649.393845E-3
649.333191E-3
649.160385E-3
649.138641E-3
648.890877E-3
648.889160E-3
648.671150E-3
648.492622E-3
648.172760E-3
648.027420E-3
647.937012E-3
647.714424E-3
647.550201E-3
647.373390E-3
647.140503E-3
646.987152E-3
646.776009E-3
646.636963E-3
646.524239E-3
646.302223E-3
646.082497E-3
645.827293E-3
645.558929E-3
645.396996E-3
645.018768E-3
644.717789E-3
644.251442E-3
643.876076E-3
643.651199E-3
643.311310E-3
643.211746E-3
643.211746E-3
643.713570E-3
645.050240E-3
647.515297E-3
651.174545E-3
655.408287E-3
659.785652E-3
663.834572E-3
667.357063E-3
669.957161E-3
671.613693E-3
671.859741E-3
671.744728E-3
670.607758E-3
669.290543E-3
667.448616E-3
665.642738E-3
663.947868E-3
662.200356E-3
660.916901E-3
660.040283E-3
659.129906E-3
658.629799E-3
658.259010E-3
658.110809E-3
657.888222E-3
657.441330E-3
656.961823E-3
656.135559E-3
655.486679E-3
654.796028E-3
654.535675E-3
654.528809E-3
654.677010E-3
655.177689E-3
655.715561E-3
656.085777E-3
656.932068E-3
657.562065E-3
657.921982E-3
658.141708E-3
658.026123E-3
657.930565E-3
657.509422E-3
657.056808E-3
656.511497E-3
655.803680E-3
655.134773E-3
654.330826E-3
653.631020E-3
652.864838E-3
652.169609E-3
651.671791E-3
650.977707E-3
650.268745E-3
650.071907E-3
649.857330E-3
649.687958E-3
649.289703E-3
649.126625E-3
648.870277E-3
648.768425E-3
648.655701E-3
648.245430E-3
648.396492E-3
648.233986E-3
648.140717E-3
648.080063E-3
648.016548E-3
647.962189E-3
647.896385E-3
647.787094E-3
648.017693E-3
647.592545E-3
647.582817E-3
647.350502E-3
647.192001E-3
647.136497E-3
647.046089E-3
646.817207E-3
646.835518E-3
646.736526E-3
646.676445E-3
646.422958E-3
646.365166E-3
646.177483E-3
645.877647E-3
645.775223E-3
645.350647E-3
645.220757E-3
644.742966E-3
644.370461E-3
644.035721E-3
643.548203E-3
643.397713E-3
643.107033E-3
643.120766E-3
643.772507E-3
644.735527E-3
647.157669E-3
650.605202E-3
654.668427E-3
659.039497E-3
663.230896E-3
666.977119E-3
669.980621E-3
671.681786E-3
672.540665E-3
672.243118E-3
671.445465E-3
669.970894E-3
668.324661E-3
666.718483E-3
664.997292E-3
663.535881E-3
662.451553E-3
661.124611E-3
660.290909E-3
659.524155E-3
659.331322E-3
659.188271E-3
659.063530E-3
659.127045E-3
658.548546E-3
657.893944E-3
657.033920E-3
656.197357E-3
655.752182E-3
655.305862E-3
655.419731E-3
655.537605E-3
655.554771E-3
656.192207E-3
656.751251E-3
657.322884E-3
657.752609E-3
658.018112E-3
658.303642E-3
658.046150E-3
657.990646E-3
657.362366E-3
657.118607E-3
656.486320E-3
655.820274E-3
655.252075E-3
654.442978E-3
653.702545E-3
653.081131E-3
652.320671E-3
652.044868E-3
651.468086E-3
650.982285E-3
650.619507E-3
650.285912E-3
650.043297E-3
649.716568E-3
649.485970E-3
649.428749E-3
648.989868E-3
649.112320E-3
648.935509E-3
648.763847E-3
648.752403E-3
648.602486E-3
648.548698E-3
648.430252E-3
648.501205E-3
648.426247E-3
648.299789E-3
648.246574E-3
648.096085E-3
647.946739E-3
647.978783E-3
647.726440E-3
647.951317E-3
647.622871E-3
647.391129E-3
647.336197E-3
647.075272E-3
646.984291E-3
646.911049E-3
646.570587E-3
646.468163E-3
646.323395E-3
646.073341E-3
645.768356E-3
645.471954E-3
645.295143E-3
644.824791E-3
644.532394E-3
644.116402E-3
643.648338E-3
643.646622E-3
643.193436E-3
643.117905E-3
643.378830E-3
644.464874E-3
646.955681E-3
650.218391E-3
654.445267E-3
658.876991E-3
663.542747E-3
667.147636E-3
670.033836E-3
671.983910E-3
672.873688E-3
672.827911E-3
672.086334E-3
670.728493E-3
669.204140E-3
667.476082E-3
665.868187E-3
664.437103E-3
663.010597E-3
662.023544E-3
661.176109E-3
660.548401E-3
659.976768E-3
659.972191E-3
660.214806E-3
659.940147E-3
659.632301E-3
659.166527E-3
658.235550E-3
657.551193E-3
656.904030E-3
656.201935E-3
656.296349E-3
656.541252E-3
656.851959E-3
657.277107E-3
657.675362E-3
658.274460E-3
658.678436E-3
658.955383E-3
658.713913E-3
658.894157E-3
658.891869E-3
658.572006E-3
658.235550E-3
657.604408E-3
656.846809E-3
656.220245E-3
655.388260E-3
654.592323E-3
653.946304E-3
653.378677E-3
653.056526E-3
652.397919E-3
652.116394E-3
651.630592E-3
651.259804E-3
651.097298E-3
650.931931E-3
650.696182E-3
650.437546E-3
650.275040E-3
650.208664E-3
650.075340E-3
650.028992E-3
649.774933E-3
649.783516E-3
649.784088E-3
649.488258E-3
649.534035E-3
649.424171E-3
649.306297E-3
649.300575E-3
649.132347E-3
648.783302E-3
648.848534E-3
648.738670E-3
648.785591E-3
648.500061E-3
648.412514E-3
648.206520E-3
648.066330E-3
648.058319E-3
648.006248E-3
647.701263E-3
647.488403E-3
647.323036E-3
647.131348E-3
646.785164E-3
646.572304E-3
646.281624E-3
645.928574E-3
645.834160E-3
645.405579E-3
645.047951E-3
644.599915E-3
644.247437E-3
644.073486E-3
643.915558E-3
644.274902E-3
645.164680E-3
646.958542E-3
650.428391E-3
654.298210E-3
658.668709E-3
662.999725E-3
666.651535E-3
669.717407E-3
671.565628E-3
672.457123E-3
672.410202E-3
671.700668E-3
670.441818E-3
668.773842E-3
667.066383E-3
665.494537E-3
663.682938E-3
662.564278E-3
661.267662E-3
660.393906E-3
659.841156E-3
659.548187E-3
659.476089E-3
659.176826E-3
658.937073E-3
658.483887E-3
657.559776E-3
657.012749E-3
656.383324E-3
655.929565E-3
655.809975E-3
655.868340E-3
656.333542E-3
656.589890E-3
657.339478E-3
657.668495E-3
658.383751E-3
658.885574E-3
659.201431E-3
659.299850E-3
659.306145E-3
659.021187E-3
658.714485E-3
658.033562E-3
657.571793E-3
656.906891E-3
656.154442E-3
655.435753E-3
654.619217E-3
653.981781E-3
653.482819E-3
652.856255E-3
652.581024E-3
652.229118E-3
651.769638E-3
651.587677E-3
651.137924E-3
650.993156E-3
650.753403E-3
650.707626E-3
650.762558E-3
650.452995E-3
650.393486E-3
650.192642E-3
650.102806E-3
650.073051E-3
649.904251E-3
649.984932E-3
649.741745E-3
649.545479E-3
649.745750E-3
649.661636E-3
649.566078E-3
649.386406E-3
649.316025E-3
649.213028E-3
649.043655E-3
648.962975E-3
648.542976E-3
648.633385E-3
648.562431E-3
648.366737E-3
648.303795E-3
647.910118E-3
647.648048E-3
647.399139E-3
647.064400E-3
646.730232E-3
646.302223E-3
645.962334E-3
645.628738E-3
645.191002E-3
644.984436E-3
644.693756E-3
