Notes :


2023-11-04 ¿ÀÀü 12:47:06
Volts
Ch : LED 2,
866.911697E-3
868.226624E-3
866.909981E-3
867.096519E-3
867.402077E-3
866.624451E-3
867.822647E-3
866.913986E-3
866.751480E-3
866.963768E-3
866.110039E-3
867.117691E-3
865.886307E-3
865.806770E-3
866.033363E-3
864.972496E-3
866.045952E-3
864.888954E-3
864.659500E-3
865.365601E-3
862.281418E-3
865.398788E-3
866.497993E-3
868.821144E-3
872.177124E-3
874.880791E-3
879.342270E-3
881.702042E-3
883.946228E-3
885.585594E-3
885.355568E-3
886.079407E-3
884.609985E-3
883.624649E-3
882.564354E-3
880.669212E-3
880.699539E-3
879.325104E-3
878.805542E-3
879.266167E-3
878.237915E-3
879.691887E-3
879.479599E-3
879.682732E-3
880.689812E-3
880.295563E-3
881.370735E-3
880.527306E-3
880.093575E-3
879.893875E-3
878.180695E-3
878.568077E-3
877.396202E-3
876.959610E-3
877.411079E-3
876.588249E-3
877.878571E-3
877.705765E-3
877.768707E-3
878.236771E-3
877.630806E-3
878.578949E-3
877.898026E-3
877.298355E-3
877.391624E-3
875.911331E-3
876.178551E-3
875.027275E-3
874.419022E-3
874.397850E-3
873.299789E-3
873.903465E-3
873.177338E-3
872.610283E-3
872.793388E-3
871.836662E-3
872.559929E-3
871.838951E-3
871.448135E-3
871.982574E-3
870.940590E-3
871.982002E-3
871.372604E-3
870.960617E-3
871.372604E-3
870.509720E-3
871.715355E-3
871.463585E-3
870.996094E-3
871.228981E-3
870.494843E-3
871.246719E-3
870.808411E-3
870.252800E-3
870.656204E-3
869.802475E-3
870.778656E-3
870.237923E-3
870.047951E-3
870.310593E-3
868.977356E-3
869.939804E-3
869.253159E-3
868.920135E-3
869.107246E-3
868.012047E-3
869.026566E-3
868.383980E-3
868.080139E-3
868.281555E-3
867.151451E-3
868.220329E-3
867.608643E-3
867.399788E-3
866.786385E-3
866.019058E-3
867.255020E-3
866.717148E-3
866.067696E-3
866.043663E-3
865.152168E-3
866.352081E-3
865.694046E-3
865.476036E-3
866.696548E-3
867.396927E-3
871.226120E-3
873.884010E-3
876.951027E-3
880.571938E-3
882.085991E-3
885.108948E-3
885.524368E-3
885.343552E-3
885.259438E-3
883.453560E-3
883.560562E-3
881.922913E-3
880.518723E-3
880.121613E-3
878.699112E-3
879.668427E-3
878.910255E-3
878.367233E-3
878.441048E-3
878.067398E-3
879.774857E-3
879.377174E-3
878.724861E-3
878.933144E-3
877.363586E-3
878.006172E-3
876.825142E-3
875.411797E-3
875.499916E-3
875.272751E-3
876.973915E-3
876.636887E-3
876.595116E-3
877.265739E-3
876.666641E-3
878.123474E-3
877.403641E-3
877.029419E-3
877.266312E-3
876.111603E-3
876.844597E-3
875.932503E-3
874.748039E-3
874.595833E-3
873.208809E-3
873.567009E-3
872.522163E-3
871.632385E-3
871.870995E-3
870.974350E-3
871.789742E-3
871.324539E-3
870.594406E-3
871.392059E-3
870.465660E-3
871.433830E-3
870.968628E-3
869.511223E-3
870.387840E-3
869.723511E-3
870.764923E-3
869.908333E-3
869.646263E-3
869.226265E-3
869.006538E-3
870.430183E-3
870.351219E-3
869.940376E-3
870.419884E-3
869.418526E-3
870.360947E-3
869.825363E-3
869.230843E-3
869.377899E-3
868.372536E-3
869.159889E-3
868.795967E-3
867.142296E-3
868.306732E-3
867.642403E-3
868.873787E-3
868.365669E-3
867.639542E-3
868.235779E-3
867.245293E-3
868.021774E-3
867.279053E-3
866.580391E-3
867.001534E-3
866.016769E-3
866.894531E-3
866.312027E-3
865.431404E-3
866.014481E-3
864.988518E-3
865.624809E-3
865.468597E-3
865.496063E-3
867.635536E-3
869.393349E-3
873.299217E-3
876.612282E-3
877.758408E-3
882.281685E-3
884.033775E-3
886.340904E-3
886.621284E-3
885.968971E-3
886.368370E-3
884.537888E-3
884.332466E-3
883.070183E-3
881.603050E-3
881.657410E-3
880.495262E-3
881.105804E-3
881.089783E-3
880.503273E-3
881.637955E-3
881.060028E-3
882.294846E-3
882.534027E-3
882.073402E-3
882.806396E-3
881.762695E-3
881.794167E-3
880.602837E-3
877.908325E-3
878.248787E-3
878.047371E-3
878.976059E-3
879.338837E-3
878.861618E-3
880.124474E-3
879.685593E-3
880.513573E-3
880.452347E-3
879.860115E-3
880.032349E-3
879.243851E-3
879.559135E-3
878.881645E-3
877.788734E-3
877.943230E-3
876.687813E-3
876.792526E-3
876.256371E-3
875.095940E-3
876.233482E-3
875.126839E-3
875.271034E-3
874.825287E-3
874.175835E-3
875.479317E-3
874.201584E-3
874.492264E-3
874.500275E-3
873.373604E-3
874.758911E-3
873.482323E-3
873.717499E-3
873.781586E-3
871.325111E-3
873.921204E-3
873.300362E-3
873.771286E-3
873.981857E-3
873.070335E-3
874.362946E-3
873.199654E-3
873.189926E-3
873.200226E-3
872.372246E-3
873.856544E-3
872.487831E-3
872.571945E-3
872.460937E-3
869.725227E-3
872.200584E-3
871.201515E-3
871.580315E-3
871.233559E-3
870.801544E-3
871.984291E-3
870.769501E-3
870.930290E-3
870.723152E-3
870.056534E-3
871.477318E-3
870.052528E-3
870.368385E-3
870.432472E-3
867.715645E-3
870.173836E-3
869.321251E-3
869.446564E-3
869.565010E-3
869.146729E-3
870.576096E-3
869.690895E-3
871.204948E-3
873.450851E-3
875.775719E-3
880.237770E-3
882.622147E-3
885.881424E-3
888.623428E-3
889.497757E-3
891.509056E-3
890.473938E-3
890.166664E-3
889.799309E-3
886.670494E-3
887.938499E-3
885.863113E-3
885.634804E-3
885.780716E-3
884.774780E-3
885.933495E-3
884.736443E-3
885.394478E-3
886.054802E-3
885.692596E-3
887.337685E-3
886.149216E-3
886.263084E-3
886.326027E-3
884.987068E-3
885.176468E-3
883.200073E-3
882.751465E-3
882.597542E-3
881.955528E-3
883.016396E-3
881.969833E-3
882.443047E-3
883.028984E-3
882.692528E-3
883.863831E-3
882.825851E-3
882.675934E-3
882.568359E-3
881.352425E-3
882.000160E-3
880.273247E-3
879.754257E-3
879.285049E-3
878.386688E-3
879.216957E-3
877.451706E-3
877.390480E-3
877.692604E-3
876.629448E-3
877.713203E-3
876.509285E-3
876.569939E-3
876.565933E-3
875.917625E-3
876.782227E-3
875.648117E-3
875.827217E-3
876.019478E-3
873.058319E-3
875.714493E-3
874.829292E-3
875.226974E-3
875.640678E-3
873.481178E-3
875.621223E-3
874.753761E-3
874.960327E-3
874.876785E-3
874.382973E-3
875.701904E-3
874.569511E-3
874.518013E-3
874.754333E-3
873.786736E-3
874.819565E-3
873.668289E-3
873.573303E-3
872.868919E-3
872.601700E-3
874.044228E-3
872.963333E-3
873.029137E-3
872.923851E-3
872.247505E-3
873.431969E-3
872.579384E-3
872.316742E-3
872.733879E-3
871.465302E-3
872.557068E-3
871.616936E-3
871.458435E-3
871.805763E-3
870.770645E-3
871.714211E-3
870.981789E-3
870.846748E-3
871.015549E-3
867.045021E-3
870.319176E-3
871.081352E-3
873.126411E-3
876.504707E-3
878.855896E-3
883.335686E-3
885.421371E-3
888.012886E-3
890.431023E-3
890.555763E-3
891.796875E-3
890.349770E-3
889.376450E-3
888.740730E-3
886.465073E-3
886.258507E-3
884.795952E-3
884.167099E-3
884.180832E-3
882.955170E-3
883.943939E-3
883.934212E-3
883.871841E-3
884.750175E-3
880.990791E-3
883.809471E-3
883.695602E-3
882.903099E-3
882.678795E-3
881.029701E-3
881.810188E-3
881.385040E-3
881.177902E-3
881.847382E-3
881.250572E-3
882.792091E-3
882.943153E-3
882.955170E-3
883.528519E-3
882.233620E-3
882.917976E-3
882.209587E-3
881.438255E-3
881.141853E-3
879.706764E-3
880.104446E-3
879.151154E-3
878.387260E-3
878.039932E-3
876.805115E-3
877.315521E-3
876.595116E-3
876.009750E-3
875.792885E-3
874.798393E-3
875.994873E-3
875.328827E-3
874.844742E-3
875.190353E-3
874.164391E-3
875.385475E-3
874.788666E-3
874.514580E-3
874.752045E-3
873.831367E-3
875.033569E-3
874.201012E-3
873.959541E-3
874.291992E-3
873.593903E-3
874.868202E-3
874.264526E-3
873.765564E-3
874.234772E-3
873.335266E-3
874.500847E-3
873.688889E-3
872.803116E-3
873.331261E-3
872.278404E-3
873.553276E-3
872.742462E-3
872.067833E-3
872.577095E-3
871.897888E-3
873.108673E-3
872.414589E-3
871.611214E-3
872.014618E-3
871.049309E-3
872.041512E-3
871.074486E-3
869.775581E-3
870.589256E-3
869.539833E-3
870.571518E-3
869.975281E-3
869.262886E-3
869.314384E-3
869.506645E-3
871.461296E-3
873.098946E-3
875.110245E-3
878.437614E-3
881.389046E-3
885.480309E-3
887.854958E-3
889.213943E-3
890.868187E-3
890.473938E-3
891.338539E-3
890.307426E-3
888.864899E-3
887.872124E-3
886.332893E-3
886.319733E-3
885.234261E-3
884.386253E-3
884.602547E-3
883.614922E-3
884.590530E-3
884.613991E-3
884.382248E-3
885.322380E-3
884.852028E-3
885.955238E-3
885.356140E-3
884.362221E-3
884.211731E-3
882.670784E-3
882.872772E-3
882.174110E-3
881.601334E-3
882.326889E-3
881.762123E-3
882.948303E-3
883.010101E-3
882.476807E-3
883.431244E-3
882.630157E-3
883.270454E-3
882.658195E-3
881.631660E-3
882.003593E-3
880.808258E-3
880.735588E-3
880.010033E-3
878.616142E-3
878.827858E-3
877.646828E-3
878.104019E-3
877.741814E-3
876.752472E-3
877.524948E-3
876.493263E-3
877.120972E-3
876.983643E-3
876.030922E-3
876.310730E-3
875.756836E-3
876.325607E-3
876.226044E-3
875.454140E-3
876.489830E-3
875.393486E-3
876.189423E-3
875.902748E-3
875.114250E-3
876.511002E-3
875.617790E-3
875.836945E-3
875.715637E-3
874.936295E-3
876.167107E-3
874.658203E-3
874.813271E-3
874.993515E-3
873.910904E-3
875.057030E-3
873.706627E-3
873.822784E-3
873.763847E-3
871.187210E-3
873.641968E-3
872.896957E-3
873.170471E-3
873.165321E-3
872.214890E-3
873.621368E-3
872.175980E-3
872.314453E-3
872.279549E-3
871.432686E-3
872.612000E-3
871.318245E-3
871.452141E-3
871.408653E-3
869.313812E-3
871.367455E-3
870.303154E-3
870.720291E-3
870.915985E-3
871.138573E-3
873.900032E-3
875.055885E-3
878.406715E-3
882.273102E-3
885.044289E-3
889.556694E-3
890.794373E-3
892.576218E-3
893.534088E-3
893.013954E-3
893.878555E-3
891.526222E-3
890.633583E-3
889.624214E-3
887.967110E-3
888.378525E-3
886.565781E-3
886.670494E-3
886.780357E-3
886.373520E-3
887.858963E-3
886.958885E-3
887.888718E-3
888.486671E-3
887.933350E-3
889.052010E-3
887.356567E-3
886.734009E-3
885.997009E-3
884.639168E-3
885.355568E-3
883.596039E-3
883.864975E-3
884.117317E-3
883.606911E-3
885.272598E-3
883.961105E-3
884.723282E-3
885.023689E-3
884.384537E-3
885.717201E-3
884.213448E-3
883.980560E-3
883.847237E-3
882.406998E-3
882.834435E-3
881.078911E-3
880.974770E-3
880.935860E-3
879.770279E-3
880.462646E-3
878.969193E-3
879.097939E-3
879.014969E-3
878.336334E-3
879.202652E-3
877.862549E-3
878.098869E-3
877.896881E-3
874.792671E-3
877.394485E-3
876.606560E-3
876.678085E-3
876.159668E-3
876.009178E-3
877.610207E-3
876.302147E-3
876.426315E-3
876.703835E-3
873.473167E-3
876.181984E-3
875.378609E-3
875.824928E-3
875.994301E-3
874.920273E-3
876.133919E-3
875.205803E-3
874.874496E-3
874.978065E-3
874.127197E-3
875.418663E-3
874.395561E-3
874.220467E-3
874.247360E-3
873.295212E-3
874.438477E-3
873.600197E-3
873.494339E-3
873.583031E-3
872.367096E-3
873.459435E-3
872.352219E-3
872.386551E-3
872.173119E-3
871.364021E-3
872.368813E-3
871.542549E-3
871.184921E-3
871.580315E-3
870.562935E-3
871.499062E-3
870.905113E-3
871.024704E-3
872.280121E-3
873.549843E-3
877.261734E-3
879.955101E-3
883.217239E-3
886.915398E-3
888.564491E-3
891.283607E-3
891.411781E-3
891.624641E-3
891.436386E-3
889.497757E-3
889.356422E-3
887.798309E-3
886.676216E-3
886.049652E-3
884.332466E-3
884.946442E-3
884.306145E-3
884.210587E-3
884.831429E-3
884.060097E-3
885.463715E-3
885.223961E-3
884.901237E-3
884.876633E-3
883.486748E-3
883.886719E-3
882.705116E-3
881.862831E-3
882.179260E-3
881.236267E-3
882.489967E-3
882.461357E-3
882.574654E-3
883.372879E-3
882.757187E-3
883.937073E-3
883.418655E-3
883.217239E-3
883.047867E-3
881.727791E-3
882.192421E-3
880.868340E-3
880.129623E-3
879.821777E-3
878.423309E-3
879.206085E-3
878.212738E-3
877.627373E-3
877.625656E-3
876.490402E-3
877.516365E-3
876.788521E-3
876.194000E-3
876.634598E-3
875.590324E-3
876.850891E-3
876.053238E-3
875.709343E-3
876.059532E-3
875.114822E-3
876.580238E-3
875.752831E-3
875.426102E-3
875.907898E-3
874.861908E-3
876.414871E-3
875.658989E-3
875.066757E-3
875.489044E-3
874.765205E-3
875.945663E-3
875.352859E-3
874.392700E-3
874.692535E-3
873.814774E-3
875.178909E-3
874.318886E-3
873.494911E-3
873.771858E-3
872.941017E-3
874.073982E-3
873.406792E-3
872.688675E-3
873.051453E-3
872.283554E-3
873.096085E-3
872.417450E-3
871.811485E-3
872.160530E-3
871.272469E-3
872.249794E-3
871.667290E-3
870.850182E-3
871.298790E-3
870.469093E-3
871.842957E-3
871.890450E-3
872.629166E-3
875.387192E-3
877.720070E-3
882.264519E-3
885.229111E-3
887.778282E-3
890.559196E-3
891.200638E-3
892.993355E-3
892.548752E-3
890.951157E-3
890.746880E-3
888.848877E-3
888.618279E-3
887.135124E-3
885.701752E-3
885.674858E-3
884.555626E-3
885.010529E-3
884.842873E-3
884.567642E-3
885.277176E-3
884.882927E-3
885.708046E-3
885.572433E-3
884.852600E-3
884.074974E-3
883.157730E-3
883.410072E-3
882.679367E-3
881.754684E-3
881.699181E-3
881.489754E-3
883.004951E-3
883.106232E-3
882.792091E-3
883.909035E-3
883.427238E-3
884.299850E-3
883.886147E-3
883.045578E-3
883.333397E-3
882.282257E-3
882.956314E-3
882.346916E-3
881.326103E-3
881.618500E-3
880.151939E-3
880.203438E-3
879.606056E-3
878.678513E-3
879.095078E-3
877.989578E-3
878.371811E-3
878.080559E-3
877.016258E-3
877.677727E-3
876.693535E-3
877.623940E-3
877.605629E-3
876.729584E-3
877.702332E-3
876.698685E-3
877.115250E-3
876.999092E-3
876.095009E-3
877.407074E-3
876.317024E-3
876.769066E-3
876.603699E-3
876.069260E-3
877.608490E-3
876.403427E-3
876.850319E-3
876.700974E-3
875.771141E-3
877.175331E-3
875.604630E-3
875.577164E-3
875.739670E-3
874.889374E-3
876.206017E-3
875.158310E-3
875.266457E-3
875.457573E-3
874.544334E-3
875.933075E-3
874.686813E-3
875.061035E-3
874.820137E-3
873.900604E-3
875.134277E-3
873.812485E-3
874.062538E-3
873.751259E-3
872.856331E-3
873.999023E-3
872.620010E-3
872.846603E-3
873.278618E-3
873.259735E-3
876.841164E-3
878.510284E-3
881.953239E-3
885.447693E-3
887.977409E-3
891.759682E-3
892.113876E-3
893.255997E-3
893.838501E-3
892.481804E-3
892.963028E-3
890.501404E-3
889.631081E-3
888.914680E-3
887.454414E-3
888.227463E-3
886.327744E-3
886.711693E-3
887.174034E-3
886.653900E-3
888.367653E-3
887.329102E-3
888.170242E-3
888.772202E-3
888.087273E-3
889.201355E-3
887.353706E-3
886.792374E-3
886.485100E-3
885.297775E-3
885.952950E-3
884.536743E-3
884.761047E-3
885.234833E-3
884.993935E-3
886.421585E-3
885.446548E-3
885.895157E-3
886.245918E-3
885.499191E-3
886.485100E-3
884.889221E-3
884.797096E-3
884.433174E-3
881.504631E-3
883.166885E-3
881.851959E-3
881.809616E-3
881.780434E-3
880.031776E-3
881.111526E-3
879.780006E-3
879.897308E-3
879.835510E-3
879.151726E-3
880.276108E-3
878.847885E-3
878.783798E-3
878.802109E-3
878.138351E-3
879.204369E-3
877.742386E-3
877.788162E-3
877.967262E-3
877.189064E-3
878.438759E-3
877.297211E-3
877.436256E-3
877.706909E-3
876.770782E-3
877.803040E-3
876.422310E-3
876.326180E-3
876.476669E-3
875.474167E-3
876.822853E-3
875.740814E-3
875.424385E-3
875.667000E-3
874.768639E-3
875.842667E-3
874.921417E-3
874.653053E-3
874.193001E-3
873.610497E-3
874.927711E-3
873.667717E-3
873.579597E-3
874.085999E-3
