Notes :


2023-11-10 ¿ÀÈÄ 11:57:13
Volts
Ch : LED 2,
744.105721E-3
746.094704E-3
747.358131E-3
747.545242E-3
747.233963E-3
746.298409E-3
745.085335E-3
743.849945E-3
742.455482E-3
741.181755E-3
740.087128E-3
739.348984E-3
738.717270E-3
738.368797E-3
738.306427E-3
738.504982E-3
738.914680E-3
738.933563E-3
738.888931E-3
738.712120E-3
738.058662E-3
737.556839E-3
736.933708E-3
736.483383E-3
736.628723E-3
736.816978E-3
737.362289E-3
737.953377E-3
738.443756E-3
738.945007E-3
739.160728E-3
739.276886E-3
739.264870E-3
738.914680E-3
738.618279E-3
738.079834E-3
737.452126E-3
736.956024E-3
736.238480E-3
735.722351E-3
735.067177E-3
734.634590E-3
734.172249E-3
733.719063E-3
733.611488E-3
733.165169E-3
733.062744E-3
732.987785E-3
732.797813E-3
732.889366E-3
732.709122E-3
732.868767E-3
732.695389E-3
732.501411E-3
732.496834E-3
732.372665E-3
732.155228E-3
732.089424E-3
731.966400E-3
732.106018E-3
731.767845E-3
731.686592E-3
731.774712E-3
731.488037E-3
731.544685E-3
731.405067E-3
731.304359E-3
731.255150E-3
731.172752E-3
731.141281E-3
730.918121E-3
730.965614E-3
731.013680E-3
730.859184E-3
730.830574E-3
730.621147E-3
730.506134E-3
730.312729E-3
730.251503E-3
730.106735E-3
729.880142E-3
729.734802E-3
729.457855E-3
729.198647E-3
728.946877E-3
728.375244E-3
728.308296E-3
728.097725E-3
727.903175E-3
727.890015E-3
727.864838E-3
728.109741E-3
728.758049E-3
730.190849E-3
732.737160E-3
735.682297E-3
739.094353E-3
742.311859E-3
744.994926E-3
747.081757E-3
747.969818E-3
748.165512E-3
747.660255E-3
746.491814E-3
745.321083E-3
743.885994E-3
742.682076E-3
741.564560E-3
740.596390E-3
740.186691E-3
739.816475E-3
739.849091E-3
739.873123E-3
740.162659E-3
740.712547E-3
740.995216E-3
741.316795E-3
741.240692E-3
740.800095E-3
740.102005E-3
739.046288E-3
738.270378E-3
737.714767E-3
737.503624E-3
737.627220E-3
737.852097E-3
738.161659E-3
738.553047E-3
738.804817E-3
739.159012E-3
739.015961E-3
738.907242E-3
738.657188E-3
738.135910E-3
737.798309E-3
737.184906E-3
736.770630E-3
736.348915E-3
735.805321E-3
735.445976E-3
734.948158E-3
734.639740E-3
734.312439E-3
734.020042E-3
734.027481E-3
733.799744E-3
733.721924E-3
733.587456E-3
733.255005E-3
733.330536E-3
733.177185E-3
732.938576E-3
732.880783E-3
732.619858E-3
732.565498E-3
732.237625E-3
732.377243E-3
732.175827E-3
732.016182E-3
731.904602E-3
731.811905E-3
731.587029E-3
731.431389E-3
731.323242E-3
731.244278E-3
730.967903E-3
730.847168E-3
730.678940E-3
730.505562E-3
730.439186E-3
730.344772E-3
730.304718E-3
730.220032E-3
730.075836E-3
729.980278E-3
729.844666E-3
729.756546E-3
729.632378E-3
729.370880E-3
729.197502E-3
729.043579E-3
728.837013E-3
728.600121E-3
728.243637E-3
728.106880E-3
727.788162E-3
727.636528E-3
727.469444E-3
727.277184E-3
727.607346E-3
727.669716E-3
728.030205E-3
728.858757E-3
730.326462E-3
732.920265E-3
735.938072E-3
739.256287E-3
742.489243E-3
744.700813E-3
746.751022E-3
747.452545E-3
747.548676E-3
746.954727E-3
745.813751E-3
744.617844E-3
743.182182E-3
742.113304E-3
741.108513E-3
740.324593E-3
739.765549E-3
739.517212E-3
739.522362E-3
739.774704E-3
740.081406E-3
740.567780E-3
740.805244E-3
741.039848E-3
740.922546E-3
740.229607E-3
739.510918E-3
738.717842E-3
738.130760E-3
737.881279E-3
737.852097E-3
738.368225E-3
738.709259E-3
739.108086E-3
739.668846E-3
740.010452E-3
740.477943E-3
740.259933E-3
740.273094E-3
740.065384E-3
739.675140E-3
739.425659E-3
738.905525E-3
738.677788E-3
738.154793E-3
737.782288E-3
737.505341E-3
737.194061E-3
737.083626E-3
736.776352E-3
736.548615E-3
736.483383E-3
736.097717E-3
736.086273E-3
735.938644E-3
735.742378E-3
735.707474E-3
735.684013E-3
735.631371E-3
735.603905E-3
735.310936E-3
735.273170E-3
735.062599E-3
735.004234E-3
734.889793E-3
734.533310E-3
734.503555E-3
734.278107E-3
734.210587E-3
733.964539E-3
733.697319E-3
733.518791E-3
733.311653E-3
733.057022E-3
733.045578E-3
732.861900E-3
732.782364E-3
732.651901E-3
732.611847E-3
732.317734E-3
732.244492E-3
732.120895E-3
731.808472E-3
731.718636E-3
731.637383E-3
731.421661E-3
731.403351E-3
731.268311E-3
731.029129E-3
730.796814E-3
730.593681E-3
730.563354E-3
730.305290E-3
730.117607E-3
729.896736E-3
729.774857E-3
729.986000E-3
730.052376E-3
730.422020E-3
730.795097E-3
731.688309E-3
733.679581E-3
736.334610E-3
739.426231E-3
742.456627E-3
744.968605E-3
747.060585E-3
748.110580E-3
748.455620E-3
747.913170E-3
746.953583E-3
745.933342E-3
744.653320E-3
743.440247E-3
742.285538E-3
741.490746E-3
740.830994E-3
740.264511E-3
740.075684E-3
740.109444E-3
740.380096E-3
740.849876E-3
741.182327E-3
741.269302E-3
741.275024E-3
740.624428E-3
739.916611E-3
739.299202E-3
738.840866E-3
738.792801E-3
738.995934E-3
739.440536E-3
739.976120E-3
740.495682E-3
740.865898E-3
741.102219E-3
741.202927E-3
740.978050E-3
740.851021E-3
740.506554E-3
740.074539E-3
739.613914E-3
739.086914E-3
738.634872E-3
738.199425E-3
737.678146E-3
737.339401E-3
737.012100E-3
736.753464E-3
736.588097E-3
736.332321E-3
736.354637E-3
736.168098E-3
736.114311E-3
736.116600E-3
736.045647E-3
736.097717E-3
735.922050E-3
735.858536E-3
735.769844E-3
735.726929E-3
735.535812E-3
735.410500E-3
735.348129E-3
735.169029E-3
734.970474E-3
734.957886E-3
734.684372E-3
734.660339E-3
734.626007E-3
734.401131E-3
734.317589E-3
734.046936E-3
734.089279E-3
733.957672E-3
733.829498E-3
733.899307E-3
733.603477E-3
733.526230E-3
733.559418E-3
733.269310E-3
733.208084E-3
732.792664E-3
732.743454E-3
732.436180E-3
732.177544E-3
732.052231E-3
731.702614E-3
731.439400E-3
731.137276E-3
730.927849E-3
730.825424E-3
730.691528E-3
730.783653E-3
730.896378E-3
731.228828E-3
732.384682E-3
734.219170E-3
736.779213E-3
739.759254E-3
742.789650E-3
745.749664E-3
747.794724E-3
749.255562E-3
749.629784E-3
749.170876E-3
748.455620E-3
747.269440E-3
746.028900E-3
744.859314E-3
743.709755E-3
742.923546E-3
742.133904E-3
741.767693E-3
741.670990E-3
741.733360E-3
742.103577E-3
742.475510E-3
742.930984E-3
743.158722E-3
743.019104E-3
742.569923E-3
741.723061E-3
740.899658E-3
739.978981E-3
739.260864E-3
739.199638E-3
739.316940E-3
739.702034E-3
740.076256E-3
740.459633E-3
741.046715E-3
741.186333E-3
741.192627E-3
740.963745E-3
740.682793E-3
740.415573E-3
739.885139E-3
739.453697E-3
738.912964E-3
738.534164E-3
738.062668E-3
737.506485E-3
737.144852E-3
736.684799E-3
736.299133E-3
736.084557E-3
735.900307E-3
735.810471E-3
735.648537E-3
735.507202E-3
735.507202E-3
735.393906E-3
735.171890E-3
735.053444E-3
735.075760E-3
734.989929E-3
734.791946E-3
734.579086E-3
734.391403E-3
734.245491E-3
734.244919E-3
733.836937E-3
733.807182E-3
733.588600E-3
733.339119E-3
733.268738E-3
733.123398E-3
732.934570E-3
732.757759E-3
732.536888E-3
732.501984E-3
732.172394E-3
732.148361E-3
731.849670E-3
731.717491E-3
731.770134E-3
731.565285E-3
731.532097E-3
731.363869E-3
731.205940E-3
731.014252E-3
730.710983E-3
730.595970E-3
730.387688E-3
729.917908E-3
729.717636E-3
729.319382E-3
729.289055E-3
729.018402E-3
728.749466E-3
728.888512E-3
728.920555E-3
729.041862E-3
729.440689E-3
730.512428E-3
732.381821E-3
735.018539E-3
738.184547E-3
741.567421E-3
744.330597E-3
746.729851E-3
748.027611E-3
748.468208E-3
748.182678E-3
747.354698E-3
746.466637E-3
745.072174E-3
743.912888E-3
742.830849E-3
741.920471E-3
741.558266E-3
741.123390E-3
741.066170E-3
741.256142E-3
741.451263E-3
741.980553E-3
742.385101E-3
742.647743E-3
742.690659E-3
742.180824E-3
741.515350E-3
740.338898E-3
739.489174E-3
738.765907E-3
738.351059E-3
738.479233E-3
738.594818E-3
739.090919E-3
739.497757E-3
739.766121E-3
740.193558E-3
740.090561E-3
739.986420E-3
739.919472E-3
739.503479E-3
739.358139E-3
738.765907E-3
738.403130E-3
738.116455E-3
737.648392E-3
737.402344E-3
736.977768E-3
736.712837E-3
736.414719E-3
736.072540E-3
735.976982E-3
735.843086E-3
735.737801E-3
735.631371E-3
735.546112E-3
735.555840E-3
735.422516E-3
735.310936E-3
735.191917E-3
734.988213E-3
735.138702E-3
734.863472E-3
734.792519E-3
734.756470E-3
734.689522E-3
734.659195E-3
734.488106E-3
734.325027E-3
734.294701E-3
734.014320E-3
734.012032E-3
733.763123E-3
733.701897E-3
733.724785E-3
733.459854E-3
733.331108E-3
733.186913E-3
733.059883E-3
733.080482E-3
732.979202E-3
732.913399E-3
732.835579E-3
732.761192E-3
732.643890E-3
732.473373E-3
732.360077E-3
732.087135E-3
731.963539E-3
731.730080E-3
731.551552E-3
731.264305E-3
731.149292E-3
730.864334E-3
730.723000E-3
730.507851E-3
730.499268E-3
730.415154E-3
730.795670E-3
731.061172E-3
731.706047E-3
733.146858E-3
735.174179E-3
738.031197E-3
741.154861E-3
744.043922E-3
746.684647E-3
748.108292E-3
749.078178E-3
749.006081E-3
748.511124E-3
747.504616E-3
746.277809E-3
745.006371E-3
743.871689E-3
742.935562E-3
742.251778E-3
741.676140E-3
741.629219E-3
741.622353E-3
741.691017E-3
742.272949E-3
742.549324E-3
742.771912E-3
742.634583E-3
742.310143E-3
741.715622E-3
740.703964E-3
740.022469E-3
739.496613E-3
739.152718E-3
739.327240E-3
739.631081E-3
740.087700E-3
740.653610E-3
740.891647E-3
741.124535E-3
741.147423E-3
740.920258E-3
740.583801E-3
740.288544E-3
739.986992E-3
739.447975E-3
739.117241E-3
738.730431E-3
738.339615E-3
738.044357E-3
737.639236E-3
737.494469E-3
737.328529E-3
737.085342E-3
736.927986E-3
736.716270E-3
736.651611E-3
736.502266E-3
736.268234E-3
736.254501E-3
736.167526E-3
736.009598E-3
735.862541E-3
735.681152E-3
735.656548E-3
735.337830E-3
735.283470E-3
735.173607E-3
734.873199E-3
734.705544E-3
734.441757E-3
734.365082E-3
734.205437E-3
734.004593E-3
734.175682E-3
733.891296E-3
733.851242E-3
733.741379E-3
733.584023E-3
733.660126E-3
733.363724E-3
733.323669E-3
733.229256E-3
732.942009E-3
732.948303E-3
732.713699E-3
732.618713E-3
732.519150E-3
732.350922E-3
732.233047E-3
732.089424E-3
731.918335E-3
731.507492E-3
731.153870E-3
731.228256E-3
730.981064E-3
730.999947E-3
730.951309E-3
730.944443E-3
731.320381E-3
731.909180E-3
733.236122E-3
735.359573E-3
737.942505E-3
740.915680E-3
743.710327E-3
745.903587E-3
747.415924E-3
748.135185E-3
748.287392E-3
747.600174E-3
746.709824E-3
745.542526E-3
744.259644E-3
743.305206E-3
742.310143E-3
741.608047E-3
741.200638E-3
740.867043E-3
740.887070E-3
740.914536E-3
741.003799E-3
741.219521E-3
741.308784E-3
741.268730E-3
740.555191E-3
739.704895E-3
738.920975E-3
738.133621E-3
737.882423E-3
737.734795E-3
737.986565E-3
738.301849E-3
738.854599E-3
739.403343E-3
739.625359E-3
739.889717E-3
739.791298E-3
739.550972E-3
739.504051E-3
738.848305E-3
738.396835E-3
737.812614E-3
737.330246E-3
737.073898E-3
736.484528E-3
736.050224E-3
735.662842E-3
735.217094E-3
735.110664E-3
734.822273E-3
734.557343E-3
734.467506E-3
734.215736E-3
734.179115E-3
733.930779E-3
733.855820E-3
733.733368E-3
733.497047E-3
733.543396E-3
733.141708E-3
733.124542E-3
732.999229E-3
732.931137E-3
732.803535E-3
732.573509E-3
732.414436E-3
732.234192E-3
731.973267E-3
731.833076E-3
731.712914E-3
731.643677E-3
731.425095E-3
731.232834E-3
731.238556E-3
731.001663E-3
730.863190E-3
730.843163E-3
730.664635E-3
730.647469E-3
730.571938E-3
730.456352E-3
730.374527E-3
730.096436E-3
730.165100E-3
729.912186E-3
729.722214E-3
729.428101E-3
729.162598E-3
728.981781E-3
728.635597E-3
728.343773E-3
728.104591E-3
727.981567E-3
728.031349E-3
727.751541E-3
727.982712E-3
728.318596E-3
729.031563E-3
730.963898E-3
733.471298E-3
736.439896E-3
739.668846E-3
742.462349E-3
744.933701E-3
746.306992E-3
747.086906E-3
746.907806E-3
746.231461E-3
745.247269E-3
744.052505E-3
742.905235E-3
741.912460E-3
740.963173E-3
740.506554E-3
739.985275E-3
739.877701E-3
740.048218E-3
740.266228E-3
740.865326E-3
740.981483E-3
741.428375E-3
741.415787E-3
741.010666E-3
740.415001E-3
739.386177E-3
738.514137E-3
737.717628E-3
737.160873E-3
737.229538E-3
737.236977E-3
737.549973E-3
738.010597E-3
738.272667E-3
738.648033E-3
738.644028E-3
738.644600E-3
738.436317E-3
738.188553E-3
737.941360E-3
737.396049E-3
736.973190E-3
736.560059E-3
736.160660E-3
735.852242E-3
735.273743E-3
735.037994E-3
734.734726E-3
734.485817E-3
734.405708E-3
734.026337E-3
733.835793E-3
733.728218E-3
733.485031E-3
733.471298E-3
733.405495E-3
733.282471E-3
733.250427E-3
732.979202E-3
732.959175E-3
732.750893E-3
732.682228E-3
732.698250E-3
732.523727E-3
732.424736E-3
732.295990E-3
732.295418E-3
732.249069E-3
732.106018E-3
732.007027E-3
731.724358E-3
731.607056E-3
731.541824E-3
731.453133E-3
731.497192E-3
731.352997E-3
731.398201E-3
731.325531E-3
731.237984E-3
731.308365E-3
731.129837E-3
731.066322E-3
730.844307E-3
730.693245E-3
730.779648E-3
730.432320E-3
730.252075E-3
730.046082E-3
729.695320E-3
729.592896E-3
729.236984E-3
729.085350E-3
728.946877E-3
728.749466E-3
728.821564E-3
729.095650E-3
729.437256E-3
730.308151E-3
732.035637E-3
734.573364E-3
737.440681E-3
740.538025E-3
743.218803E-3
745.406914E-3
746.998215E-3
747.481155E-3
747.528076E-3
746.922684E-3
745.868683E-3
745.018959E-3
743.852234E-3
742.778206E-3
742.126465E-3
741.352844E-3
741.112518E-3
740.928841E-3
741.062164E-3
741.293335E-3
741.547966E-3
741.909027E-3
742.007446E-3
741.922188E-3
741.559982E-3
740.895081E-3
740.076828E-3
739.209366E-3
738.772202E-3
738.552475E-3
738.555336E-3
739.064026E-3
739.298058E-3
739.820480E-3
740.154076E-3
740.270233E-3
740.234184E-3
739.997292E-3
739.892006E-3
739.582443E-3
739.112663E-3
738.749313E-3
738.288116E-3
737.941933E-3
737.368584E-3
736.945152E-3
736.584091E-3
736.284828E-3
735.925484E-3
735.745239E-3
735.383606E-3
735.439682E-3
735.105515E-3
735.008812E-3
734.861755E-3
734.647179E-3
734.540749E-3
734.364510E-3
734.334755E-3
734.073257E-3
733.855247E-3
733.773994E-3
733.652115E-3
733.475304E-3
733.325386E-3
733.317947E-3
733.261299E-3
732.982063E-3
732.813263E-3
732.798386E-3
732.674217E-3
732.611275E-3
732.538605E-3
732.484245E-3
732.401848E-3
732.136345E-3
732.163239E-3
732.075119E-3
731.950378E-3
731.944084E-3
731.651688E-3
731.537247E-3
731.258011E-3
731.114960E-3
730.897522E-3
730.698967E-3
730.424881E-3
730.180550E-3
729.938507E-3
729.881287E-3
729.631805E-3
729.619217E-3
729.495621E-3
729.633522E-3
729.702187E-3
729.866982E-3
730.504990E-3
731.626511E-3
733.485603E-3
736.100578E-3
738.865471E-3
741.994858E-3
744.378662E-3
746.191406E-3
747.356415E-3
747.763252E-3
747.686005E-3
746.784210E-3
745.875549E-3
744.689941E-3
743.546677E-3
742.563629E-3
741.635513E-3
740.958023E-3
740.438461E-3
740.316010E-3
740.325165E-3
740.363503E-3
740.524292E-3
740.548325E-3
740.436745E-3
740.069389E-3
739.241409E-3
738.555336E-3
737.849808E-3
737.589455E-3
737.526512E-3
737.737083E-3
738.114738E-3
738.768768E-3
739.112091E-3
739.523506E-3
739.716911E-3
739.776993E-3
739.760399E-3
739.276314E-3
738.996506E-3
738.466072E-3
737.947083E-3
737.560844E-3
736.927414E-3
