Notes :


2023-10-25 ¿ÀÈÄ 9:42:29
Volts
Ch : LED 2,
316.184235E-3
316.151619E-3
316.304970E-3
316.014862E-3
316.246033E-3
316.407967E-3
317.320633E-3
318.364906E-3
319.375992E-3
320.873451E-3
321.853638E-3
323.285866E-3
323.919296E-3
324.052620E-3
324.198532E-3
323.614311E-3
323.478127E-3
322.816086E-3
321.802711E-3
321.423340E-3
320.574760E-3
320.508957E-3
320.179367E-3
319.772530E-3
319.778824E-3
319.620323E-3
320.058060E-3
320.251465E-3
319.853210E-3
319.985390E-3
319.490433E-3
319.563675E-3
319.400597E-3
319.037819E-3
319.136238E-3
318.945122E-3
319.186592E-3
319.325066E-3
319.264984E-3
319.509315E-3
319.374847E-3
319.649506E-3
319.685555E-3
319.294739E-3
319.411469E-3
319.022369E-3
319.113922E-3
318.854713E-3
318.386650E-3
318.323708E-3
317.899132E-3
318.021584E-3
317.949486E-3
317.483711E-3
317.713737E-3
317.305183E-3
317.551231E-3
317.498589E-3
317.124367E-3
317.090034E-3
317.016220E-3
317.263985E-3
317.309761E-3
317.107773E-3
317.309189E-3
317.129517E-3
317.258263E-3
317.346954E-3
317.029381E-3
317.357254E-3
317.120934E-3
317.334938E-3
317.445374E-3
317.162132E-3
317.124367E-3
317.032242E-3
317.137527E-3
317.273712E-3
317.162704E-3
317.179298E-3
316.795349E-3
316.946411E-3
317.138100E-3
316.721535E-3
316.823959E-3
316.488075E-3
316.584778E-3
316.559029E-3
316.102409E-3
316.199684E-3
315.968513E-3
316.060638E-3
316.038322E-3
316.116142E-3
316.430283E-3
316.795349E-3
317.801857E-3
318.945694E-3
320.072365E-3
321.533203E-3
322.592354E-3
323.403168E-3
323.866653E-3
323.642349E-3
323.414040E-3
323.027802E-3
322.560310E-3
321.865654E-3
320.869446E-3
320.581627E-3
320.063782E-3
319.753647E-3
319.596863E-3
319.354248E-3
319.537926E-3
319.381142E-3
319.627762E-3
319.655228E-3
319.447517E-3
319.390869E-3
319.117928E-3
318.946838E-3
318.799782E-3
318.462753E-3
318.700218E-3
318.569183E-3
319.030380E-3
319.371414E-3
319.298744E-3
319.592857E-3
319.340515E-3
319.340515E-3
319.282722E-3
318.691635E-3
318.704224E-3
318.331146E-3
318.345451E-3
318.297386E-3
317.769241E-3
317.611885E-3
317.278290E-3
317.223930E-3
317.229652E-3
317.031670E-3
316.964149E-3
316.726112E-3
316.799927E-3
316.876030E-3
316.499519E-3
316.734695E-3
316.522408E-3
316.583061E-3
316.751862E-3
316.532707E-3
316.619682E-3
316.376495E-3
316.586494E-3
316.643143E-3
316.486931E-3
316.540718E-3
316.433716E-3
316.543579E-3
316.559029E-3
316.383362E-3
316.573334E-3
316.361046E-3
316.433144E-3
316.304398E-3
316.010284E-3
316.176224E-3
315.750504E-3
315.855789E-3
315.735626E-3
315.543938E-3
315.483856E-3
315.210342E-3
315.371704E-3
315.339661E-3
315.441513E-3
315.803146E-3
316.266632E-3
317.332649E-3
318.425560E-3
319.610023E-3
320.902634E-3
321.832466E-3
322.582626E-3
323.007202E-3
322.929955E-3
322.675323E-3
322.031593E-3
321.608734E-3
321.030235E-3
320.328712E-3
319.995117E-3
319.407463E-3
319.281578E-3
319.127083E-3
318.900490E-3
319.054985E-3
319.000626E-3
318.947411E-3
319.046974E-3
318.724823E-3
318.832397E-3
318.266487E-3
318.233871E-3
318.295670E-3
317.789841E-3
318.069077E-3
318.020439E-3
318.226433E-3
318.535423E-3
318.645859E-3
318.572044E-3
318.523407E-3
318.661880E-3
318.731117E-3
318.213272E-3
318.110847E-3
317.812729E-3
317.745781E-3
317.627907E-3
317.090607E-3
317.136383E-3
316.825676E-3
316.712379E-3
316.645432E-3
316.199684E-3
316.444016E-3
316.247749E-3
316.354179E-3
316.394234E-3
316.051483E-3
316.220284E-3
316.072083E-3
316.087532E-3
316.268349E-3
315.771103E-3
316.088104E-3
315.988541E-3
316.263199E-3
316.296959E-3
316.003990E-3
316.175079E-3
316.004562E-3
316.085815E-3
316.254616E-3
315.954208E-3
316.191101E-3
315.978813E-3
315.969658E-3
316.013718E-3
315.765381E-3
315.987396E-3
315.764236E-3
315.786552E-3
315.843201E-3
315.432930E-3
315.348816E-3
315.276718E-3
315.211487E-3
315.277290E-3
314.896202E-3
315.110779E-3
315.319633E-3
315.947914E-3
316.960716E-3
317.848778E-3
319.408607E-3
320.607948E-3
321.778679E-3
322.707939E-3
322.774315E-3
322.778893E-3
322.615242E-3
322.191238E-3
321.665382E-3
321.158981E-3
320.690918E-3
319.803429E-3
319.568253E-3
319.363976E-3
319.082451E-3
319.070435E-3
318.979454E-3
319.044113E-3
319.186020E-3
318.920517E-3
319.071007E-3
318.853569E-3
318.744278E-3
318.466759E-3
317.934608E-3
318.024445E-3
317.895126E-3
317.964363E-3
318.186951E-3
318.085098E-3
318.342018E-3
318.428993E-3
318.485069E-3
318.675041E-3
318.426132E-3
318.431854E-3
318.189812E-3
318.061638E-3
317.887115E-3
317.292023E-3
317.410469E-3
317.142677E-3
317.068291E-3
316.912079E-3
316.504669E-3
316.558456E-3
316.367912E-3
316.296387E-3
316.373062E-3
315.838623E-3
315.994835E-3
316.074944E-3
316.086388E-3
316.189957E-3
315.655518E-3
315.924454E-3
315.836906E-3
315.951920E-3
316.222000E-3
316.060066E-3
316.074944E-3
315.896416E-3
315.977097E-3
316.001129E-3
315.898132E-3
316.126442E-3
316.006279E-3
316.162491E-3
316.061783E-3
315.809441E-3
315.866661E-3
315.558243E-3
315.638351E-3
315.625763E-3
315.327644E-3
315.327072E-3
315.122223E-3
315.122223E-3
315.065002E-3
314.870453E-3
315.111351E-3
314.868736E-3
315.070152E-3
315.409470E-3
315.758514E-3
316.960144E-3
317.965508E-3
319.357681E-3
320.720673E-3
321.520615E-3
322.419548E-3
322.723961E-3
322.811508E-3
322.571754E-3
321.740913E-3
321.343231E-3
320.720100E-3
320.086098E-3
319.511604E-3
318.939400E-3
319.093895E-3
318.723679E-3
318.734550E-3
318.943977E-3
318.684196E-3
319.007492E-3
318.804359E-3
318.631554E-3
318.510818E-3
317.843056E-3
318.098259E-3
317.670822E-3
317.699432E-3
317.782402E-3
317.974091E-3
318.306541E-3
318.039894E-3
318.166351E-3
318.397522E-3
318.160057E-3
318.572617E-3
318.196106E-3
317.940903E-3
317.812729E-3
317.317200E-3
317.532349E-3
317.096901E-3
316.988182E-3
316.977882E-3
316.795921E-3
316.887474E-3
316.432571E-3
316.260338E-3
316.343307E-3
315.630913E-3
316.172791E-3
316.017151E-3
316.044617E-3
316.126442E-3
315.696144E-3
316.156769E-3
315.843773E-3
315.855789E-3
315.971947E-3
315.691566E-3
316.054344E-3
315.948486E-3
315.864372E-3
315.943909E-3
315.482140E-3
316.046906E-3
315.831757E-3
315.871811E-3
315.823174E-3
315.444946E-3
315.876961E-3
315.507317E-3
315.305328E-3
315.365410E-3
315.067291E-3
315.376282E-3
314.816093E-3
314.594078E-3
314.548874E-3
314.614105E-3
314.704514E-3
314.367485E-3
314.357185E-3
314.708519E-3
314.857864E-3
316.024017E-3
316.734123E-3
317.969513E-3
319.329071E-3
320.221138E-3
321.461678E-3
321.722603E-3
322.027588E-3
322.019005E-3
321.101189E-3
321.088600E-3
320.267487E-3
319.722176E-3
319.226074E-3
318.497086E-3
318.559456E-3
318.117142E-3
318.242455E-3
318.172646E-3
317.727470E-3
318.292236E-3
318.017578E-3
317.956352E-3
317.816162E-3
317.193604E-3
317.386436E-3
316.897202E-3
316.846275E-3
317.118645E-3
316.941261E-3
317.494583E-3
317.404747E-3
317.590714E-3
317.734909E-3
317.591286E-3
317.847633E-3
317.428207E-3
317.254829E-3
317.065430E-3
317.011070E-3
316.925812E-3
316.358185E-3
316.088104E-3
315.934753E-3
315.692139E-3
316.001701E-3
315.571976E-3
315.300179E-3
315.403175E-3
314.959717E-3
315.347672E-3
315.093040E-3
315.043259E-3
315.154266E-3
314.941406E-3
315.447235E-3
315.228081E-3
315.010643E-3
315.251541E-3
315.157127E-3
315.382576E-3
315.132523E-3
314.962578E-3
315.060425E-3
314.665031E-3
315.205765E-3
314.976883E-3
315.022659E-3
315.143967E-3
314.920235E-3
315.339088E-3
315.051270E-3
314.979744E-3
314.979744E-3
314.578629E-3
315.071297E-3
314.820671E-3
314.537430E-3
314.653587E-3
313.886833E-3
314.395523E-3
314.145470E-3
313.968086E-3
314.232445E-3
313.922882E-3
314.478493E-3
314.571762E-3
315.089607E-3
316.193962E-3
317.131233E-3
318.793488E-3
319.852066E-3
320.809937E-3
321.749496E-3
322.062492E-3
322.540855E-3
322.037888E-3
321.429062E-3
321.048546E-3
320.230293E-3
319.853783E-3
319.048691E-3
318.635559E-3
318.620682E-3
318.032455E-3
318.342590E-3
318.191528E-3
318.253326E-3
318.480492E-3
318.293953E-3
318.653870E-3
318.150330E-3
317.797279E-3
317.713165E-3
317.147255E-3
317.269707E-3
316.956139E-3
316.877747E-3
317.005920E-3
317.018509E-3
317.625046E-3
317.508316E-3
317.516327E-3
317.591858E-3
317.632484E-3
317.661667E-3
317.103767E-3
316.829109E-3
316.672897E-3
316.180229E-3
316.411400E-3
315.943909E-3
315.691566E-3
315.737343E-3
315.261841E-3
315.558815E-3
315.103340E-3
314.954567E-3
315.066147E-3
314.824104E-3
315.221214E-3
314.904213E-3
314.845276E-3
314.937973E-3
314.781189E-3
315.177727E-3
314.978027E-3
314.913940E-3
315.146255E-3
314.662170E-3
315.111351E-3
315.026665E-3
315.028954E-3
315.191460E-3
314.837837E-3
315.314484E-3
315.094185E-3
315.163994E-3
315.281868E-3
315.126228E-3
315.429497E-3
314.994621E-3
314.816093E-3
314.889908E-3
314.475060E-3
314.559174E-3
314.295387E-3
314.045334E-3
314.189529E-3
313.976669E-3
314.271355E-3
313.914299E-3
313.780975E-3
313.918877E-3
314.167786E-3
315.061569E-3
315.802002E-3
316.944695E-3
318.394661E-3
319.456673E-3
320.734406E-3
321.169281E-3
321.374130E-3
321.439934E-3
320.615387E-3
320.629120E-3
319.854355E-3
319.189453E-3
318.815804E-3
318.239021E-3
318.164635E-3
317.738914E-3
317.538071E-3
317.665100E-3
317.551231E-3
317.903709E-3
317.758942E-3
317.568398E-3
317.592430E-3
317.301178E-3
317.370987E-3
316.841125E-3
316.561317E-3
316.455460E-3
316.349602E-3
316.803360E-3
316.653442E-3
316.708374E-3
317.072868E-3
317.139816E-3
317.414474E-3
317.151260E-3
316.975594E-3
316.991615E-3
316.759300E-3
316.652298E-3
316.264343E-3
315.990829E-3
315.843773E-3
315.339088E-3
315.588570E-3
315.294456E-3
315.191460E-3
315.178871E-3
314.950562E-3
315.206337E-3
314.940262E-3
314.695358E-3
314.785194E-3
314.670181E-3
314.976883E-3
314.750290E-3
314.785194E-3
314.706230E-3
314.647293E-3
315.018654E-3
314.498520E-3
314.388657E-3
314.487076E-3
314.366341E-3
314.572906E-3
314.389229E-3
314.246750E-3
314.409256E-3
314.691925E-3
314.689064E-3
314.368629E-3
314.188957E-3
314.167213E-3
314.067078E-3
314.018440E-3
313.560677E-3
313.385582E-3
313.493729E-3
313.304901E-3
313.443375E-3
313.201332E-3
313.140678E-3
313.422775E-3
313.328362E-3
313.831902E-3
314.342880E-3
315.135956E-3
316.474915E-3
317.359543E-3
319.040108E-3
319.760513E-3
320.207405E-3
320.648003E-3
320.264053E-3
320.052910E-3
319.299316E-3
318.608093E-3
318.181801E-3
317.352676E-3
317.195320E-3
316.624260E-3
316.418839E-3
316.358185E-3
316.409683E-3
316.604805E-3
316.631699E-3
316.447449E-3
316.472626E-3
316.150475E-3
316.151047E-3
315.856934E-3
315.629196E-3
315.663528E-3
315.431786E-3
315.905571E-3
315.799713E-3
315.864372E-3
316.096115E-3
316.201973E-3
316.465759E-3
316.295242E-3
316.140747E-3
316.058922E-3
316.087532E-3
315.973663E-3
315.319061E-3
314.994621E-3
315.040970E-3
314.634132E-3
314.789200E-3
314.450455E-3
314.284515E-3
314.238167E-3
313.583565E-3
313.989830E-3
313.941765E-3
313.922882E-3
313.931465E-3
313.591003E-3
314.006424E-3
313.947487E-3
313.940048E-3
314.051056E-3
313.939476E-3
314.020729E-3
313.818169E-3
313.738060E-3
313.896561E-3
313.795280E-3
314.115715E-3
313.850784E-3
313.673401E-3
313.834763E-3
313.791847E-3
314.131737E-3
313.954926E-3
313.719177E-3
313.823318E-3
313.490295E-3
313.707161E-3
313.492012E-3
313.231659E-3
313.286591E-3
313.046265E-3
313.130951E-3
312.919235E-3
312.851715E-3
312.921524E-3
312.820244E-3
313.033676E-3
313.142967E-3
313.689423E-3
314.723969E-3
315.684700E-3
317.428780E-3
318.676186E-3
319.687843E-3
320.597649E-3
320.688629E-3
321.213913E-3
320.827675E-3
320.368767E-3
319.890404E-3
319.169998E-3
318.815231E-3
318.205833E-3
317.725754E-3
317.457962E-3
317.201042E-3
317.362404E-3
317.209053E-3
317.128372E-3
317.349243E-3
317.193604E-3
317.377281E-3
317.147827E-3
316.704941E-3
316.711235E-3
315.907288E-3
316.055489E-3
315.902710E-3
315.875244E-3
316.050911E-3
315.926170E-3
316.361618E-3
316.514969E-3
316.470337E-3
316.524696E-3
316.343880E-3
316.403961E-3
316.083527E-3
315.581703E-3
315.595436E-3
315.308189E-3
315.214348E-3
314.932823E-3
314.674187E-3
314.662170E-3
314.354897E-3
314.465904E-3
314.269638E-3
314.034462E-3
314.167786E-3
313.948631E-3
314.140320E-3
314.032173E-3
313.980103E-3
314.080238E-3
313.946915E-3
314.156914E-3
313.942909E-3
313.762093E-3
314.123154E-3
314.106560E-3
314.124870E-3
313.972664E-3
313.850784E-3
314.136314E-3
313.975525E-3
314.195824E-3
314.038467E-3
313.976097E-3
314.142609E-3
314.300537E-3
314.280510E-3
314.048195E-3
313.768959E-3
313.954926E-3
313.572693E-3
313.579559E-3
313.429070E-3
313.232231E-3
313.360977E-3
312.986755E-3
313.161850E-3
313.058281E-3
312.954140E-3
313.310051E-3
313.554382E-3
314.691353E-3
315.709877E-3
316.794205E-3
318.180084E-3
319.083023E-3
320.284653E-3
320.794487E-3
320.857430E-3
320.749855E-3
320.087814E-3
319.821167E-3
319.132805E-3
318.487358E-3
318.286514E-3
317.564964E-3
317.437935E-3
317.131805E-3
317.004204E-3
317.014503E-3
317.029953E-3
317.261696E-3
317.303467E-3
317.023659E-3
317.045975E-3
316.719818E-3
316.539574E-3
316.189957E-3
315.896416E-3
316.037178E-3
315.749931E-3
316.120148E-3
316.260338E-3
316.373634E-3
316.684914E-3
316.421127E-3
316.799927E-3
316.724396E-3
316.462898E-3
316.314697E-3
316.028023E-3
315.970230E-3
315.663528E-3
315.409470E-3
315.337372E-3
314.722824E-3
314.986610E-3
314.829826E-3
314.559746E-3
314.671898E-3
314.417839E-3
314.581490E-3
314.467621E-3
314.184952E-3
314.364624E-3
314.441299E-3
314.424706E-3
314.242172E-3
314.116859E-3
314.405251E-3
314.252472E-3
314.448738E-3
314.377213E-3
314.078522E-3
314.271927E-3
314.102554E-3
314.218140E-3
314.261627E-3
314.066505E-3
314.175797E-3
313.795853E-3
314.139175E-3
314.109421E-3
313.910866E-3
313.873100E-3
313.522911E-3
313.618469E-3
313.508606E-3
313.073158E-3
313.130951E-3
312.845421E-3
313.061714E-3
312.873459E-3
312.685204E-3
312.878036E-3
312.766457E-3
313.366127E-3
314.104843E-3
314.979744E-3
316.261482E-3
317.290306E-3
318.690491E-3
319.497299E-3
319.716454E-3
320.064354E-3
319.642639E-3
319.485283E-3
318.891335E-3
318.003845E-3
317.524910E-3
316.567612E-3
316.528702E-3
316.263771E-3
315.886688E-3
315.998840E-3
315.792847E-3
316.081238E-3
316.092110E-3
316.046906E-3
315.999413E-3
315.278435E-3
315.539360E-3
315.436935E-3
315.043831E-3
315.253830E-3
315.036964E-3
315.272141E-3
315.571404E-3
315.364838E-3
315.845490E-3
315.913010E-3
316.044044E-3
316.032028E-3
315.674973E-3
315.650940E-3
315.228653E-3
315.510750E-3
315.190315E-3
314.790344E-3
314.765167E-3
314.344597E-3
314.280510E-3
314.361763E-3
314.069939E-3
313.964081E-3
313.479996E-3
313.693428E-3
313.712883E-3
313.731766E-3
313.846779E-3
313.500595E-3
313.773537E-3
313.755226E-3
313.538933E-3
313.764381E-3
313.539505E-3
313.743210E-3
313.803291E-3
313.527489E-3
313.677406E-3
313.453674E-3
