Notes :


2023-10-24 ¿ÀÈÄ 9:58:27
Volts
Ch : LED 2,
221.514130E-3
222.256279E-3
221.138191E-3
222.383881E-3
221.401978E-3
221.252060E-3
222.041130E-3
220.544243E-3
222.644806E-3
221.691513E-3
221.791077E-3
222.728920E-3
221.748161E-3
223.755455E-3
222.413635E-3
222.615051E-3
223.296547E-3
222.598457E-3
224.263573E-3
223.077965E-3
223.019600E-3
223.910522E-3
223.056793E-3
224.671555E-3
223.738289E-3
223.849869E-3
224.305916E-3
223.348618E-3
225.222588E-3
224.225807E-3
223.931694E-3
224.890709E-3
223.697090E-3
225.529289E-3
224.428368E-3
224.305916E-3
224.946785E-3
223.494530E-3
225.436020E-3
224.542236E-3
224.130821E-3
225.196266E-3
224.165154E-3
225.959015E-3
224.785995E-3
224.866676E-3
225.680923E-3
223.514557E-3
225.710678E-3
225.000572E-3
224.491310E-3
225.639153E-3
224.691010E-3
226.316071E-3
225.235176E-3
225.080109E-3
226.432228E-3
225.360489E-3
226.883125E-3
226.227379E-3
225.898361E-3
226.926613E-3
225.326729E-3
226.858521E-3
225.716400E-3
224.909019E-3
225.010300E-3
222.869110E-3
223.296547E-3
221.126175E-3
219.869614E-3
219.997787E-3
217.396545E-3
219.434166E-3
219.005585E-3
218.682861E-3
220.265579E-3
218.993568E-3
220.572281E-3
220.089912E-3
220.147705E-3
221.151352E-3
219.510269E-3
221.428871E-3
220.649529E-3
220.252991E-3
221.170235E-3
219.382668E-3
220.837212E-3
220.272446E-3
220.025826E-3
221.329308E-3
219.139481E-3
221.812820E-3
221.716118E-3
221.555328E-3
222.668839E-3
221.241188E-3
222.681427E-3
221.974182E-3
221.456909E-3
222.449112E-3
220.972252E-3
222.497749E-3
221.942711E-3
221.228027E-3
222.461700E-3
220.938492E-3
222.921753E-3
222.276878E-3
222.191620E-3
223.005867E-3
221.733284E-3
223.217010E-3
223.254776E-3
222.564125E-3
223.840141E-3
222.554398E-3
223.935127E-3
223.484802E-3
223.217010E-3
224.592018E-3
222.954369E-3
224.430656E-3
224.250412E-3
223.661041E-3
224.381447E-3
223.231888E-3
225.004005E-3
224.454689E-3
223.703384E-3
224.680138E-3
223.090553E-3
225.060081E-3
225.225449E-3
224.275017E-3
225.320435E-3
223.797226E-3
225.583649E-3
225.228882E-3
224.451256E-3
225.395393E-3
223.895073E-3
225.666046E-3
225.337601E-3
224.535370E-3
225.528145E-3
224.283600E-3
226.137543E-3
225.895500E-3
224.905586E-3
225.945282E-3
224.582291E-3
226.305199E-3
225.994492E-3
225.200844E-3
226.433372E-3
225.202560E-3
227.161789E-3
226.737213E-3
225.664902E-3
226.992989E-3
225.785637E-3
227.577782E-3
227.037048E-3
226.217079E-3
226.487160E-3
224.745941E-3
225.415421E-3
224.095345E-3
221.832848E-3
221.779060E-3
219.510269E-3
220.601463E-3
220.210075E-3
218.985558E-3
219.909668E-3
218.969536E-3
220.939064E-3
221.367645E-3
220.602608E-3
221.611977E-3
220.509911E-3
222.043419E-3
221.930122E-3
220.668411E-3
221.632004E-3
220.636940E-3
221.737289E-3
221.738434E-3
220.684433E-3
221.837425E-3
220.961952E-3
222.554970E-3
222.814751E-3
221.936417E-3
223.066521E-3
221.792221E-3
223.022461E-3
222.762680E-3
221.803665E-3
222.688293E-3
221.451759E-3
222.641945E-3
222.643661E-3
221.588516E-3
222.351837E-3
221.442604E-3
222.832489E-3
223.042488E-3
222.238541E-3
223.348045E-3
222.313499E-3
223.690224E-3
223.729706E-3
222.872543E-3
224.063873E-3
222.761536E-3
224.232101E-3
224.019814E-3
223.224449E-3
223.839569E-3
223.207283E-3
224.301338E-3
224.558830E-3
223.651314E-3
224.404335E-3
223.624420E-3
224.660110E-3
225.201988E-3
224.149704E-3
225.242043E-3
223.671341E-3
225.023460E-3
224.969673E-3
224.126816E-3
225.723267E-3
224.479294E-3
225.535011E-3
225.357056E-3
224.721909E-3
225.521851E-3
224.633789E-3
225.680351E-3
225.810242E-3
224.437523E-3
225.406837E-3
224.422073E-3
225.623703E-3
225.878334E-3
225.127602E-3
226.238823E-3
225.054359E-3
226.518059E-3
226.881409E-3
225.514412E-3
227.047920E-3
225.960732E-3
226.697159E-3
227.231026E-3
226.079178E-3
227.382088E-3
226.386452E-3
226.956940E-3
227.087975E-3
224.963379E-3
224.859238E-3
222.769547E-3
222.553253E-3
221.708679E-3
219.771194E-3
220.054436E-3
218.804169E-3
219.820404E-3
220.529938E-3
219.653320E-3
221.226883E-3
220.039558E-3
221.124458E-3
221.577644E-3
220.678139E-3
222.229385E-3
221.060371E-3
222.055435E-3
222.165871E-3
220.840073E-3
222.744370E-3
220.992279E-3
221.698380E-3
221.968460E-3
221.137047E-3
223.203850E-3
221.843147E-3
222.726631E-3
223.321724E-3
221.591377E-3
224.216080E-3
222.471428E-3
222.720909E-3
223.208427E-3
221.896362E-3
223.511696E-3
222.180176E-3
222.592163E-3
223.230171E-3
222.152710E-3
223.940849E-3
222.604752E-3
223.227310E-3
223.642159E-3
222.831917E-3
224.723053E-3
223.232460E-3
223.554611E-3
224.189186E-3
222.936058E-3
225.259209E-3
223.726273E-3
224.164581E-3
224.963379E-3
223.781776E-3
226.054573E-3
224.589729E-3
224.510193E-3
225.303268E-3
224.493599E-3
226.786995E-3
224.740219E-3
225.024033E-3
225.715828E-3
224.795723E-3
226.895142E-3
225.049210E-3
225.331306E-3
225.973320E-3
224.981117E-3
226.949501E-3
225.120735E-3
225.320435E-3
226.251411E-3
225.266075E-3
227.568054E-3
225.613976E-3
225.912094E-3
226.536369E-3
225.649452E-3
227.568054E-3
225.603676E-3
225.838852E-3
227.055931E-3
226.052284E-3
227.759743E-3
225.914383E-3
226.143837E-3
226.941490E-3
225.640869E-3
227.776909E-3
226.494598E-3
226.671982E-3
227.751732E-3
227.301979E-3
229.058075E-3
227.389526E-3
227.279091E-3
228.342247E-3
226.008797E-3
227.704239E-3
225.200272E-3
223.832130E-3
223.330307E-3
221.375084E-3
221.910667E-3
219.705963E-3
219.335175E-3
220.124245E-3
218.242264E-3
220.630074E-3
219.856453E-3
220.428658E-3
221.447754E-3
220.913887E-3
222.324944E-3
221.359634E-3
221.440887E-3
222.338676E-3
220.861816E-3
222.446823E-3
220.977974E-3
221.102142E-3
221.688652E-3
221.102142E-3
222.555542E-3
221.563339E-3
221.622849E-3
222.858238E-3
221.811676E-3
223.673630E-3
222.472000E-3
222.794724E-3
223.207283E-3
222.078896E-3
223.503685E-3
222.384453E-3
222.066879E-3
222.964668E-3
221.055794E-3
223.539734E-3
222.282600E-3
222.418785E-3
223.519135E-3
222.742653E-3
224.491310E-3
223.144913E-3
222.995567E-3
224.222946E-3
222.079468E-3
224.443817E-3
223.722839E-3
223.630142E-3
224.565697E-3
223.433304E-3
225.436020E-3
224.264717E-3
224.131393E-3
225.099564E-3
224.149132E-3
225.819397E-3
224.975967E-3
224.667549E-3
225.466919E-3
224.263573E-3
225.807953E-3
225.245476E-3
225.070381E-3
225.906372E-3
224.626350E-3
226.140404E-3
225.351906E-3
225.021172E-3
226.007652E-3
224.899292E-3
226.524925E-3
225.503540E-3
225.525856E-3
226.796150E-3
225.551033E-3
226.856232E-3
225.914955E-3
225.656319E-3
226.812744E-3
225.543022E-3
227.099419E-3
226.348114E-3
225.867462E-3
227.026176E-3
225.959015E-3
227.595520E-3
226.621628E-3
226.510620E-3
227.312279E-3
226.314926E-3
228.008080E-3
227.317429E-3
226.863670E-3
228.112793E-3
226.287460E-3
227.696228E-3
226.702309E-3
225.434875E-3
225.379372E-3
222.173882E-3
222.624779E-3
221.089554E-3
219.834709E-3
220.629501E-3
219.156647E-3
220.819473E-3
220.501328E-3
220.337105E-3
221.456909E-3
220.460701E-3
222.225952E-3
221.933556E-3
221.613693E-3
222.851944E-3
221.460915E-3
222.613907E-3
222.252274E-3
221.291542E-3
222.304916E-3
220.856667E-3
222.663689E-3
222.489166E-3
222.050285E-3
223.123169E-3
221.979332E-3
223.737144E-3
223.511124E-3
222.528648E-3
223.320580E-3
221.441460E-3
223.164368E-3
222.877693E-3
222.177315E-3
222.843933E-3
220.944786E-3
223.042488E-3
222.899437E-3
222.175026E-3
223.241043E-3
221.741295E-3
223.758316E-3
223.656464E-3
223.084259E-3
223.903656E-3
222.448540E-3
224.134254E-3
224.131393E-3
223.093414E-3
224.283600E-3
222.655678E-3
224.902725E-3
224.720764E-3
223.605537E-3
224.751091E-3
223.352051E-3
225.298691E-3
225.081825E-3
224.302483E-3
225.313568E-3
223.789215E-3
225.657463E-3
225.517273E-3
224.464989E-3
225.424004E-3
224.165726E-3
225.880051E-3
225.628853E-3
224.421501E-3
225.441742E-3
224.328804E-3
226.004219E-3
225.825119E-3
224.761963E-3
225.901794E-3
224.596024E-3
226.218796E-3
226.218224E-3
225.186539E-3
226.217651E-3
225.138474E-3
226.770401E-3
226.847649E-3
225.479507E-3
226.677132E-3
225.999641E-3
227.178383E-3
227.312851E-3
226.421356E-3
227.386665E-3
226.346970E-3
227.259064E-3
226.564407E-3
224.772835E-3
224.528503E-3
222.080040E-3
222.061157E-3
221.012306E-3
219.406128E-3
220.087624E-3
218.913460E-3
220.274162E-3
220.545959E-3
219.685364E-3
221.005440E-3
219.988632E-3
221.249199E-3
221.932983E-3
220.833206E-3
222.028542E-3
220.523643E-3
221.729851E-3
221.828842E-3
221.001434E-3
221.817398E-3
220.278740E-3
221.376801E-3
221.764755E-3
221.024323E-3
222.545242E-3
221.606255E-3
222.930336E-3
223.421860E-3
221.512985E-3
223.227310E-3
222.185898E-3
222.944641E-3
222.790146E-3
221.722984E-3
222.621346E-3
221.474648E-3
222.592735E-3
222.922897E-3
222.094917E-3
223.053360E-3
221.954727E-3
223.239899E-3
223.716545E-3
222.797012E-3
224.098778E-3
222.863960E-3
224.194908E-3
224.434090E-3
223.247337E-3
224.576569E-3
223.356056E-3
224.407768E-3
224.598885E-3
223.373795E-3
224.432945E-3
223.833847E-3
224.800301E-3
225.143051E-3
222.755241E-3
224.815750E-3
224.273300E-3
225.453186E-3
225.644875E-3
224.320221E-3
225.692940E-3
224.490166E-3
225.378227E-3
225.542450E-3
224.639511E-3
226.309204E-3
224.997711E-3
225.756454E-3
225.554466E-3
223.804665E-3
226.395035E-3
225.119591E-3
225.774765E-3
226.532936E-3
225.133324E-3
227.129745E-3
225.704384E-3
226.198196E-3
226.690292E-3
225.400543E-3
227.079964E-3
225.746727E-3
226.278877E-3
226.959229E-3
225.913811E-3
227.969170E-3
226.588440E-3
227.278519E-3
227.764893E-3
226.001930E-3
228.154564E-3
226.831627E-3
226.858521E-3
226.816750E-3
224.162292E-3
224.755669E-3
222.011375E-3
221.202278E-3
220.939064E-3
219.361496E-3
221.613121E-3
219.413567E-3
219.549751E-3
220.659828E-3
219.807243E-3
222.297478E-3
220.753670E-3
221.174240E-3
221.877480E-3
221.086693E-3
222.818756E-3
220.932770E-3
221.046066E-3
221.929550E-3
220.222092E-3
222.387886E-3
220.645523E-3
220.692444E-3
221.987343E-3
221.171379E-3
223.348045E-3
221.762466E-3
222.121239E-3
223.254776E-3
222.312927E-3
224.165726E-3
221.981621E-3
222.152710E-3
223.020172E-3
221.915245E-3
223.587799E-3
221.705818E-3
222.068024E-3
222.959518E-3
221.856880E-3
223.873329E-3
221.912384E-3
222.178459E-3
223.484802E-3
222.619057E-3
224.370003E-3
222.905159E-3
223.087120E-3
224.018097E-3
223.397255E-3
224.688721E-3
223.244476E-3
223.439598E-3
224.760818E-3
223.940849E-3
225.448608E-3
223.888779E-3
223.864174E-3
224.820328E-3
224.060440E-3
225.711250E-3
224.324799E-3
224.117661E-3
225.276947E-3
224.356842E-3
225.547028E-3
224.335670E-3
224.409485E-3
225.343323E-3
224.589157E-3
225.993347E-3
224.927902E-3
224.606323E-3
225.529289E-3
224.704742E-3
226.229668E-3
225.164223E-3
225.379944E-3
225.853729E-3
224.110222E-3
226.389885E-3
225.532150E-3
225.347328E-3
226.055145E-3
225.208855E-3
226.826477E-3
225.548172E-3
225.860596E-3
226.547241E-3
225.815392E-3
227.752876E-3
226.484871E-3
226.235390E-3
226.737785E-3
225.997353E-3
227.472496E-3
226.035118E-3
225.422287E-3
224.935341E-3
222.578430E-3
222.818756E-3
220.809174E-3
220.087051E-3
220.280457E-3
218.831635E-3
220.309067E-3
219.395256E-3
219.636726E-3
220.775986E-3
220.096779E-3
221.360207E-3
220.786285E-3
220.674706E-3
221.759605E-3
219.351768E-3
221.780205E-3
220.951653E-3
220.304489E-3
221.046066E-3
220.246696E-3
221.968460E-3
220.685577E-3
220.962524E-3
222.610474E-3
221.950722E-3
223.320580E-3
222.125816E-3
221.977615E-3
222.896576E-3
221.907234E-3
223.077393E-3
221.838570E-3
221.319008E-3
222.263718E-3
221.117592E-3
222.615051E-3
221.788216E-3
221.782494E-3
222.702599E-3
220.038986E-3
222.671700E-3
222.461700E-3
222.359276E-3
223.546028E-3
222.172165E-3
224.090195E-3
223.399544E-3
222.866249E-3
224.072456E-3
222.670555E-3
224.406052E-3
223.724556E-3
223.483658E-3
224.519348E-3
223.172951E-3
224.737930E-3
224.408340E-3
223.677635E-3
224.901581E-3
223.615265E-3
225.247765E-3
224.824905E-3
224.113655E-3
225.372505E-3
223.943138E-3
225.518990E-3
224.898720E-3
224.435234E-3
225.263786E-3
223.863029E-3
225.274658E-3
224.838638E-3
224.394035E-3
225.407982E-3
223.984909E-3
225.212860E-3
225.028610E-3
224.340820E-3
225.413704E-3
224.185181E-3
225.782776E-3
225.629997E-3
225.126457E-3
225.930977E-3
224.471855E-3
226.361275E-3
226.302338E-3
225.343323E-3
226.226234E-3
224.395180E-3
225.940704E-3
225.155067E-3
223.470497E-3
222.894859E-3
219.966888E-3
220.919609E-3
219.501686E-3
218.467140E-3
218.872261E-3
217.159653E-3
219.286537E-3
219.470215E-3
218.782997E-3
219.951439E-3
218.881989E-3
220.890427E-3
221.026611E-3
219.883347E-3
220.763397E-3
219.122887E-3
220.916176E-3
220.798874E-3
219.931412E-3
220.536232E-3
219.341469E-3
221.352196E-3
221.129036E-3
220.525932E-3
221.538734E-3
220.505333E-3
222.538948E-3
222.443390E-3
221.336746E-3
221.944427E-3
220.718765E-3
222.314644E-3
222.205925E-3
220.627213E-3
221.658897E-3
220.565987E-3
222.215652E-3
221.984482E-3
221.047783E-3
222.070885E-3
221.254349E-3
222.455978E-3
222.758675E-3
221.578789E-3
222.838783E-3
221.897507E-3
223.277664E-3
223.447037E-3
222.324371E-3
223.481941E-3
222.549820E-3
223.708534E-3
223.940277E-3
222.770691E-3
223.961449E-3
222.656250E-3
224.290466E-3
224.108505E-3
223.101425E-3
224.296761E-3
223.174095E-3
224.227524E-3
224.614906E-3
223.503113E-3
224.779701E-3
223.413277E-3
224.666977E-3
224.633217E-3
223.896790E-3
224.951935E-3
223.756027E-3
225.165939E-3
224.906158E-3
224.155426E-3
225.228882E-3
223.975754E-3
225.145340E-3
224.967957E-3
224.291611E-3
225.519562E-3
224.442673E-3
225.273514E-3
225.668907E-3
224.568558E-3
226.066589E-3
224.726486E-3
225.789070E-3
226.282883E-3
225.550461E-3
226.638794E-3
225.377655E-3
226.469421E-3
226.575851E-3
225.082970E-3
225.671196E-3
223.698235E-3
223.554039E-3
222.413063E-3
220.545387E-3
220.586014E-3
218.494034E-3
219.126320E-3
219.253349E-3
218.309212E-3
219.695091E-3
218.763542E-3
219.920540E-3
219.989777E-3
219.181824E-3
220.703888E-3
219.493675E-3
220.475006E-3
221.095848E-3
219.812393E-3
220.487022E-3
219.326019E-3
220.104218E-3
220.431519E-3
218.394470E-3
220.262146E-3
219.346619E-3
220.983696E-3
221.787643E-3
220.828056E-3
222.400475E-3
221.149063E-3
222.001076E-3
222.070313E-3
219.993210E-3
221.970749E-3
220.475006E-3
221.397972E-3
221.693802E-3
220.619774E-3
222.473717E-3
220.805168E-3
221.739578E-3
222.509766E-3
221.033478E-3
222.893143E-3
221.581078E-3
222.187614E-3
222.645378E-3
221.006012E-3
223.361206E-3
221.988487E-3
222.514343E-3
223.065948E-3
222.270012E-3
224.200058E-3
222.504616E-3
223.261642E-3
223.523140E-3
221.628571E-3
224.167442E-3
222.821617E-3
223.686790E-3
224.036980E-3
222.900009E-3
224.829483E-3
223.449898E-3
223.674202E-3
224.581718E-3
223.476791E-3
225.228310E-3
223.642731E-3
