Notes :


2023-11-06 ¿ÀÈÄ 11:14:38
Volts
Ch : LED 2,
358.863258E-3
359.698105E-3
360.734940E-3
361.419868E-3
362.052727E-3
362.394905E-3
362.557983E-3
362.513924E-3
362.053871E-3
361.557198E-3
361.039925E-3
360.478592E-3
360.019112E-3
359.338188E-3
359.112167E-3
358.685875E-3
358.354568E-3
358.263588E-3
358.000946E-3
357.925987E-3
357.911110E-3
357.766342E-3
357.787514E-3
357.475662E-3
357.136917E-3
357.180977E-3
357.044792E-3
357.094574E-3
356.961250E-3
357.150078E-3
357.253647E-3
357.381248E-3
357.732582E-3
357.878494E-3
357.923698E-3
357.983780E-3
357.847023E-3
358.006668E-3
357.806396E-3
357.762337E-3
357.635880E-3
357.386398E-3
357.250786E-3
356.970406E-3
356.817627E-3
356.593323E-3
356.410217E-3
356.428528E-3
356.208801E-3
356.228256E-3
356.136131E-3
355.939865E-3
355.985641E-3
355.724144E-3
355.602837E-3
355.590248E-3
355.389404E-3
355.532455E-3
355.533028E-3
355.497551E-3
355.460358E-3
355.245209E-3
355.276680E-3
355.216026E-3
355.093002E-3
355.067825E-3
354.877853E-3
355.011749E-3
354.965401E-3
354.909897E-3
354.845238E-3
354.591751E-3
354.573441E-3
354.378319E-3
354.329109E-3
354.345703E-3
354.118538E-3
354.308510E-3
354.119682E-3
354.097366E-3
354.144287E-3
354.104805E-3
354.210091E-3
353.988647E-3
353.857613E-3
353.820419E-3
353.661346E-3
353.728294E-3
353.668785E-3
353.466225E-3
353.293991E-3
353.003311E-3
352.975845E-3
352.895164E-3
352.877426E-3
353.263092E-3
353.617859E-3
354.481888E-3
355.160522E-3
356.019402E-3
357.049942E-3
357.805252E-3
358.618927E-3
359.207726E-3
359.536743E-3
359.617996E-3
359.275818E-3
359.124756E-3
358.587456E-3
358.087921E-3
357.664490E-3
356.966972E-3
356.612778E-3
356.258583E-3
356.019402E-3
355.926132E-3
355.673218E-3
355.772781E-3
355.648041E-3
355.783081E-3
355.815697E-3
355.727577E-3
355.673218E-3
355.538750E-3
355.313873E-3
355.403709E-3
355.193710E-3
355.222893E-3
355.126190E-3
355.260658E-3
355.547905E-3
355.651474E-3
355.907822E-3
355.918694E-3
355.909538E-3
356.082344E-3
356.155014E-3
356.205368E-3
356.178474E-3
356.026840E-3
355.904388E-3
355.736732E-3
355.565071E-3
355.341339E-3
355.119896E-3
355.080414E-3
354.916763E-3
354.793739E-3
354.771996E-3
354.520226E-3
354.454994E-3
354.239845E-3
354.203796E-3
354.216385E-3
354.058456E-3
354.076767E-3
353.816414E-3
353.872490E-3
353.806686E-3
353.668213E-3
353.742599E-3
353.557205E-3
353.614426E-3
353.572083E-3
353.489685E-3
353.450203E-3
353.310013E-3
353.336334E-3
353.277397E-3
353.177261E-3
353.231621E-3
353.148079E-3
353.161812E-3
352.931213E-3
352.908325E-3
352.945518E-3
352.827072E-3
352.864838E-3
352.833939E-3
352.712631E-3
352.808762E-3
352.753258E-3
352.827644E-3
352.767563E-3
352.565002E-3
352.576447E-3
352.335548E-3
352.293777E-3
352.234268E-3
352.135849E-3
352.157593E-3
352.035141E-3
352.062035E-3
352.086639E-3
352.306938E-3
352.931213E-3
353.672218E-3
354.620361E-3
355.554199E-3
356.458855E-3
357.488251E-3
358.215523E-3
358.699608E-3
358.855247E-3
358.725357E-3
358.500481E-3
357.891083E-3
357.453346E-3
357.030487E-3
356.567001E-3
356.255150E-3
355.788231E-3
355.496979E-3
355.238914E-3
355.066109E-3
355.129623E-3
354.986572E-3
355.155945E-3
355.257225E-3
355.035210E-3
355.075264E-3
354.741096E-3
354.587173E-3
354.435539E-3
354.299355E-3
354.307938E-3
354.299927E-3
354.420090E-3
354.571152E-3
354.734230E-3
355.139923E-3
355.157089E-3
355.233192E-3
355.396271E-3
355.254936E-3
355.440903E-3
355.298996E-3
355.256653E-3
355.173683E-3
354.998016E-3
354.905891E-3
354.572868E-3
354.392624E-3
354.224396E-3
354.025269E-3
354.148865E-3
354.019547E-3
353.960037E-3
353.979492E-3
353.746605E-3
353.802681E-3
353.655624E-3
353.692818E-3
353.675652E-3
353.538895E-3
353.508568E-3
353.248215E-3
353.275108E-3
353.323174E-3
353.238487E-3
353.286552E-3
353.042793E-3
353.085136E-3
353.093719E-3
353.045654E-3
353.051376E-3
352.931786E-3
352.947807E-3
352.975845E-3
352.819633E-3
352.812767E-3
352.784729E-3
352.755547E-3
352.863121E-3
352.683449E-3
352.720642E-3
352.634811E-3
352.537537E-3
352.590179E-3
352.601624E-3
352.611923E-3
352.487183E-3
352.446556E-3
352.498627E-3
352.287483E-3
352.303505E-3
352.157593E-3
352.010536E-3
351.917267E-3
351.792526E-3
351.865196E-3
351.806831E-3
351.780510E-3
351.908684E-3
352.135277E-3
352.845955E-3
353.664207E-3
354.690742E-3
355.757904E-3
356.512642E-3
357.529449E-3
358.121109E-3
358.474731E-3
358.808327E-3
358.473015E-3
358.222961E-3
357.577515E-3
357.190132E-3
356.924629E-3
356.386185E-3
356.243134E-3
355.938148E-3
355.718994E-3
355.688667E-3
355.329895E-3
355.467224E-3
355.407715E-3
355.459785E-3
355.567932E-3
355.404282E-3
355.301857E-3
355.121613E-3
354.931068E-3
355.034065E-3
354.865265E-3
355.126190E-3
355.209732E-3
355.292130E-3
355.527878E-3
355.557632E-3
355.751610E-3
355.836296E-3
355.894661E-3
355.973053E-3
355.938148E-3
355.981636E-3
355.848312E-3
355.777931E-3
355.684090E-3
355.371666E-3
355.327606E-3
355.137634E-3
354.993439E-3
355.006599E-3
354.759407E-3
354.827499E-3
354.715919E-3
354.556847E-3
354.504776E-3
354.389763E-3
354.378891E-3
354.242134E-3
354.098511E-3
354.107094E-3
354.028130E-3
354.106522E-3
354.118538E-3
353.992653E-3
354.028702E-3
353.942299E-3
353.891945E-3
353.923416E-3
353.887939E-3
354.027557E-3
353.998375E-3
353.972054E-3
353.922844E-3
353.712845E-3
353.930855E-3
353.807831E-3
353.830719E-3
353.742599E-3
353.585243E-3
353.706551E-3
353.600121E-3
353.640175E-3
353.597260E-3
353.589249E-3
353.631592E-3
353.530312E-3
353.549767E-3
353.469086E-3
353.276253E-3
353.280830E-3
353.086281E-3
353.136635E-3
353.187561E-3
353.049088E-3
353.098869E-3
353.084564E-3
353.332901E-3
353.776360E-3
354.357147E-3
355.337334E-3
356.143570E-3
357.150078E-3
358.131981E-3
358.879280E-3
359.511566E-3
359.636307E-3
359.599686E-3
359.330177E-3
358.827209E-3
358.548546E-3
357.998657E-3
357.594681E-3
357.292557E-3
356.964684E-3
356.870842E-3
356.528091E-3
356.380463E-3
356.366158E-3
356.310081E-3
356.469727E-3
356.438255E-3
356.500626E-3
356.359863E-3
356.109810E-3
356.006813E-3
355.722427E-3
355.708694E-3
355.826569E-3
355.815125E-3
356.057167E-3
356.090355E-3
356.316376E-3
356.594467E-3
356.584740E-3
356.734085E-3
356.770706E-3
356.967545E-3
356.922913E-3
356.641388E-3
356.623650E-3
356.381035E-3
356.232834E-3
356.002808E-3
355.757332E-3
355.686378E-3
355.321312E-3
355.191994E-3
355.082130E-3
354.848671E-3
354.832649E-3
354.735947E-3
354.742241E-3
354.620934E-3
354.341125E-3
354.146004E-3
354.107666E-3
354.051590E-3
354.113960E-3
353.968620E-3
353.961182E-3
353.822136E-3
353.785515E-3
353.816986E-3
353.732872E-3
353.754044E-3
353.503418E-3
353.489113E-3
353.463364E-3
353.390694E-3
353.437614E-3
353.339195E-3
353.292274E-3
353.289986E-3
353.216743E-3
353.207016E-3
353.165245E-3
353.046799E-3
353.101730E-3
352.954102E-3
353.011894E-3
352.902603E-3
352.859116E-3
352.802467E-3
352.718353E-3
352.741241E-3
352.515221E-3
352.469444E-3
352.492905E-3
352.339554E-3
352.227974E-3
351.997948E-3
351.989365E-3
352.020836E-3
351.976776E-3
352.080345E-3
352.107811E-3
352.245712E-3
352.537537E-3
353.196144E-3
354.337692E-3
355.253792E-3
356.378174E-3
357.414436E-3
358.220100E-3
358.871269E-3
359.155083E-3
359.093857E-3
358.992577E-3
358.549118E-3
358.175468E-3
357.768059E-3
357.358360E-3
357.068825E-3
356.567001E-3
356.464005E-3
356.108093E-3
356.098938E-3
356.216812E-3
356.131554E-3
356.325531E-3
356.344414E-3
356.443405E-3
356.537247E-3
356.302071E-3
356.232834E-3
355.795097E-3
355.595398E-3
355.622292E-3
355.447197E-3
355.575371E-3
355.690384E-3
355.725288E-3
355.847740E-3
355.769348E-3
355.981636E-3
356.001663E-3
356.052017E-3
356.183624E-3
356.085777E-3
356.099510E-3
355.987930E-3
355.751038E-3
355.648613E-3
355.279541E-3
355.144501E-3
355.105591E-3
354.974556E-3
354.930496E-3
354.687309E-3
354.571724E-3
354.456139E-3
354.307938E-3
354.388046E-3
354.267311E-3
354.374313E-3
354.246712E-3
354.159164E-3
354.089928E-3
353.893089E-3
353.984642E-3
353.865051E-3
353.838158E-3
353.883934E-3
353.813553E-3
353.837013E-3
353.750038E-3
353.657913E-3
353.589249E-3
353.479958E-3
353.600121E-3
353.557777E-3
353.454781E-3
353.539467E-3
353.431892E-3
353.372383E-3
353.333473E-3
353.175545E-3
353.279114E-3
353.083992E-3
353.116608E-3
353.065681E-3
353.002739E-3
352.999306E-3
352.886009E-3
352.895737E-3
352.955818E-3
352.812195E-3
352.773285E-3
352.737236E-3
352.741814E-3
352.702332E-3
352.576447E-3
352.680016E-3
352.502632E-3
352.596474E-3
352.486038E-3
352.346420E-3
352.372742E-3
352.250862E-3
352.265167E-3
352.385330E-3
352.357864E-3
352.730942E-3
353.086281E-3
353.888512E-3
354.861259E-3
355.874634E-3
357.015038E-3
357.964325E-3
358.786583E-3
359.310150E-3
359.386253E-3
359.334755E-3
358.996010E-3
358.605766E-3
358.259010E-3
357.805824E-3
357.481956E-3
357.018471E-3
356.792450E-3
356.569290E-3
356.357002E-3
356.490898E-3
356.430817E-3
356.528664E-3
356.726646E-3
356.742668E-3
356.814766E-3
356.717491E-3
356.548119E-3
356.431389E-3
356.154442E-3
356.126976E-3
355.959892E-3
355.933571E-3
355.932426E-3
355.975914E-3
356.163597E-3
356.198502E-3
356.442833E-3
356.455994E-3
356.373596E-3
356.568718E-3
356.529236E-3
356.530952E-3
356.488037E-3
356.192207E-3
356.053162E-3
355.835152E-3
355.773926E-3
355.658340E-3
355.514145E-3
355.549622E-3
355.270386E-3
355.236626E-3
355.107307E-3
355.013466E-3
355.098724E-3
354.925346E-3
354.789734E-3
354.832649E-3
354.783440E-3
354.854965E-3
354.767990E-3
354.691887E-3
354.774857E-3
354.614067E-3
354.616928E-3
354.501343E-3
354.595757E-3
354.635811E-3
354.645538E-3
354.668999E-3
354.423523E-3
354.376602E-3
354.290771E-3
354.207802E-3
354.240990E-3
354.170036E-3
354.174042E-3
354.091072E-3
353.853607E-3
353.931427E-3
353.824425E-3
353.984070E-3
353.844452E-3
353.633881E-3
353.650475E-3
353.521156E-3
353.513718E-3
353.507423E-3
353.446198E-3
353.410721E-3
353.239059E-3
353.165245E-3
353.126907E-3
352.950668E-3
352.914619E-3
352.795029E-3
352.651978E-3
352.623367E-3
352.508926E-3
352.528381E-3
352.487183E-3
352.556419E-3
352.795601E-3
353.082275E-3
353.783226E-3
354.625511E-3
355.608559E-3
356.639099E-3
357.641602E-3
358.463860E-3
358.893013E-3
359.123039E-3
359.151077E-3
358.769417E-3
358.622932E-3
358.093643E-3
357.628441E-3
357.457924E-3
356.871414E-3
356.554985E-3
356.199646E-3
355.982208E-3
355.926704E-3
355.875778E-3
356.011391E-3
356.055450E-3
355.948448E-3
356.085777E-3
355.912399E-3
355.789948E-3
355.553055E-3
355.197716E-3
355.070114E-3
354.909325E-3
355.010605E-3
355.187416E-3
355.256653E-3
355.390549E-3
355.331612E-3
355.432892E-3
355.467224E-3
355.530167E-3
355.664635E-3
355.527878E-3
355.656624E-3
355.406570E-3
355.239487E-3
355.028915E-3
354.697037E-3
354.623222E-3
354.362869E-3
354.260445E-3
354.213524E-3
354.042435E-3
353.879929E-3
353.687096E-3
353.592110E-3
353.564644E-3
353.347778E-3
353.393555E-3
353.377533E-3
353.238487E-3
353.268242E-3
353.055382E-3
353.066254E-3
353.082275E-3
353.020477E-3
353.102303E-3
352.937508E-3
353.034210E-3
352.853966E-3
352.689743E-3
352.692604E-3
352.613068E-3
352.718353E-3
352.685738E-3
352.494049E-3
352.494049E-3
352.446556E-3
352.384758E-3
352.332687E-3
352.298927E-3
352.300072E-3
352.191353E-3
352.350426E-3
352.312660E-3
352.311516E-3
352.435684E-3
352.240562E-3
352.301216E-3
352.208519E-3
352.035141E-3
352.106667E-3
352.016258E-3
351.988792E-3
351.926994E-3
351.813126E-3
351.864624E-3
351.655769E-3
351.682663E-3
351.540756E-3
351.428032E-3
351.395416E-3
351.228333E-3
351.223755E-3
351.073265E-3
351.117325E-3
351.280975E-3
351.359367E-3
351.818275E-3
352.448273E-3
353.275108E-3
354.232407E-3
355.171394E-3
356.131554E-3
357.072258E-3
357.649040E-3
358.020973E-3
357.925987E-3
357.767487E-3
357.526588E-3
357.089996E-3
356.675148E-3
356.083488E-3
355.805969E-3
355.592537E-3
355.199432E-3
355.208015E-3
354.927063E-3
354.944229E-3
355.050087E-3
355.071831E-3
355.395126E-3
355.302429E-3
355.276108E-3
355.169678E-3
354.904175E-3
354.793739E-3
354.441261E-3
354.292488E-3
354.298210E-3
354.159737E-3
354.255867E-3
354.234695E-3
354.383469E-3
354.363441E-3
354.351425E-3
354.583168E-3
354.516220E-3
354.558563E-3
354.450417E-3
354.418373E-3
354.533386E-3
354.222107E-3
354.052734E-3
353.997803E-3
353.697968E-3
353.609276E-3
353.415871E-3
353.351784E-3
353.261375E-3
353.060532E-3
353.110313E-3
353.010750E-3
352.932358E-3
352.868271E-3
352.684593E-3
352.772141E-3
352.612495E-3
352.578163E-3
352.612495E-3
352.498055E-3
352.490616E-3
352.391052E-3
352.484322E-3
352.483177E-3
352.414513E-3
352.434540E-3
352.322960E-3
352.339554E-3
352.323532E-3
352.162743E-3
352.265739E-3
352.173615E-3
352.189636E-3
352.178192E-3
352.025986E-3
352.121544E-3
351.928711E-3
351.884079E-3
351.881218E-3
351.789665E-3
351.774216E-3
351.681519E-3
351.670074E-3
351.733589E-3
351.612854E-3
351.609421E-3
351.490974E-3
351.472092E-3
351.508141E-3
351.503563E-3
351.695824E-3
351.511574E-3
351.516724E-3
351.472092E-3
351.365089E-3
351.424026E-3
351.384544E-3
351.377678E-3
351.255798E-3
350.974274E-3
351.034355E-3
351.016045E-3
350.981712E-3
351.028061E-3
350.971985E-3
351.083565E-3
351.344490E-3
351.913261E-3
352.856827E-3
353.769493E-3
354.923058E-3
355.884933E-3
356.701469E-3
357.469940E-3
357.681656E-3
357.737732E-3
357.477951E-3
357.009888E-3
356.727791E-3
356.231689E-3
355.914688E-3
355.649757E-3
355.296135E-3
355.076981E-3
354.721642E-3
354.668999E-3
354.568863E-3
354.719925E-3
354.875565E-3
354.825211E-3
354.957390E-3
354.933929E-3
354.904175E-3
354.878426E-3
354.505920E-3
354.489326E-3
354.272461E-3
354.116821E-3
354.225540E-3
354.140854E-3
354.416084E-3
354.401207E-3
354.485321E-3
354.766846E-3
354.647827E-3
354.839516E-3
354.880142E-3
354.784584E-3
354.864693E-3
354.695892E-3
354.594040E-3
354.331970E-3
354.123116E-3
354.137993E-3
353.864479E-3
353.866196E-3
353.775215E-3
353.729439E-3
353.597260E-3
353.348351E-3
353.449059E-3
353.316879E-3
353.199577E-3
353.231621E-3
353.101730E-3
353.085709E-3
353.014755E-3
352.860260E-3
352.981567E-3
352.926636E-3
352.961540E-3
352.940941E-3
352.839661E-3
352.829933E-3
352.681732E-3
352.766418E-3
352.763557E-3
352.628517E-3
352.672577E-3
352.522087E-3
352.719498E-3
352.651405E-3
352.515793E-3
352.626801E-3
352.582169E-3
352.548981E-3
352.435684E-3
352.330399E-3
352.376175E-3
352.440262E-3
352.264595E-3
352.241707E-3
352.044868E-3
352.169609E-3
351.988220E-3
351.992226E-3
351.975060E-3
351.797104E-3
351.942444E-3
351.838875E-3
351.784515E-3
351.703262E-3
351.522446E-3
351.502991E-3
351.303864E-3
351.398849E-3
351.333618E-3
351.250648E-3
351.261520E-3
351.198006E-3
351.383972E-3
351.820564E-3
352.448845E-3
353.419876E-3
354.378891E-3
