Notes :


2023-11-04 ¿ÀÈÄ 9:54:34
Volts
Ch : LED 2,
576.361084E-3
576.196861E-3
576.051521E-3
575.962830E-3
575.631523E-3
575.509644E-3
575.222397E-3
575.005531E-3
574.928284E-3
574.822998E-3
574.718857E-3
574.610710E-3
574.625015E-3
574.575233E-3
574.420166E-3
574.428177E-3
574.214745E-3
574.140358E-3
574.076271E-3
573.671722E-3
573.631668E-3
573.487473E-3
573.423958E-3
573.310661E-3
573.108101E-3
572.882080E-3
572.595406E-3
572.423744E-3
572.364807E-3
572.243500E-3
572.123337E-3
571.934509E-3
571.811485E-3
571.753693E-3
571.474457E-3
571.424675E-3
570.996666E-3
570.546341E-3
570.326042E-3
569.987297E-3
569.654274E-3
569.415665E-3
569.223976E-3
569.092369E-3
569.027710E-3
569.355583E-3
570.693398E-3
572.968483E-3
576.327324E-3
580.105591E-3
584.282684E-3
588.331604E-3
591.747093E-3
594.202995E-3
595.317650E-3
595.472145E-3
594.456482E-3
592.817688E-3
590.788078E-3
588.545609E-3
586.505127E-3
584.746742E-3
582.851601E-3
581.763268E-3
580.745316E-3
580.116463E-3
579.719353E-3
579.413223E-3
579.438400E-3
579.424667E-3
579.349136E-3
578.946877E-3
578.319740E-3
577.444267E-3
576.838875E-3
576.524734E-3
576.446342E-3
576.537323E-3
577.039719E-3
577.369881E-3
577.840233E-3
578.297424E-3
578.621864E-3
578.726578E-3
578.501701E-3
578.322601E-3
577.844810E-3
577.290916E-3
576.802826E-3
575.647545E-3
574.970055E-3
574.102020E-3
573.253441E-3
572.569656E-3
571.796036E-3
571.350861E-3
570.737457E-3
570.298004E-3
569.967842E-3
569.670296E-3
569.483185E-3
569.206810E-3
569.000244E-3
568.914986E-3
568.651199E-3
568.611145E-3
568.650627E-3
568.384552E-3
568.393135E-3
568.117332E-3
568.136787E-3
567.958260E-3
567.799187E-3
567.675018E-3
567.568588E-3
567.252159E-3
567.012978E-3
566.866493E-3
566.760063E-3
566.487694E-3
566.404724E-3
566.188431E-3
566.004753E-3
565.839958E-3
565.497208E-3
565.283203E-3
565.057755E-3
564.854622E-3
564.740753E-3
564.526176E-3
564.300156E-3
564.035225E-3
563.803482E-3
563.392067E-3
563.028145E-3
562.748909E-3
562.363815E-3
562.030792E-3
561.903763E-3
561.801910E-3
561.939240E-3
562.652206E-3
564.300156E-3
567.148018E-3
570.822144E-3
575.150871E-3
579.463577E-3
583.381462E-3
586.699104E-3
589.005089E-3
590.346336E-3
590.477943E-3
589.653969E-3
588.290977E-3
586.407280E-3
584.454918E-3
582.569504E-3
581.112099E-3
579.731369E-3
578.750038E-3
578.174400E-3
577.905464E-3
577.837372E-3
578.062820E-3
578.334045E-3
578.577232E-3
578.859329E-3
578.604698E-3
578.255653E-3
577.582169E-3
576.634598E-3
576.054955E-3
575.693893E-3
575.586891E-3
575.616074E-3
575.911331E-3
576.248360E-3
576.433182E-3
576.754761E-3
576.832008E-3
576.927567E-3
576.900673E-3
576.622581E-3
576.319313E-3
575.713348E-3
575.225830E-3
574.620438E-3
573.910904E-3
573.405075E-3
572.769928E-3
572.319031E-3
571.715355E-3
571.331978E-3
570.903969E-3
570.458221E-3
570.336914E-3
570.073700E-3
569.795036E-3
569.682312E-3
569.508934E-3
569.506073E-3
569.330978E-3
569.103241E-3
569.107819E-3
569.040871E-3
568.877792E-3
568.650055E-3
568.528175E-3
568.496704E-3
568.302727E-3
568.272972E-3
568.126488E-3
568.095589E-3
567.980576E-3
567.744827E-3
567.633247E-3
567.436981E-3
567.276192E-3
567.352295E-3
566.951752E-3
566.703415E-3
566.523743E-3
566.281700E-3
566.207886E-3
566.045952E-3
565.802765E-3
565.717506E-3
565.637398E-3
565.520096E-3
565.357018E-3
565.320969E-3
565.098381E-3
564.834023E-3
564.539337E-3
564.101601E-3
563.626671E-3
563.234711E-3
562.991524E-3
562.946892E-3
562.720871E-3
562.898254E-3
563.674736E-3
565.465164E-3
568.379974E-3
572.071266E-3
576.398277E-3
580.831718E-3
584.850311E-3
588.280678E-3
590.516281E-3
591.645241E-3
591.542244E-3
590.649033E-3
589.137268E-3
587.186050E-3
585.261154E-3
583.379173E-3
581.660271E-3
580.539322E-3
579.596901E-3
578.971481E-3
578.866768E-3
578.728867E-3
578.837585E-3
579.036713E-3
579.520226E-3
579.735947E-3
579.540253E-3
579.329109E-3
578.708839E-3
578.036499E-3
577.487755E-3
576.983070E-3
577.049446E-3
577.235413E-3
577.487183E-3
577.824211E-3
578.118896E-3
578.439903E-3
578.332329E-3
578.486252E-3
578.398132E-3
578.205872E-3
577.820778E-3
577.294922E-3
576.620293E-3
576.050949E-3
575.382042E-3
574.818993E-3
574.178123E-3
573.751831E-3
573.315811E-3
572.862053E-3
572.573090E-3
572.232056E-3
571.824646E-3
571.570587E-3
571.413803E-3
571.294212E-3
571.121407E-3
571.030998E-3
571.024704E-3
570.872498E-3
570.839882E-3
570.802689E-3
570.692825E-3
570.495987E-3
570.406151E-3
570.394135E-3
570.287132E-3
570.275116E-3
570.211029E-3
570.140648E-3
570.354652E-3
570.228195E-3
570.136642E-3
570.034218E-3
569.795609E-3
569.745827E-3
569.647408E-3
569.514084E-3
569.389343E-3
569.415665E-3
569.268036E-3
569.015121E-3
568.966484E-3
568.908691E-3
568.775940E-3
568.636322E-3
568.556213E-3
568.434906E-3
568.315887E-3
568.070984E-3
567.997169E-3
567.644691E-3
567.493057E-3
567.217827E-3
566.893387E-3
566.500282E-3
566.409302E-3
566.285706E-3
566.418457E-3
566.737175E-3
568.119049E-3
570.598984E-3
574.106026E-3
578.211021E-3
582.550049E-3
586.562347E-3
589.790726E-3
592.308426E-3
593.697166E-3
593.740082E-3
592.986488E-3
591.450691E-3
589.625931E-3
587.689590E-3
585.762978E-3
584.144783E-3
582.743454E-3
581.779861E-3
581.035995E-3
580.692101E-3
580.557632E-3
580.530739E-3
580.655479E-3
580.931854E-3
581.041718E-3
580.938148E-3
580.509567E-3
579.749107E-3
579.190636E-3
578.861046E-3
578.747749E-3
578.758621E-3
579.015541E-3
579.362869E-3
579.678154E-3
579.963112E-3
580.242348E-3
580.338478E-3
580.474663E-3
580.262375E-3
579.957962E-3
579.437256E-3
578.879929E-3
578.307724E-3
577.518654E-3
576.919556E-3
576.354218E-3
575.890732E-3
575.418663E-3
574.880791E-3
574.474525E-3
574.099159E-3
573.759842E-3
573.554993E-3
573.241997E-3
573.190498E-3
573.084068E-3
572.839737E-3
572.700691E-3
572.526169E-3
572.508430E-3
572.332191E-3
572.154808E-3
572.080421E-3
571.979141E-3
571.759415E-3
571.741104E-3
571.652412E-3
571.594048E-3
571.438980E-3
571.416664E-3
571.182060E-3
570.907974E-3
570.710564E-3
570.424461E-3
570.230484E-3
569.995880E-3
569.813919E-3
569.717789E-3
569.405365E-3
569.208527E-3
569.018555E-3
568.718147E-3
568.536758E-3
568.262672E-3
568.107605E-3
567.818069E-3
567.520523E-3
567.312241E-3
566.843605E-3
566.531754E-3
565.938950E-3
565.521240E-3
565.375328E-3
565.088654E-3
564.922714E-3
565.093803E-3
566.015625E-3
568.061829E-3
570.958900E-3
574.758911E-3
578.808975E-3
582.730865E-3
586.285400E-3
588.931274E-3
590.555191E-3
591.042709E-3
590.650749E-3
589.397049E-3
587.771988E-3
586.043930E-3
584.258652E-3
582.619858E-3
581.141853E-3
579.785156E-3
578.968620E-3
578.481674E-3
578.257942E-3
578.263664E-3
578.323746E-3
578.530884E-3
578.585815E-3
578.414726E-3
578.135490E-3
577.586174E-3
576.874352E-3
576.293564E-3
575.961685E-3
575.907898E-3
575.950813E-3
576.333618E-3
576.670074E-3
577.091217E-3
577.648544E-3
577.577019E-3
577.623367E-3
577.640533E-3
577.336121E-3
576.949310E-3
576.442337E-3
575.974274E-3
575.312233E-3
574.663925E-3
574.004173E-3
573.416519E-3
572.852898E-3
572.331047E-3
571.888161E-3
571.483612E-3
571.200943E-3
570.972061E-3
570.819855E-3
570.537758E-3
570.466232E-3
570.317459E-3
570.265961E-3
570.185280E-3
570.070839E-3
570.074272E-3
569.882584E-3
570.007324E-3
569.807625E-3
569.730949E-3
569.680595E-3
569.593620E-3
569.512367E-3
569.406509E-3
569.181633E-3
569.380760E-3
569.197655E-3
569.157600E-3
569.090652E-3
568.987083E-3
568.906403E-3
568.685532E-3
568.577385E-3
568.453217E-3
568.295860E-3
568.252373E-3
568.099022E-3
567.998886E-3
567.888451E-3
567.720222E-3
567.666435E-3
567.432404E-3
567.519951E-3
567.240715E-3
566.758347E-3
566.729164E-3
566.440773E-3
566.233063E-3
566.028214E-3
565.791893E-3
565.704918E-3
565.604782E-3
565.641403E-3
566.017914E-3
567.124557E-3
569.440842E-3
572.698402E-3
576.710701E-3
581.165314E-3
585.284042E-3
589.049149E-3
591.544533E-3
593.254852E-3
593.774414E-3
593.255424E-3
592.112732E-3
590.485954E-3
588.574791E-3
586.815834E-3
585.165024E-3
583.856392E-3
582.814980E-3
582.245636E-3
581.942940E-3
581.942940E-3
582.140350E-3
582.328606E-3
582.738304E-3
583.038139E-3
583.059311E-3
582.926559E-3
582.390976E-3
581.691742E-3
580.864906E-3
580.360222E-3
579.778862E-3
579.715347E-3
579.791451E-3
580.015182E-3
580.367661E-3
580.768204E-3
580.783081E-3
580.816841E-3
580.747032E-3
580.645180E-3
580.391121E-3
579.897308E-3
579.199219E-3
578.683090E-3
577.980423E-3
577.387047E-3
576.803970E-3
576.295280E-3
576.041222E-3
575.375175E-3
575.135994E-3
574.827576E-3
574.517441E-3
574.311447E-3
574.082565E-3
574.176407E-3
573.934364E-3
573.902893E-3
573.757553E-3
573.622513E-3
573.522949E-3
573.373032E-3
573.425102E-3
573.334694E-3
573.281479E-3
573.132706E-3
572.922134E-3
572.898674E-3
572.602272E-3
572.470665E-3
572.477531E-3
572.279549E-3
572.111320E-3
571.769142E-3
571.635246E-3
571.429825E-3
571.247292E-3
571.114540E-3
570.938873E-3
570.795250E-3
570.583534E-3
570.410728E-3
570.386124E-3
570.221901E-3
569.976425E-3
569.976425E-3
569.934082E-3
569.722939E-3
569.680595E-3
569.452858E-3
569.377899E-3
569.040871E-3
568.809128E-3
568.721008E-3
568.434906E-3
568.175125E-3
567.824364E-3
567.667580E-3
567.686462E-3
567.426109E-3
567.522812E-3
567.915916E-3
569.128990E-3
571.586037E-3
574.950600E-3
579.101372E-3
583.204651E-3
587.210655E-3
590.537453E-3
592.838287E-3
594.001007E-3
593.952942E-3
593.236542E-3
591.966248E-3
590.241051E-3
588.519287E-3
586.854172E-3
585.276604E-3
584.084702E-3
583.106804E-3
582.504272E-3
582.225609E-3
582.163239E-3
582.384109E-3
582.588387E-3
583.122826E-3
583.263016E-3
583.299065E-3
582.904243E-3
582.155228E-3
581.503487E-3
580.836296E-3
580.490685E-3
580.487251E-3
580.581093E-3
580.907249E-3
581.256866E-3
581.632233E-3
581.928635E-3
581.965828E-3
582.032776E-3
581.890297E-3
581.569862E-3
581.193352E-3
580.589104E-3
580.107880E-3
579.539680E-3
578.871918E-3
578.307724E-3
577.688599E-3
577.336121E-3
576.820564E-3
576.462364E-3
576.203728E-3
576.099586E-3
575.855255E-3
575.467300E-3
575.208664E-3
575.140572E-3
574.916267E-3
574.900246E-3
574.665642E-3
574.619865E-3
574.539185E-3
574.343491E-3
574.285698E-3
574.187851E-3
574.094009E-3
573.747253E-3
573.774719E-3
573.756409E-3
573.579025E-3
573.416519E-3
573.330116E-3
573.125267E-3
572.999954E-3
572.745323E-3
572.494125E-3
572.419739E-3
572.110176E-3
571.874428E-3
571.621513E-3
571.388054E-3
571.215820E-3
571.029282E-3
570.852470E-3
570.573235E-3
570.518875E-3
570.325470E-3
570.090294E-3
569.921494E-3
569.593620E-3
569.417953E-3
569.198799E-3
568.672943E-3
568.433189E-3
568.028641E-3
567.782021E-3
567.623520E-3
567.461586E-3
567.785454E-3
568.583107E-3
570.546913E-3
573.494911E-3
577.048874E-3
580.914116E-3
584.631157E-3
587.987137E-3
590.485382E-3
591.855240E-3
592.322731E-3
591.832352E-3
590.632439E-3
589.073181E-3
587.241554E-3
585.650253E-3
584.113884E-3
582.867050E-3
581.896019E-3
581.128120E-3
580.876350E-3
580.703545E-3
580.650902E-3
580.816841E-3
580.895233E-3
581.056023E-3
580.795670E-3
580.355072E-3
579.734230E-3
579.002953E-3
578.465652E-3
577.993584E-3
577.780151E-3
577.810478E-3
577.898026E-3
578.174400E-3
578.602982E-3
578.659058E-3
578.656197E-3
578.605270E-3
578.369522E-3
577.891731E-3
577.403069E-3
576.945877E-3
576.275826E-3
575.510788E-3
574.679375E-3
574.250793E-3
573.705482E-3
573.103523E-3
572.717285E-3
572.312164E-3
572.005463E-3
571.772003E-3
571.330833E-3
571.387482E-3
571.310234E-3
571.108818E-3
571.081352E-3
570.970917E-3
570.870781E-3
570.915985E-3
570.715714E-3
570.574951E-3
570.546913E-3
570.444489E-3
570.339203E-3
570.226479E-3
570.239639E-3
569.985008E-3
569.962120E-3
569.785881E-3
569.782448E-3
569.607925E-3
569.297218E-3
569.159317E-3
569.060326E-3
568.833733E-3
568.644333E-3
568.418312E-3
568.286705E-3
568.147659E-3
568.016052E-3
567.905617E-3
567.636108E-3
567.510223E-3
567.458725E-3
567.394066E-3
567.343712E-3
567.119408E-3
567.118263E-3
566.954613E-3
566.718292E-3
566.615868E-3
566.287994E-3
566.080284E-3
565.667725E-3
565.195084E-3
565.080643E-3
564.938164E-3
564.951324E-3
565.176773E-3
565.941238E-3
567.636681E-3
570.273972E-3
573.914909E-3
578.023911E-3
582.091141E-3
585.832214E-3
588.827705E-3
590.999222E-3
591.814613E-3
591.732788E-3
591.003799E-3
589.655113E-3
587.943649E-3
586.293411E-3
584.709549E-3
583.454704E-3
582.329178E-3
581.704903E-3
581.300354E-3
581.357002E-3
581.461716E-3
581.609344E-3
581.987572E-3
582.330322E-3
582.489395E-3
582.355499E-3
581.917191E-3
581.347275E-3
580.367661E-3
579.719353E-3
579.236412E-3
579.059601E-3
579.103088E-3
579.182053E-3
579.218102E-3
579.513931E-3
579.774857E-3
579.821205E-3
579.915047E-3
579.799461E-3
579.566574E-3
579.168320E-3
578.841591E-3
578.389549E-3
577.732658E-3
577.227974E-3
576.392555E-3
576.156807E-3
575.785446E-3
575.237274E-3
575.007248E-3
574.590111E-3
574.394417E-3
574.046516E-3
573.724937E-3
573.874855E-3
573.541832E-3
573.338127E-3
573.198509E-3
573.176193E-3
573.160744E-3
572.972488E-3
572.835732E-3
572.737885E-3
572.569084E-3
572.632027E-3
572.426033E-3
572.270393E-3
572.110176E-3
571.936226E-3
571.819496E-3
571.798325E-3
571.660423E-3
571.410370E-3
571.311378E-3
571.175194E-3
570.842743E-3
570.701408E-3
570.460510E-3
570.254517E-3
569.964409E-3
569.827652E-3
569.683456E-3
569.659996E-3
569.628525E-3
569.525528E-3
569.305229E-3
569.218826E-3
569.150162E-3
568.788528E-3
568.807411E-3
568.650055E-3
568.422318E-3
568.270683E-3
568.005753E-3
567.806053E-3
567.375755E-3
567.159462E-3
566.953468E-3
566.839027E-3
566.937447E-3
567.214966E-3
568.465805E-3
570.786095E-3
573.906898E-3
577.784157E-3
581.842232E-3
585.612488E-3
588.842010E-3
591.063881E-3
592.349052E-3
592.416573E-3
591.831207E-3
590.685654E-3
589.138985E-3
587.423515E-3
585.735512E-3
584.239197E-3
583.152580E-3
582.261086E-3
581.806755E-3
581.551552E-3
581.577301E-3
581.865692E-3
581.997299E-3
582.302856E-3
582.519722E-3
582.441902E-3
582.126617E-3
581.426811E-3
580.716133E-3
579.982567E-3
579.475021E-3
579.338837E-3
579.415512E-3
579.723930E-3
579.968262E-3
580.290413E-3
580.495262E-3
580.570793E-3
580.569077E-3
580.383682E-3
580.290413E-3
579.884148E-3
579.213524E-3
578.810120E-3
578.178978E-3
577.781296E-3
577.194786E-3
576.600838E-3
576.301003E-3
575.817490E-3
575.403214E-3
575.080490E-3
574.851036E-3
574.574089E-3
574.312592E-3
574.275970E-3
574.100304E-3
573.909760E-3
573.835945E-3
573.666573E-3
573.564148E-3
573.415375E-3
573.219681E-3
573.241425E-3
572.866058E-3
572.999382E-3
572.930145E-3
572.961617E-3
572.927284E-3
572.755623E-3
572.756767E-3
572.571373E-3
572.410011E-3
572.332191E-3
572.206879E-3
572.090149E-3
571.868706E-3
571.646118E-3
