Notes :


2023-11-04 ¿ÀÈÄ 10:04:28
Volts
Ch : LED 2,
539.564323E-3
539.266777E-3
539.350891E-3
539.281082E-3
539.227867E-3
539.198112E-3
538.994980E-3
539.158058E-3
539.089394E-3
538.955498E-3
538.891983E-3
538.854218E-3
538.977814E-3
538.893700E-3
538.847923E-3
538.918304E-3
538.863373E-3
538.985825E-3
538.976669E-3
538.896561E-3
538.962936E-3
538.901138E-3
538.949203E-3
538.867378E-3
538.784981E-3
538.746071E-3
538.329506E-3
538.459396E-3
538.304329E-3
538.214493E-3
538.157845E-3
537.912941E-3
537.907791E-3
537.884331E-3
537.989616E-3
538.653374E-3
540.054131E-3
542.507172E-3
545.502090E-3
548.743629E-3
552.052689E-3
554.910851E-3
557.335854E-3
558.996391E-3
559.837532E-3
559.929085E-3
559.336281E-3
558.543777E-3
557.270050E-3
555.899048E-3
554.643631E-3
553.211403E-3
552.108192E-3
550.988960E-3
550.431633E-3
550.139809E-3
549.786186E-3
549.662590E-3
549.635696E-3
549.527550E-3
549.427414E-3
549.108696E-3
548.829460E-3
548.274422E-3
547.940254E-3
547.727966E-3
547.560310E-3
547.653580E-3
547.731972E-3
547.899628E-3
548.084450E-3
548.431206E-3
548.656654E-3
548.747063E-3
548.793983E-3
548.924446E-3
548.833466E-3
548.696136E-3
548.261833E-3
547.826958E-3
547.462463E-3
546.888542E-3
546.437645E-3
545.997620E-3
545.606804E-3
545.301819E-3
544.873238E-3
544.616890E-3
544.390869E-3
544.100761E-3
543.957138E-3
543.635559E-3
543.598366E-3
543.541718E-3
543.307686E-3
543.367195E-3
543.082809E-3
543.209839E-3
543.120003E-3
543.047905E-3
543.046188E-3
542.908287E-3
542.990112E-3
542.895126E-3
542.879677E-3
542.961502E-3
542.710304E-3
542.638206E-3
542.420197E-3
542.265701E-3
542.119217E-3
541.921234E-3
541.831398E-3
541.539001E-3
541.543579E-3
541.068649E-3
540.713882E-3
540.413475E-3
539.988327E-3
539.624405E-3
539.386368E-3
538.912010E-3
538.548660E-3
538.076019E-3
537.682343E-3
537.528419E-3
537.314415E-3
537.864876E-3
539.012718E-3
540.894699E-3
543.535995E-3
546.307182E-3
549.285507E-3
551.843834E-3
553.880310E-3
555.258179E-3
556.004906E-3
556.022644E-3
555.579758E-3
554.607010E-3
553.434563E-3
551.941109E-3
550.510025E-3
549.141884E-3
547.737122E-3
546.833038E-3
545.828247E-3
545.298386E-3
544.829178E-3
544.491005E-3
544.259834E-3
543.895340E-3
543.505096E-3
542.932320E-3
542.391014E-3
542.096901E-3
541.795921E-3
541.790199E-3
541.949272E-3
542.137527E-3
542.487144E-3
542.615318E-3
543.013573E-3
543.229866E-3
543.434143E-3
543.677330E-3
543.625259E-3
543.679619E-3
543.542290E-3
543.247032E-3
542.885399E-3
542.325211E-3
541.877747E-3
541.377068E-3
540.833473E-3
540.634918E-3
540.205765E-3
539.898491E-3
539.692497E-3
539.454460E-3
539.275360E-3
538.946342E-3
538.859367E-3
538.675117E-3
538.528633E-3
538.516617E-3
538.364983E-3
538.250542E-3
538.235664E-3
538.107491E-3
538.186455E-3
538.005066E-3
538.045120E-3
538.033104E-3
537.852859E-3
537.917519E-3
537.770462E-3
537.715530E-3
537.585640E-3
537.442017E-3
537.435722E-3
537.305260E-3
537.069511E-3
537.110138E-3
537.096405E-3
537.095261E-3
536.932182E-3
536.884689E-3
536.744499E-3
536.573410E-3
536.480713E-3
536.310196E-3
535.881615E-3
535.606956E-3
535.269356E-3
535.107422E-3
534.730911E-3
534.557533E-3
534.586716E-3
534.846497E-3
535.983467E-3
537.597084E-3
540.211487E-3
543.305397E-3
546.384430E-3
549.607086E-3
552.306175E-3
554.457664E-3
555.813217E-3
556.335068E-3
556.371117E-3
555.639267E-3
554.706001E-3
553.407097E-3
552.047539E-3
550.781822E-3
549.665451E-3
548.547935E-3
547.743416E-3
547.107697E-3
546.833611E-3
546.565819E-3
546.449661E-3
546.378708E-3
546.204185E-3
546.082878E-3
545.677185E-3
545.187950E-3
544.727325E-3
544.245529E-3
544.151115E-3
543.990326E-3
544.020653E-3
543.946266E-3
543.854713E-3
544.100189E-3
544.215202E-3
544.310188E-3
544.331360E-3
544.326210E-3
544.311333E-3
544.071007E-3
543.750000E-3
543.493652E-3
542.995262E-3
542.528343E-3
542.044830E-3
541.668892E-3
541.206551E-3
540.744209E-3
540.516472E-3
540.182304E-3
540.079308E-3
539.748573E-3
539.396667E-3
539.422989E-3
539.149475E-3
539.120865E-3
539.075089E-3
538.897133E-3
538.961792E-3
538.933754E-3
538.998985E-3
538.946342E-3
538.891411E-3
539.095116E-3
538.921738E-3
538.966370E-3
539.168930E-3
539.019585E-3
539.192963E-3
539.063644E-3
539.057922E-3
539.088249E-3
539.024734E-3
539.122009E-3
538.934326E-3
538.982964E-3
538.903427E-3
538.746643E-3
538.789558E-3
538.559532E-3
538.502312E-3
538.386726E-3
538.320351E-3
538.194466E-3
537.801361E-3
537.730980E-3
537.557602E-3
537.285805E-3
537.273788E-3
537.268066E-3
537.862587E-3
539.055634E-3
541.092110E-3
544.087029E-3
547.070503E-3
550.428200E-3
553.338432E-3
555.728531E-3
557.603073E-3
558.532333E-3
558.838463E-3
558.433914E-3
557.735825E-3
556.792259E-3
555.400085E-3
554.149818E-3
552.878380E-3
551.704216E-3
550.827599E-3
550.086021E-3
549.619675E-3
549.319839E-3
549.139595E-3
549.335861E-3
549.294090E-3
549.020004E-3
548.709869E-3
548.143387E-3
547.947121E-3
547.434998E-3
547.180939E-3
547.096252E-3
547.037888E-3
547.323990E-3
547.344589E-3
547.688484E-3
547.853279E-3
548.236656E-3
548.412323E-3
548.482704E-3
548.622894E-3
548.517036E-3
548.240089E-3
547.982025E-3
547.467613E-3
546.982956E-3
546.434212E-3
545.924950E-3
545.572472E-3
545.200539E-3
544.787407E-3
544.495583E-3
544.178009E-3
543.945694E-3
543.619537E-3
543.412399E-3
543.237877E-3
542.949486E-3
542.964935E-3
542.797279E-3
542.819595E-3
542.681694E-3
542.494583E-3
542.538643E-3
542.481995E-3
542.397308E-3
542.326355E-3
542.235374E-3
542.370987E-3
542.233658E-3
542.241669E-3
542.134094E-3
541.972160E-3
542.188454E-3
541.787338E-3
541.732407E-3
541.568756E-3
541.244888E-3
541.200256E-3
540.957642E-3
540.563393E-3
540.332222E-3
540.118790E-3
539.686203E-3
539.206696E-3
538.891411E-3
538.536644E-3
538.278580E-3
538.027382E-3
537.863159E-3
538.365555E-3
539.519119E-3
541.374207E-3
544.117355E-3
547.007561E-3
549.921227E-3
552.573967E-3
554.601860E-3
556.308174E-3
556.955910E-3
557.121277E-3
556.698418E-3
555.689049E-3
554.612160E-3
553.109550E-3
551.758003E-3
550.448227E-3
549.128151E-3
548.131371E-3
547.233582E-3
546.803856E-3
546.330070E-3
545.997047E-3
545.702934E-3
545.249176E-3
544.676399E-3
544.149971E-3
543.511391E-3
543.114853E-3
542.809296E-3
542.755508E-3
543.004990E-3
543.074226E-3
543.416405E-3
543.568039E-3
543.848991E-3
544.139671E-3
544.177437E-3
544.306755E-3
544.350243E-3
544.245529E-3
544.134521E-3
543.656731E-3
543.251610E-3
542.567825E-3
542.055702E-3
541.659737E-3
541.075516E-3
540.797997E-3
540.299606E-3
540.046120E-3
539.743996E-3
539.408112E-3
539.256477E-3
538.905144E-3
538.740349E-3
538.649368E-3
538.374138E-3
538.292885E-3
538.176155E-3
538.213348E-3
538.286591E-3
538.189316E-3
538.296318E-3
538.192749E-3
538.159561E-3
538.198471E-3
538.232803E-3
538.278008E-3
538.353539E-3
538.229370E-3
538.329506E-3
538.171577E-3
538.187027E-3
538.097763E-3
538.056564E-3
538.016510E-3
537.956429E-3
538.010216E-3
537.868881E-3
537.603378E-3
537.565041E-3
537.337875E-3
537.232018E-3
536.979675E-3
536.715317E-3
536.587715E-3
536.337662E-3
536.109352E-3
535.894203E-3
535.788345E-3
536.033249E-3
536.656952E-3
538.315773E-3
540.606308E-3
543.519974E-3
546.786118E-3
550.006485E-3
553.050041E-3
555.386925E-3
557.077217E-3
557.881737E-3
558.019638E-3
557.805634E-3
556.811714E-3
555.782318E-3
554.471970E-3
553.001404E-3
551.879883E-3
550.738335E-3
549.948692E-3
549.378204E-3
548.957634E-3
548.798561E-3
548.622894E-3
548.620605E-3
548.614311E-3
548.313332E-3
548.073006E-3
547.532272E-3
546.962929E-3
546.475983E-3
546.214485E-3
546.153259E-3
546.051407E-3
546.040535E-3
546.132088E-3
546.114922E-3
546.332932E-3
546.394157E-3
546.700287E-3
546.756363E-3
546.615028E-3
546.607590E-3
546.439362E-3
546.182442E-3
545.737839E-3
545.203400E-3
544.829178E-3
544.295883E-3
543.937683E-3
543.668747E-3
543.212700E-3
543.095970E-3
542.717743E-3
542.387581E-3
542.374420E-3
542.088318E-3
541.825676E-3
541.680908E-3
541.629410E-3
541.655159E-3
541.527557E-3
541.446304E-3
541.363335E-3
541.303253E-3
541.324997E-3
541.286087E-3
541.258049E-3
541.157341E-3
541.074944E-3
541.132164E-3
540.987396E-3
541.096687E-3
541.118431E-3
541.008568E-3
540.934181E-3
540.747643E-3
540.796280E-3
540.655518E-3
540.558815E-3
540.530205E-3
540.373993E-3
540.417480E-3
540.139389E-3
539.923096E-3
539.809799E-3
539.453888E-3
539.331436E-3
539.048767E-3
538.841057E-3
538.632774E-3
538.434219E-3
538.316345E-3
538.371849E-3
539.265633E-3
540.811729E-3
543.149757E-3
546.180725E-3
549.462318E-3
552.582550E-3
555.524826E-3
557.631683E-3
559.094238E-3
559.684181E-3
559.557724E-3
559.077072E-3
558.009911E-3
556.808281E-3
555.409241E-3
554.083443E-3
552.878952E-3
551.592064E-3
550.719452E-3
550.009346E-3
549.607658E-3
549.440575E-3
549.252319E-3
549.270630E-3
549.259186E-3
548.835182E-3
548.416901E-3
547.754860E-3
547.322845E-3
546.843338E-3
546.772957E-3
546.756935E-3
546.823883E-3
547.015572E-3
547.165489E-3
547.360611E-3
547.682190E-3
547.879601E-3
548.180580E-3
548.246384E-3
548.317909E-3
548.167419E-3
547.714233E-3
547.290802E-3
546.831322E-3
546.327209E-3
545.948410E-3
545.480347E-3
545.236588E-3
545.109558E-3
544.695854E-3
544.386292E-3
543.935394E-3
543.826675E-3
543.571472E-3
543.494225E-3
543.323135E-3
543.121147E-3
543.237305E-3
543.061066E-3
542.968941E-3
542.942047E-3
542.782402E-3
542.820740E-3
542.735481E-3
542.725182E-3
542.719460E-3
542.684555E-3
542.701149E-3
542.599297E-3
542.500877E-3
542.490005E-3
542.249107E-3
542.144966E-3
541.905785E-3
541.795921E-3
541.783333E-3
541.428566E-3
541.293526E-3
540.939331E-3
540.641212E-3
540.571976E-3
540.026093E-3
539.715385E-3
539.382362E-3
539.087105E-3
538.777542E-3
538.340378E-3
538.243103E-3
538.272285E-3
538.795280E-3
540.161705E-3
542.172432E-3
545.089531E-3
547.992325E-3
551.025581E-3
553.797340E-3
555.768585E-3
557.433128E-3
558.071709E-3
558.152962E-3
557.410240E-3
556.411743E-3
555.300522E-3
553.958702E-3
552.386284E-3
551.123428E-3
549.776459E-3
548.847198E-3
548.016357E-3
547.373772E-3
547.146034E-3
546.806717E-3
546.656799E-3
546.363258E-3
545.942116E-3
545.365906E-3
544.695282E-3
544.267845E-3
543.859863E-3
543.870735E-3
544.052696E-3
544.390869E-3
544.667816E-3
544.957352E-3
545.194244E-3
545.547295E-3
545.597649E-3
545.869446E-3
545.856857E-3
545.755577E-3
545.570183E-3
545.130157E-3
544.785690E-3
544.188881E-3
543.607521E-3
543.126869E-3
542.623901E-3
542.155266E-3
541.728973E-3
541.398811E-3
541.126442E-3
540.808868E-3
540.605164E-3
540.361977E-3
540.249825E-3
540.324211E-3
539.992332E-3
539.831543E-3
539.743996E-3
539.661598E-3
539.635277E-3
539.539719E-3
539.492798E-3
539.399529E-3
539.322281E-3
539.323997E-3
539.151764E-3
539.210701E-3
539.177513E-3
538.993835E-3
538.931465E-3
538.703728E-3
538.833618E-3
538.688850E-3
538.608742E-3
538.584709E-3
538.411331E-3
538.469124E-3
538.205338E-3
538.113213E-3
537.958145E-3
537.630844E-3
537.395668E-3
537.198257E-3
536.841774E-3
536.744499E-3
536.417770E-3
536.184311E-3
535.923958E-3
535.606956E-3
535.879898E-3
536.335373E-3
537.916374E-3
540.281296E-3
543.144035E-3
546.599007E-3
549.770164E-3
552.935028E-3
555.479050E-3
557.151031E-3
558.172989E-3
558.258247E-3
557.971573E-3
557.140732E-3
555.791473E-3
554.666519E-3
553.290939E-3
551.854134E-3
550.920296E-3
550.060844E-3
549.596214E-3
549.131584E-3
548.953056E-3
548.946190E-3
548.833466E-3
548.864937E-3
548.705292E-3
548.363113E-3
547.824669E-3
547.251892E-3
546.813583E-3
546.397018E-3
546.175003E-3
546.253395E-3
546.076012E-3
546.165848E-3
546.140099E-3
546.366692E-3
546.547508E-3
546.572685E-3
546.765518E-3
546.731186E-3
546.651649E-3
546.531487E-3
546.221924E-3
545.994759E-3
545.485497E-3
545.171356E-3
544.714737E-3
544.322205E-3
543.994331E-3
543.598366E-3
543.482208E-3
543.252754E-3
543.031883E-3
542.947769E-3
542.683983E-3
542.603302E-3
542.566681E-3
542.389870E-3
542.477989E-3
542.233086E-3
542.261696E-3
542.238808E-3
542.176437E-3
542.195320E-3
542.023087E-3
541.968727E-3
541.969872E-3
541.670609E-3
541.922379E-3
541.879463E-3
542.069435E-3
541.960144E-3
541.914368E-3
542.055702E-3
541.782188E-3
541.894341E-3
541.703796E-3
541.672897E-3
541.694641E-3
541.553879E-3
541.484642E-3
541.415977E-3
541.136169E-3
541.110992E-3
540.793991E-3
540.660095E-3
540.417480E-3
540.226936E-3
540.125656E-3
539.844704E-3
539.657593E-3
539.563179E-3
539.495087E-3
540.587425E-3
542.274857E-3
544.965935E-3
548.102188E-3
551.480484E-3
554.923439E-3
557.696915E-3
559.959412E-3
561.512947E-3
561.941528E-3
561.825943E-3
561.086082E-3
560.091591E-3
558.834457E-3
557.361603E-3
556.139374E-3
554.841614E-3
554.068565E-3
553.139305E-3
552.591133E-3
552.313042E-3
552.251816E-3
552.236366E-3
552.205467E-3
552.039528E-3
551.897621E-3
551.127434E-3
550.718307E-3
550.239372E-3
549.815369E-3
549.646568E-3
549.518394E-3
549.709511E-3
549.784470E-3
549.926376E-3
550.140953E-3
550.345230E-3
550.650215E-3
550.938034E-3
551.019859E-3
551.051903E-3
550.670815E-3
550.379562E-3
549.937820E-3
549.563599E-3
549.003983E-3
548.479843E-3
548.167992E-3
547.725677E-3
547.311974E-3
547.075081E-3
546.667099E-3
546.459389E-3
546.132660E-3
545.747566E-3
545.623970E-3
545.278358E-3
545.123291E-3
544.988251E-3
544.771385E-3
544.549370E-3
544.274139E-3
544.291306E-3
544.140816E-3
543.945122E-3
543.872452E-3
543.744850E-3
543.644142E-3
543.497658E-3
543.168068E-3
543.340874E-3
543.143463E-3
543.062210E-3
542.906570E-3
542.752075E-3
542.689705E-3
542.425919E-3
542.336655E-3
542.027092E-3
541.735268E-3
541.598511E-3
541.207695E-3
541.018867E-3
540.655518E-3
540.218353E-3
540.032959E-3
539.685059E-3
539.341164E-3
539.149475E-3
539.019012E-3
539.392090E-3
540.269852E-3
542.000771E-3
544.552231E-3
547.533989E-3
550.814438E-3
553.970146E-3
556.685257E-3
558.591843E-3
559.774017E-3
560.254669E-3
559.974289E-3
559.299660E-3
558.237076E-3
556.835175E-3
555.628967E-3
554.043961E-3
552.702713E-3
551.683617E-3
550.825882E-3
550.387573E-3
549.961853E-3
549.778175E-3
549.584770E-3
549.421692E-3
549.205399E-3
548.594284E-3
547.957993E-3
547.385788E-3
546.733475E-3
546.549797E-3
546.450233E-3
546.396446E-3
546.487999E-3
546.489716E-3
546.697426E-3
546.826744E-3
546.972084E-3
547.153473E-3
547.192955E-3
547.361183E-3
547.023010E-3
546.756363E-3
546.426773E-3
545.898056E-3
545.442581E-3
544.769669E-3
544.235802E-3
543.692207E-3
543.475914E-3
543.024445E-3
542.416191E-3
542.144966E-3
541.913223E-3
541.650581E-3
541.410255E-3
541.072655E-3
540.885544E-3
540.233231E-3
540.371132E-3
540.422630E-3
540.226364E-3
540.171432E-3
540.050697E-3
539.870453E-3
539.827538E-3
539.610672E-3
539.703941E-3
539.588356E-3
539.384079E-3
539.432716E-3
