Notes :


2023-10-21 ¿ÀÈÄ 10:38:26
Volts
Ch : LED 2,
216.616631E-3
217.696953E-3
217.426872E-3
217.365074E-3
217.573357E-3
216.743660E-3
217.947578E-3
217.647743E-3
217.712975E-3
218.112946E-3
217.853737E-3
218.626785E-3
218.203926E-3
218.112946E-3
218.744087E-3
218.433380E-3
219.380951E-3
218.883133E-3
218.612480E-3
218.892860E-3
217.742157E-3
217.715836E-3
215.659904E-3
214.147568E-3
213.282967E-3
211.683655E-3
211.615562E-3
210.151291E-3
209.619713E-3
209.456635E-3
209.273529E-3
210.384750E-3
209.930420E-3
210.264015E-3
210.902023E-3
211.204147E-3
212.297630E-3
211.927986E-3
212.196922E-3
212.693596E-3
212.608337E-3
213.564491E-3
213.051796E-3
213.072968E-3
213.855171E-3
213.806534E-3
214.734650E-3
214.337540E-3
214.066315E-3
214.398193E-3
214.084053E-3
214.772415E-3
213.795662E-3
213.541603E-3
213.799667E-3
213.588524E-3
214.101791E-3
213.318443E-3
212.978554E-3
213.407135E-3
213.348198E-3
214.314079E-3
213.866043E-3
213.932991E-3
214.495468E-3
214.403915E-3
215.328026E-3
214.980698E-3
214.945793E-3
215.708542E-3
215.719986E-3
216.500473E-3
216.241264E-3
216.223526E-3
216.538811E-3
216.682434E-3
217.325020E-3
216.868973E-3
216.529083E-3
216.913605E-3
216.852379E-3
217.442322E-3
217.012024E-3
216.806030E-3
217.320442E-3
217.024040E-3
217.734718E-3
217.382812E-3
217.296410E-3
217.728424E-3
217.441750E-3
218.269157E-3
218.081474E-3
217.947006E-3
218.550682E-3
218.457985E-3
219.099426E-3
218.498039E-3
217.819977E-3
217.203712E-3
216.068459E-3
215.260506E-3
213.498688E-3
211.761475E-3
211.054230E-3
209.964752E-3
210.070038E-3
209.412003E-3
209.102440E-3
209.092712E-3
209.203148E-3
210.173607E-3
210.325813E-3
210.336685E-3
211.087990E-3
211.308861E-3
212.093353E-3
212.132263E-3
212.089348E-3
212.718773E-3
212.602615E-3
213.187981E-3
213.067245E-3
212.813759E-3
213.669777E-3
213.710976E-3
214.220238E-3
214.081192E-3
213.632011E-3
213.933563E-3
213.596535E-3
213.859749E-3
213.400269E-3
212.976265E-3
213.170815E-3
212.959099E-3
213.289261E-3
213.211441E-3
212.885284E-3
213.138771E-3
213.185692E-3
213.857460E-3
213.991356E-3
213.724709E-3
214.340973E-3
214.524651E-3
215.143776E-3
214.982414E-3
214.890862E-3
215.562630E-3
215.539742E-3
215.937996E-3
215.980911E-3
215.766335E-3
216.256714E-3
216.078186E-3
216.780853E-3
216.688156E-3
216.475296E-3
216.859818E-3
216.608047E-3
217.137909E-3
216.971970E-3
216.493607E-3
216.867828E-3
216.661263E-3
217.207718E-3
217.215729E-3
216.863823E-3
217.177391E-3
216.466141E-3
217.310715E-3
217.573357E-3
217.343903E-3
218.047714E-3
217.706680E-3
218.222237E-3
218.302345E-3
218.005371E-3
218.114090E-3
217.347908E-3
217.040062E-3
215.876770E-3
214.179039E-3
213.178253E-3
211.600685E-3
210.907745E-3
210.261726E-3
209.246063E-3
209.363937E-3
209.056664E-3
209.760475E-3
209.956741E-3
209.658623E-3
210.285759E-3
210.433388E-3
211.243629E-3
211.679077E-3
211.503410E-3
211.931419E-3
211.956596E-3
212.604904E-3
213.107300E-3
212.669563E-3
213.156509E-3
212.998581E-3
213.664055E-3
214.105797E-3
213.602829E-3
213.779640E-3
213.315010E-3
213.744164E-3
213.700104E-3
213.007736E-3
213.042068E-3
212.563705E-3
212.991714E-3
213.020897E-3
212.350273E-3
212.941360E-3
212.657547E-3
213.408852E-3
213.542747E-3
213.158798E-3
213.336754E-3
213.322449E-3
214.324379E-3
214.632225E-3
214.335251E-3
214.521790E-3
214.586449E-3
215.443611E-3
215.669632E-3
215.087128E-3
215.457916E-3
215.350342E-3
215.947151E-3
216.179466E-3
215.449905E-3
215.617561E-3
215.600395E-3
216.155434E-3
216.254425E-3
215.632439E-3
215.954018E-3
215.915680E-3
216.214943E-3
216.327667E-3
215.929413E-3
216.313934E-3
216.250420E-3
216.714478E-3
216.931343E-3
216.612053E-3
217.085838E-3
217.062950E-3
217.322159E-3
217.568779E-3
216.926765E-3
216.618919E-3
215.579796E-3
214.851379E-3
213.708115E-3
211.916542E-3
210.987854E-3
209.927559E-3
209.282684E-3
208.977699E-3
208.362579E-3
208.606339E-3
208.506203E-3
209.054375E-3
209.609985E-3
209.440613E-3
210.142136E-3
210.425377E-3
211.186409E-3
211.640739E-3
211.420441E-3
211.842728E-3
211.846161E-3
212.293053E-3
212.552834E-3
212.531662E-3
213.079262E-3
213.075256E-3
213.463783E-3
213.772774E-3
213.400841E-3
213.492393E-3
213.066673E-3
213.125038E-3
213.236046E-3
212.618637E-3
212.777138E-3
212.450409E-3
212.646675E-3
212.938499E-3
212.313080E-3
212.891579E-3
212.761688E-3
213.056374E-3
213.458633E-3
213.117027E-3
213.671494E-3
213.759041E-3
214.152145E-3
214.802742E-3
214.533806E-3
215.007591E-3
214.933777E-3
215.334892E-3
215.892220E-3
215.439606E-3
215.951729E-3
215.915108E-3
216.060448E-3
216.463852E-3
215.944290E-3
216.055298E-3
216.066742E-3
216.470146E-3
216.673851E-3
216.133118E-3
216.559982E-3
216.407204E-3
216.554832E-3
216.810036E-3
215.769768E-3
216.542816E-3
216.764259E-3
216.747093E-3
217.517281E-3
217.090988E-3
217.622566E-3
217.807961E-3
217.947006E-3
218.401337E-3
217.791939E-3
218.169594E-3
217.522430E-3
216.636658E-3
215.799522E-3
213.911247E-3
213.078117E-3
211.458206E-3
210.378456E-3
209.821701E-3
208.831215E-3
209.045792E-3
208.701324E-3
208.772850E-3
209.325027E-3
209.005165E-3
210.036850E-3
210.086060E-3
210.401917E-3
210.997009E-3
210.974693E-3
211.739731E-3
211.725426E-3
211.564064E-3
212.217522E-3
211.819267E-3
212.630081E-3
212.615776E-3
212.700462E-3
213.250923E-3
213.097572E-3
213.621712E-3
213.257217E-3
212.829208E-3
213.096428E-3
212.544250E-3
213.066673E-3
212.474442E-3
212.316513E-3
212.370300E-3
212.046432E-3
212.625504E-3
212.467575E-3
212.368011E-3
212.738800E-3
212.626076E-3
213.605690E-3
213.397408E-3
213.162231E-3
213.939285E-3
213.807678E-3
214.894295E-3
214.685440E-3
214.604187E-3
215.120888E-3
215.162086E-3
216.188049E-3
215.723419E-3
215.508842E-3
215.955734E-3
215.498543E-3
216.525078E-3
216.176033E-3
215.996933E-3
216.555977E-3
215.799522E-3
216.811752E-3
216.439819E-3
216.340828E-3
216.724205E-3
216.427803E-3
217.126465E-3
216.588593E-3
216.591454E-3
217.101860E-3
217.031479E-3
217.840004E-3
217.304993E-3
217.353630E-3
217.881203E-3
217.853165E-3
218.710899E-3
218.191910E-3
217.980194E-3
218.262863E-3
217.617416E-3
217.588806E-3
216.090775E-3
214.465141E-3
213.294983E-3
211.821556E-3
211.341476E-3
210.020828E-3
208.973694E-3
209.081841E-3
208.543968E-3
209.170532E-3
208.938789E-3
208.825493E-3
209.535599E-3
209.945869E-3
210.963821E-3
210.815048E-3
210.831070E-3
211.556625E-3
211.723137E-3
212.394905E-3
212.183189E-3
212.034988E-3
212.668419E-3
212.667274E-3
213.436890E-3
213.403130E-3
213.298988E-3
213.630295E-3
213.333893E-3
213.494682E-3
213.297272E-3
212.773132E-3
212.939644E-3
212.612915E-3
212.794304E-3
212.594032E-3
212.258148E-3
212.678719E-3
212.563705E-3
212.821770E-3
212.817192E-3
212.738800E-3
213.272667E-3
213.302422E-3
213.971329E-3
214.050293E-3
213.908958E-3
214.320374E-3
213.717270E-3
214.927483E-3
215.225029E-3
214.862251E-3
215.427017E-3
215.513420E-3
215.909386E-3
216.031837E-3
215.604973E-3
216.175461E-3
216.077614E-3
216.431236E-3
216.517639E-3
215.940285E-3
216.370010E-3
216.298485E-3
216.507912E-3
216.487312E-3
216.095924E-3
216.559982E-3
216.511917E-3
216.736221E-3
216.973686E-3
216.640091E-3
216.951942E-3
217.273521E-3
217.474365E-3
217.636871E-3
217.350197E-3
217.990494E-3
217.848587E-3
217.840004E-3
217.553902E-3
216.408920E-3
215.538597E-3
214.018250E-3
212.883568E-3
211.584663E-3
210.247993E-3
209.812546E-3
209.205437E-3
208.870697E-3
209.034920E-3
208.493614E-3
209.003448E-3
209.470940E-3
209.751892E-3
210.266304E-3
210.149002E-3
210.993004E-3
211.368370E-3
211.598969E-3
212.001801E-3
211.626434E-3
212.244987E-3
212.635803E-3
212.777138E-3
213.238907E-3
213.109589E-3
213.660622E-3
213.649178E-3
213.605118E-3
213.597679E-3
212.969398E-3
213.232613E-3
212.923050E-3
212.894440E-3
212.982559E-3
212.411499E-3
212.512779E-3
212.351990E-3
212.536812E-3
212.897301E-3
212.411499E-3
213.061523E-3
212.893867E-3
213.280106E-3
213.922691E-3
213.735008E-3
214.280891E-3
214.500046E-3
214.839935E-3
215.426445E-3
214.982986E-3
215.604401E-3
215.781784E-3
215.702248E-3
216.243553E-3
216.053009E-3
216.368866E-3
216.413498E-3
216.429520E-3
216.974831E-3
216.650963E-3
216.859245E-3
216.969109E-3
217.062378E-3
217.359352E-3
216.853523E-3
217.179680E-3
217.107010E-3
217.223740E-3
217.590523E-3
217.094994E-3
217.458344E-3
217.417145E-3
217.608261E-3
218.312645E-3
218.050003E-3
218.407059E-3
218.329239E-3
218.462563E-3
218.497467E-3
217.510986E-3
216.721916E-3
215.198708E-3
214.053726E-3
212.877846E-3
211.027336E-3
210.268593E-3
209.255219E-3
208.986855E-3
209.131050E-3
208.533096E-3
208.608055E-3
208.940506E-3
209.582520E-3
210.222816E-3
210.074043E-3
210.714340E-3
211.087990E-3
211.494255E-3
211.962891E-3
211.610413E-3
212.175179E-3
212.220383E-3
212.580872E-3
213.035774E-3
212.939072E-3
213.319016E-3
213.405418E-3
213.516426E-3
213.990211E-3
213.174820E-3
213.331604E-3
213.080406E-3
213.128471E-3
213.456917E-3
212.575150E-3
212.781143E-3
212.703896E-3
212.666130E-3
213.141060E-3
212.241554E-3
212.885284E-3
213.023758E-3
213.494110E-3
213.955307E-3
213.530159E-3
214.043999E-3
214.336967E-3
214.540100E-3
215.330887E-3
215.055656E-3
215.369225E-3
215.653038E-3
215.718842E-3
216.561699E-3
216.120529E-3
216.423225E-3
216.655540E-3
216.644669E-3
217.222595E-3
216.927338E-3
217.107582E-3
217.016029E-3
217.039490E-3
217.597389E-3
216.960526E-3
217.105293E-3
217.279243E-3
217.363358E-3
217.826271E-3
217.358780E-3
217.514992E-3
217.695808E-3
217.596245E-3
218.097496E-3
217.901230E-3
218.370438E-3
218.520927E-3
218.520355E-3
219.116592E-3
218.824768E-3
218.915749E-3
218.557549E-3
217.510414E-3
216.741943E-3
214.869690E-3
213.641739E-3
212.290192E-3
210.937500E-3
210.359573E-3
209.267807E-3
209.178543E-3
209.179687E-3
208.985138E-3
209.549904E-3
209.313583E-3
210.033989E-3
210.492897E-3
210.762978E-3
211.587524E-3
211.449623E-3
212.030983E-3
212.428665E-3
212.439537E-3
212.853813E-3
212.703896E-3
213.166809E-3
213.476372E-3
213.597107E-3
214.332962E-3
213.872337E-3
214.134979E-3
214.142990E-3
213.718987E-3
213.987923E-3
212.930489E-3
213.448906E-3
213.339615E-3
213.110161E-3
213.442039E-3
212.927628E-3
213.380814E-3
213.270950E-3
213.099861E-3
213.600540E-3
213.488388E-3
214.012527E-3
214.149857E-3
214.039421E-3
214.792442E-3
214.668846E-3
215.237617E-3
215.576935E-3
215.271378E-3
216.035843E-3
215.416145E-3
216.549110E-3
216.814041E-3
216.414070E-3
216.906738E-3
216.796303E-3
217.416000E-3
217.386818E-3
216.921616E-3
217.504120E-3
217.346191E-3
217.739296E-3
217.634583E-3
217.065811E-3
217.682648E-3
217.519569E-3
217.862892E-3
217.835426E-3
217.383385E-3
217.795372E-3
217.833138E-3
218.409348E-3
218.479729E-3
218.036270E-3
218.645096E-3
218.699455E-3
219.101143E-3
218.679428E-3
217.664909E-3
217.276955E-3
215.911102E-3
214.975548E-3
213.342476E-3
211.478233E-3
211.078262E-3
210.058594E-3
209.996223E-3
209.531593E-3
209.024620E-3
209.813690E-3
209.778786E-3
210.633659E-3
210.829353E-3
210.690308E-3
211.850166E-3
212.114525E-3
212.703323E-3
212.849808E-3
212.398911E-3
213.328171E-3
213.472939E-3
213.953590E-3
214.134407E-3
213.760185E-3
214.625359E-3
214.686584E-3
214.805603E-3
214.779854E-3
214.070320E-3
214.235115E-3
213.967896E-3
213.946152E-3
213.832283E-3
213.110733E-3
213.431168E-3
213.324738E-3
213.465500E-3
213.511848E-3
212.955666E-3
213.526726E-3
213.680077E-3
213.966179E-3
214.183617E-3
213.897514E-3
214.486313E-3
215.049362E-3
215.240479E-3
215.509987E-3
215.211296E-3
215.807533E-3
215.917397E-3
215.995216E-3
216.391182E-3
215.901375E-3
216.621780E-3
216.546249E-3
216.626358E-3
216.799736E-3
216.346550E-3
216.867256E-3
217.073822E-3
217.149925E-3
217.449188E-3
216.767120E-3
217.088127E-3
217.255783E-3
217.191696E-3
217.607689E-3
216.995430E-3
217.635155E-3
217.988777E-3
218.102074E-3
218.361855E-3
218.047142E-3
218.161583E-3
217.476654E-3
217.118454E-3
216.104507E-3
214.124107E-3
213.178253E-3
212.001801E-3
210.695457E-3
210.130119E-3
208.921623E-3
208.874702E-3
208.934784E-3
208.929634E-3
209.286690E-3
208.802605E-3
209.623146E-3
210.223961E-3
210.577011E-3
211.388969E-3
211.040497E-3
211.937714E-3
212.152290E-3
212.196922E-3
212.788582E-3
212.232971E-3
213.010597E-3
213.483810E-3
213.565063E-3
214.095497E-3
213.554192E-3
214.010239E-3
214.248276E-3
213.784218E-3
213.836288E-3
213.009453E-3
213.241196E-3
213.108444E-3
212.608910E-3
212.923622E-3
212.127686E-3
212.674713E-3
213.092422E-3
212.797165E-3
213.177681E-3
212.634087E-3
213.383675E-3
213.646889E-3
213.611412E-3
214.410210E-3
213.967323E-3
214.611053E-3
214.987564E-3
215.106583E-3
215.711975E-3
215.302849E-3
215.931702E-3
216.184044E-3
216.328812E-3
216.744804E-3
216.117096E-3
216.707039E-3
216.724205E-3
216.544533E-3
217.151070E-3
216.419220E-3
216.925049E-3
217.032623E-3
216.721916E-3
217.179108E-3
216.684151E-3
217.112160E-3
217.494392E-3
217.094994E-3
217.737579E-3
217.204285E-3
217.628288E-3
217.872620E-3
217.757607E-3
218.492889E-3
217.823982E-3
217.752457E-3
217.005730E-3
215.598679E-3
214.841652E-3
212.861824E-3
211.695099E-3
210.809326E-3
209.412575E-3
209.420013E-3
208.494759E-3
208.485603E-3
208.622932E-3
208.363724E-3
209.393692E-3
209.067535E-3
209.721565E-3
210.334969E-3
210.341835E-3
211.328316E-3
210.882568E-3
211.335182E-3
211.707115E-3
211.366653E-3
212.324524E-3
211.705971E-3
212.143135E-3
212.634659E-3
212.263298E-3
213.170815E-3
212.271881E-3
212.596893E-3
212.820625E-3
212.238693E-3
212.731934E-3
211.623001E-3
211.756325E-3
211.948013E-3
211.391258E-3
212.096214E-3
211.265373E-3
211.841011E-3
212.054443E-3
211.633301E-3
212.735939E-3
212.069321E-3
212.522507E-3
213.120461E-3
212.796021E-3
214.012527E-3
213.383102E-3
213.722420E-3
214.332390E-3
214.007950E-3
215.095139E-3
214.540672E-3
215.007591E-3
215.538025E-3
214.872551E-3
215.719986E-3
215.311432E-3
215.646172E-3
215.998650E-3
215.202141E-3
216.103363E-3
215.602684E-3
215.840149E-3
216.178322E-3
215.443611E-3
216.574287E-3
215.856171E-3
216.123962E-3
216.451836E-3
215.905380E-3
216.985130E-3
216.483307E-3
216.696739E-3
217.206001E-3
216.625214E-3
217.391968E-3
216.878128E-3
216.711044E-3
216.220665E-3
214.406776E-3
213.834572E-3
212.140846E-3
211.062241E-3
210.175323E-3
208.392334E-3
208.686447E-3
207.714844E-3
207.756042E-3
208.095360E-3
207.424164E-3
208.372879E-3
208.339119E-3
209.013176E-3
209.913254E-3
209.551048E-3
210.784721E-3
210.542679E-3
210.902596E-3
211.645317E-3
210.814476E-3
211.894798E-3
211.532593E-3
211.818695E-3
212.755966E-3
211.849022E-3
212.794876E-3
211.786652E-3
212.032127E-3
212.696457E-3
211.121750E-3
212.368011E-3
211.574936E-3
211.565781E-3
212.171745E-3
210.450554E-3
211.859322E-3
