Notes :


2023-11-06 ¿ÀÈÄ 10:19:21
Volts
Ch : LED 2,
455.746651E-3
455.790138E-3
456.033325E-3
456.084251E-3
456.229019E-3
456.497955E-3
456.556320E-3
456.563759E-3
456.499672E-3
456.433868E-3
456.337166E-3
456.158066E-3
456.135750E-3
455.990410E-3
455.815887E-3
455.746651E-3
455.600166E-3
455.436516E-3
455.334663E-3
455.188751E-3
455.220795E-3
455.128670E-3
454.972458E-3
454.847717E-3
454.705238E-3
454.660606E-3
454.541016E-3
454.376793E-3
454.240608E-3
454.209709E-3
454.284668E-3
454.222870E-3
454.129028E-3
454.016304E-3
453.925896E-3
453.932762E-3
453.781128E-3
453.714752E-3
453.658676E-3
453.532219E-3
453.405190E-3
453.258705E-3
453.116226E-3
453.020096E-3
453.001213E-3
452.956581E-3
452.727127E-3
452.598381E-3
452.348328E-3
452.177238E-3
452.021027E-3
451.838493E-3
451.697731E-3
451.466560E-3
451.450539E-3
451.449394E-3
451.360703E-3
451.492310E-3
451.863670E-3
452.536583E-3
453.509903E-3
454.683495E-3
455.909157E-3
456.885910E-3
457.886696E-3
458.562469E-3
458.836555E-3
458.821106E-3
458.592796E-3
458.265495E-3
457.853508E-3
457.472992E-3
457.036972E-3
456.624413E-3
456.321144E-3
456.170082E-3
456.024170E-3
456.005287E-3
455.984688E-3
456.163216E-3
456.099701E-3
456.010437E-3
455.995560E-3
455.703735E-3
455.417061E-3
455.205345E-3
454.947281E-3
454.847717E-3
454.793930E-3
454.833412E-3
454.815102E-3
454.887199E-3
454.953575E-3
455.103493E-3
455.128098E-3
455.224800E-3
455.189896E-3
455.312347E-3
455.205917E-3
455.138969E-3
455.106926E-3
454.947853E-3
454.873466E-3
454.737854E-3
454.590797E-3
454.449463E-3
454.363060E-3
454.347038E-3
454.222298E-3
454.196548E-3
454.064369E-3
453.962517E-3
453.862381E-3
453.845787E-3
453.678703E-3
453.709030E-3
453.539085E-3
453.474426E-3
453.449249E-3
453.284454E-3
453.295326E-3
453.194618E-3
453.183174E-3
453.198051E-3
453.108215E-3
453.019524E-3
453.000069E-3
453.079033E-3
453.010941E-3
452.939987E-3
452.934265E-3
452.894211E-3
452.824974E-3
452.719688E-3
452.705383E-3
452.666473E-3
452.577782E-3
452.563477E-3
452.572060E-3
452.485085E-3
452.455902E-3
452.205276E-3
452.125740E-3
451.979256E-3
451.865959E-3
451.743507E-3
451.696014E-3
451.621628E-3
451.649094E-3
451.692581E-3
451.868820E-3
452.342606E-3
453.162575E-3
454.110718E-3
455.265999E-3
456.431007E-3
457.498169E-3
458.288383E-3
458.822250E-3
458.951569E-3
458.802223E-3
458.503532E-3
458.147049E-3
457.649803E-3
457.166290E-3
456.732559E-3
456.306839E-3
456.182671E-3
455.888557E-3
455.807877E-3
455.882263E-3
455.946350E-3
455.964661E-3
455.893135E-3
455.823326E-3
455.744362E-3
455.341530E-3
455.134964E-3
454.859161E-3
454.681206E-3
454.665756E-3
454.603958E-3
454.671478E-3
454.685783E-3
454.766464E-3
454.901505E-3
455.026245E-3
455.023956E-3
455.040550E-3
455.078316E-3
455.030251E-3
454.979324E-3
454.792786E-3
454.723549E-3
454.540443E-3
454.345894E-3
454.145622E-3
454.122734E-3
453.962517E-3
453.837204E-3
453.743935E-3
453.606033E-3
453.495026E-3
453.393745E-3
453.303337E-3
453.215790E-3
453.144264E-3
453.051567E-3
452.957726E-3
452.923393E-3
452.787209E-3
452.693939E-3
452.567482E-3
452.514267E-3
452.468491E-3
452.359772E-3
452.268219E-3
452.121162E-3
452.018166E-3
451.917458E-3
451.892853E-3
451.899147E-3
451.853943E-3
451.729202E-3
451.643944E-3
451.578712E-3
451.435661E-3
451.386452E-3
451.259422E-3
451.192474E-3
451.070023E-3
450.936127E-3
450.791931E-3
450.684357E-3
450.452614E-3
450.411987E-3
450.286102E-3
450.349617E-3
450.282097E-3
450.261497E-3
450.435448E-3
451.032257E-3
451.908302E-3
453.093338E-3
454.127312E-3
455.290031E-3
456.194115E-3
456.859016E-3
457.058716E-3
457.078743E-3
456.916809E-3
456.497955E-3
456.128311E-3
455.726624E-3
455.272293E-3
454.986763E-3
454.510689E-3
454.241180E-3
454.031181E-3
453.927612E-3
453.905296E-3
453.924751E-3
454.012871E-3
454.013443E-3
453.938484E-3
453.772545E-3
453.599739E-3
453.305054E-3
453.125381E-3
452.942276E-3
452.950859E-3
452.962875E-3
453.056145E-3
453.198051E-3
453.295326E-3
453.383446E-3
453.535652E-3
453.602028E-3
453.591156E-3
453.538513E-3
453.461838E-3
453.372574E-3
453.287888E-3
453.230095E-3
452.977180E-3
452.891922E-3
452.684784E-3
452.569771E-3
452.516556E-3
452.360916E-3
452.375793E-3
452.138329E-3
452.090836E-3
452.077103E-3
452.006721E-3
451.915169E-3
451.840210E-3
451.732635E-3
451.738930E-3
451.673698E-3
451.660538E-3
451.455116E-3
451.372719E-3
451.313210E-3
451.274872E-3
451.200485E-3
451.107788E-3
450.978470E-3
451.074600E-3
450.996780E-3
450.962448E-3
450.936699E-3
450.959015E-3
450.890923E-3
450.838852E-3
450.857735E-3
450.789070E-3
450.754738E-3
450.718689E-3
450.706673E-3
450.654602E-3
450.536728E-3
450.386238E-3
450.259781E-3
450.213432E-3
450.178528E-3
449.950218E-3
449.822617E-3
449.808884E-3
449.747658E-3
449.763680E-3
449.905014E-3
450.257492E-3
451.060295E-3
451.903725E-3
453.082466E-3
454.310989E-3
455.323219E-3
456.295967E-3
456.806374E-3
457.076454E-3
457.007790E-3
456.827545E-3
456.491661E-3
456.124878E-3
455.656242E-3
455.339241E-3
454.902649E-3
454.569626E-3
454.426575E-3
454.390526E-3
454.400253E-3
454.424858E-3
454.418564E-3
454.390526E-3
454.415703E-3
454.313850E-3
454.100990E-3
453.952217E-3
453.695869E-3
453.447533E-3
453.378296E-3
453.313637E-3
453.285027E-3
453.256416E-3
453.372574E-3
453.398895E-3
453.494453E-3
453.587723E-3
453.670692E-3
453.769684E-3
453.816605E-3
453.802299E-3
453.792000E-3
453.702164E-3
453.580284E-3
453.490448E-3
453.346825E-3
453.298759E-3
453.151131E-3
452.988625E-3
452.810097E-3
452.701950E-3
452.591515E-3
452.503967E-3
452.499962E-3
452.384377E-3
452.155495E-3
452.049637E-3
451.919174E-3
451.924896E-3
451.859665E-3
451.804161E-3
451.723480E-3
451.641655E-3
451.750374E-3
451.638222E-3
451.542091E-3
451.590157E-3
451.464844E-3
451.487732E-3
451.460266E-3
451.393318E-3
451.370430E-3
451.274872E-3
451.266289E-3
451.219940E-3
451.264572E-3
451.234245E-3
451.175308E-3
451.140976E-3
451.096344E-3
451.056290E-3
451.047134E-3
450.952148E-3
450.876045E-3
450.765610E-3
450.630569E-3
450.587654E-3
450.399399E-3
450.329018E-3
450.244331E-3
450.151062E-3
450.147057E-3
450.158501E-3
450.267220E-3
450.605392E-3
451.372719E-3
452.322006E-3
453.291893E-3
454.436874E-3
455.501747E-3
456.383514E-3
456.865883E-3
456.974602E-3
456.869316E-3
456.542015E-3
456.182098E-3
455.780411E-3
455.312920E-3
454.889488E-3
454.496384E-3
454.139328E-3
453.909874E-3
453.908157E-3
453.865814E-3
453.836060E-3
453.914452E-3
453.884697E-3
453.744507E-3
453.626633E-3
453.391457E-3
453.120232E-3
452.921677E-3
452.784920E-3
452.752304E-3
452.746582E-3
452.826691E-3
452.884483E-3
452.943993E-3
453.096771E-3
453.184891E-3
453.266144E-3
453.279305E-3
453.281021E-3
453.125954E-3
453.148270E-3
453.049278E-3
453.001213E-3
452.831268E-3
452.774620E-3
452.570343E-3
452.433014E-3
452.407265E-3
452.235603E-3
452.085686E-3
451.960945E-3
451.898575E-3
451.782417E-3
451.588440E-3
451.571274E-3
451.554680E-3
451.528358E-3
451.418495E-3
451.315498E-3
451.157570E-3
451.049423E-3
450.956154E-3
450.872612E-3
450.818253E-3
450.745010E-3
450.755310E-3
450.628853E-3
450.667191E-3
450.633430E-3
450.569916E-3
450.509834E-3
450.450325E-3
450.468063E-3
450.448608E-3
450.337029E-3
450.286102E-3
450.197983E-3
450.101852E-3
450.020599E-3
449.962234E-3
449.844360E-3
449.743652E-3
449.582291E-3
449.484444E-3
449.319649E-3
449.158287E-3
449.134827E-3
449.051857E-3
448.935127E-3
449.004936E-3
449.427795E-3
450.089836E-3
451.064873E-3
452.101707E-3
453.212929E-3
454.102135E-3
454.837418E-3
455.334663E-3
455.469704E-3
455.318069E-3
454.912376E-3
454.583931E-3
454.264641E-3
453.777695E-3
453.417206E-3
453.109360E-3
452.870750E-3
452.590942E-3
452.435875E-3
452.441597E-3
452.435875E-3
452.487373E-3
452.565765E-3
452.521706E-3
452.410698E-3
452.180099E-3
452.017021E-3
451.772690E-3
451.693153E-3
451.646233E-3
451.686287E-3
451.807022E-3
451.960373E-3
452.029610E-3
452.090836E-3
452.233887E-3
452.298546E-3
452.359772E-3
452.337456E-3
452.347183E-3
452.308846E-3
452.233315E-3
452.157784E-3
452.034760E-3
451.929474E-3
451.819611E-3
451.760674E-3
451.547241E-3
451.414490E-3
451.342392E-3
451.269722E-3
451.194191E-3
451.097488E-3
451.020241E-3
450.996780E-3
450.830269E-3
450.806236E-3
450.714684E-3
450.628853E-3
450.533295E-3
450.430298E-3
450.419426E-3
450.367355E-3
450.251198E-3
450.311852E-3
450.189400E-3
450.156212E-3
450.044060E-3
450.081253E-3
450.052071E-3
449.981689E-3
449.898148E-3
449.901581E-3
449.866104E-3
449.839783E-3
449.842644E-3
449.765968E-3
449.784279E-3
449.661827E-3
449.606895E-3
449.490738E-3
449.327660E-3
449.226379E-3
449.125671E-3
448.942566E-3
448.877335E-3
448.839569E-3
448.747444E-3
448.670769E-3
448.733139E-3
449.003792E-3
449.570274E-3
450.504684E-3
451.520348E-3
452.576065E-3
453.645515E-3
454.538727E-3
455.217361E-3
455.646515E-3
455.779839E-3
455.628204E-3
455.404472E-3
455.021095E-3
454.682350E-3
454.241180E-3
453.953934E-3
453.691292E-3
453.415489E-3
453.278732E-3
453.197479E-3
453.251839E-3
453.281593E-3
453.369141E-3
453.388023E-3
453.396034E-3
453.317070E-3
453.167725E-3
453.018951E-3
452.818680E-3
452.641869E-3
452.569199E-3
452.622414E-3
452.721405E-3
452.742577E-3
452.869606E-3
453.009224E-3
453.137398E-3
453.199768E-3
453.242111E-3
453.312492E-3
453.368568E-3
453.326797E-3
453.305054E-3
453.166580E-3
453.053284E-3
452.956009E-3
452.778625E-3
452.673912E-3
452.609253E-3
452.521133E-3
452.383232E-3
452.235603E-3
452.142334E-3
451.972961E-3
451.922607E-3
451.859665E-3
451.762390E-3
451.691437E-3
451.650810E-3
451.567268E-3
451.522064E-3
451.565552E-3
451.448250E-3
451.375008E-3
451.317215E-3
451.253700E-3
451.220512E-3
451.119804E-3
451.076317E-3
451.090622E-3
451.047134E-3
451.094627E-3
451.015091E-3
450.961876E-3
451.013947E-3
450.977325E-3
450.975609E-3
450.973320E-3
450.970459E-3
450.877190E-3
450.807953E-3
450.647736E-3
450.576782E-3
450.505829E-3
450.439453E-3
450.349617E-3
450.280952E-3
450.238037E-3
450.117302E-3
450.085831E-3
450.146484E-3
450.415993E-3
450.967026E-3
451.782990E-3
452.901649E-3
453.959656E-3
455.003929E-3
455.882263E-3
456.493378E-3
456.765175E-3
456.784630E-3
456.570625E-3
456.291389E-3
455.902863E-3
455.505180E-3
455.031395E-3
454.613113E-3
454.286385E-3
453.975105E-3
453.880692E-3
453.808022E-3
453.754807E-3
453.827477E-3
453.809166E-3
453.778267E-3
453.755951E-3
453.508759E-3
453.357124E-3
453.127098E-3
452.999496E-3
452.935982E-3
452.910805E-3
453.010941E-3
453.026962E-3
453.176308E-3
453.293610E-3
453.377151E-3
453.480148E-3
453.605461E-3
453.533363E-3
453.504753E-3
453.395462E-3
453.398323E-3
453.290749E-3
453.191185E-3
452.994919E-3
452.817535E-3
452.704811E-3
452.636147E-3
452.533722E-3
452.423859E-3
452.395821E-3
452.315712E-3
452.223015E-3
452.113152E-3
452.038765E-3
451.986694E-3
451.885414E-3
451.748085E-3
451.762962E-3
451.609612E-3
451.544952E-3
451.485443E-3
451.374435E-3
451.310921E-3
451.297760E-3
451.183891E-3
451.183891E-3
451.136971E-3
451.144409E-3
451.043129E-3
451.000214E-3
450.986481E-3
450.961304E-3
450.947571E-3
450.872612E-3
450.825691E-3
450.853729E-3
450.758743E-3
450.634003E-3
450.632858E-3
450.379944E-3
450.339890E-3
450.216293E-3
450.057220E-3
450.169373E-3
450.042915E-3
450.081825E-3
450.273514E-3
450.695801E-3
451.457977E-3
452.370644E-3
453.460693E-3
454.511833E-3
455.387878E-3
456.033897E-3
456.427574E-3
456.579781E-3
456.444740E-3
456.214142E-3
455.882263E-3
455.466843E-3
455.003929E-3
454.657173E-3
454.356194E-3
454.134178E-3
453.943062E-3
453.866386E-3
453.761101E-3
453.816032E-3
453.863525E-3
453.908157E-3
453.945351E-3
453.777695E-3
453.472710E-3
453.318787E-3
453.060722E-3
453.041267E-3
453.004646E-3
453.024673E-3
453.123093E-3
453.265572E-3
453.413200E-3
453.602028E-3
453.584862E-3
453.659821E-3
453.671265E-3
453.680420E-3
453.586006E-3
453.541946E-3
453.388023E-3
453.290176E-3
453.176880E-3
453.151703E-3
453.093910E-3
452.974892E-3
452.746582E-3
452.637863E-3
452.553177E-3
452.471924E-3
452.450180E-3
452.287102E-3
452.282524E-3
452.170372E-3
452.049637E-3
452.052498E-3
452.021599E-3
451.887703E-3
451.893425E-3
451.786995E-3
451.717186E-3
451.565552E-3
451.531792E-3
451.541519E-3
451.368141E-3
451.357841E-3
451.325226E-3
451.328659E-3
451.351547E-3
451.277161E-3
451.267433E-3
451.289177E-3
451.202202E-3
451.199913E-3
451.095772E-3
451.030540E-3
450.944710E-3
450.855446E-3
450.762749E-3
450.657463E-3
450.613976E-3
450.536156E-3
450.452042E-3
450.467491E-3
450.335884E-3
450.376511E-3
450.543022E-3
451.044846E-3
451.896286E-3
452.797508E-3
453.903580E-3
455.031395E-3
455.921745E-3
456.658745E-3
457.091904E-3
457.325935E-3
457.249260E-3
457.078171E-3
456.822395E-3
456.371498E-3
455.990982E-3
455.641937E-3
455.316925E-3
455.090332E-3
454.929543E-3
455.003929E-3
454.920959E-3
454.989052E-3
455.062294E-3
455.116653E-3
455.015945E-3
454.874611E-3
454.698372E-3
454.523277E-3
454.290962E-3
454.254341E-3
454.122734E-3
454.150200E-3
454.206848E-3
454.168510E-3
454.372787E-3
454.381371E-3
454.593658E-3
454.629707E-3
454.730415E-3
454.824829E-3
454.798508E-3
454.755020E-3
454.697227E-3
454.694939E-3
454.571342E-3
454.373360E-3
454.387093E-3
454.279518E-3
454.132462E-3
454.118156E-3
454.011154E-3
453.953362E-3
453.785706E-3
453.641510E-3
453.706169E-3
453.537941E-3
453.500175E-3
453.460693E-3
453.378296E-3
453.358841E-3
453.285599E-3
453.215790E-3
453.183746E-3
453.103638E-3
452.998924E-3
453.032684E-3
453.064156E-3
453.033829E-3
452.924538E-3
452.903366E-3
452.903366E-3
452.903938E-3
452.877617E-3
452.865028E-3
452.863312E-3
452.807236E-3
452.764320E-3
452.714539E-3
452.764320E-3
452.671051E-3
452.503395E-3
452.449608E-3
452.351189E-3
452.207565E-3
452.102280E-3
452.071381E-3
452.044487E-3
451.997566E-3
451.996994E-3
452.196693E-3
452.682495E-3
453.464127E-3
454.465485E-3
455.526352E-3
456.515121E-3
457.379150E-3
458.127022E-3
458.502960E-3
458.526993E-3
458.398819E-3
458.056068E-3
457.710457E-3
457.357407E-3
456.843567E-3
456.513405E-3
456.226158E-3
456.044197E-3
455.928040E-3
455.923462E-3
455.895424E-3
455.936050E-3
455.951500E-3
455.955505E-3
455.787849E-3
455.730057E-3
455.382156E-3
455.206490E-3
455.036545E-3
455.049133E-3
454.993057E-3
455.106354E-3
455.097198E-3
455.238533E-3
455.375290E-3
455.466270E-3
455.410194E-3
455.464554E-3
455.467987E-3
455.475998E-3
455.360985E-3
455.308342E-3
455.195045E-3
455.075455E-3
454.870033E-3
454.811096E-3
454.602814E-3
454.452324E-3
454.352188E-3
454.264069E-3
454.162216E-3
454.079247E-3
454.012871E-3
453.882980E-3
453.742790E-3
453.696442E-3
453.581429E-3
453.544235E-3
453.506470E-3
453.369713E-3
453.331947E-3
453.204918E-3
453.079605E-3
