Notes :


2023-11-04 ¿ÀÈÄ 6:57:45
Volts
Ch : LED 2,
323.847771E-3
323.466110E-3
323.501015E-3
323.338509E-3
323.331642E-3
323.150826E-3
322.985458E-3
322.949982E-3
322.904205E-3
322.763443E-3
322.900200E-3
322.777748E-3
322.614670E-3
322.474480E-3
322.259903E-3
322.073936E-3
321.994400E-3
321.898270E-3
321.807861E-3
321.809006E-3
321.779251E-3
321.658516E-3
321.619034E-3
321.471977E-3
321.227646E-3
321.029091E-3
320.960426E-3
320.772743E-3
320.771027E-3
320.538139E-3
320.589066E-3
320.508385E-3
320.523834E-3
320.584488E-3
321.015930E-3
322.220993E-3
323.993111E-3
326.399231E-3
329.281998E-3
332.284355E-3
335.124779E-3
337.418747E-3
338.939095E-3
339.632607E-3
339.493561E-3
338.691330E-3
337.486839E-3
336.027145E-3
334.505653E-3
333.155251E-3
331.963348E-3
331.023788E-3
330.432701E-3
329.910278E-3
329.997826E-3
330.202675E-3
330.538559E-3
330.853271E-3
331.107903E-3
331.100464E-3
330.760002E-3
330.137444E-3
329.631615E-3
328.930664E-3
328.486633E-3
328.616524E-3
328.888321E-3
329.398155E-3
329.956627E-3
330.287361E-3
330.623817E-3
330.598068E-3
330.754852E-3
330.529976E-3
330.217552E-3
329.849625E-3
329.272270E-3
328.722382E-3
328.261757E-3
327.626038E-3
327.073288E-3
326.420403E-3
325.908852E-3
325.507736E-3
325.328636E-3
325.175858E-3
324.881744E-3
324.873161E-3
324.750710E-3
324.650002E-3
324.652290E-3
324.569893E-3
324.579620E-3
324.468613E-3
324.466896E-3
324.525833E-3
324.579048E-3
324.609375E-3
324.425125E-3
324.427414E-3
324.422264E-3
324.312401E-3
324.216270E-3
324.129295E-3
324.101257E-3
324.051476E-3
323.877525E-3
323.779106E-3
323.737335E-3
323.643494E-3
323.485565E-3
323.329926E-3
323.077583E-3
322.772598E-3
322.702789E-3
322.517395E-3
322.377205E-3
322.260475E-3
322.146034E-3
322.093964E-3
322.081947E-3
322.016716E-3
321.955490E-3
321.915436E-3
321.775246E-3
321.578407E-3
321.254539E-3
321.021652E-3
320.849419E-3
320.522118E-3
320.387650E-3
320.240021E-3
320.118713E-3
320.320702E-3
320.505524E-3
321.124077E-3
322.337151E-3
324.410248E-3
327.040100E-3
330.031586E-3
333.262825E-3
336.457443E-3
338.924789E-3
340.602493E-3
341.279984E-3
341.178703E-3
340.264320E-3
339.139938E-3
337.723160E-3
336.151886E-3
334.580040E-3
333.538055E-3
332.598495E-3
332.079506E-3
331.767082E-3
331.866646E-3
332.021141E-3
332.375908E-3
332.940102E-3
333.411598E-3
333.516884E-3
333.411026E-3
333.024788E-3
332.336998E-3
331.535339E-3
330.945396E-3
330.509377E-3
330.443001E-3
330.583763E-3
330.806351E-3
331.185722E-3
331.432915E-3
331.642342E-3
331.772232E-3
331.686401E-3
331.502724E-3
331.210899E-3
330.834389E-3
330.372620E-3
329.879951E-3
329.378700E-3
328.703499E-3
328.129578E-3
327.611732E-3
327.119064E-3
326.692200E-3
326.295090E-3
325.995827E-3
325.816154E-3
325.616455E-3
325.502586E-3
325.353241E-3
325.202179E-3
325.203323E-3
324.975014E-3
324.925232E-3
324.905777E-3
324.783897E-3
324.691200E-3
324.514961E-3
324.502373E-3
324.413681E-3
324.309540E-3
324.286079E-3
324.181366E-3
324.105263E-3
324.010277E-3
323.870087E-3
323.784256E-3
323.450661E-3
323.257828E-3
322.814369E-3
322.734833E-3
322.530556E-3
322.436714E-3
322.258759E-3
322.041321E-3
321.922874E-3
321.885681E-3
321.700859E-3
321.441650E-3
321.293449E-3
321.188736E-3
321.073723E-3
320.831108E-3
320.768166E-3
320.632553E-3
320.505524E-3
320.302963E-3
320.022583E-3
319.887543E-3
319.774246E-3
319.523621E-3
319.312477E-3
319.134521E-3
319.147110E-3
319.141388E-3
319.212914E-3
319.532776E-3
320.352173E-3
322.181511E-3
324.687195E-3
327.710724E-3
330.871582E-3
333.798981E-3
336.363029E-3
338.078499E-3
338.984871E-3
338.925362E-3
338.047028E-3
336.897469E-3
335.391998E-3
333.874512E-3
332.505226E-3
331.157684E-3
330.164337E-3
329.422188E-3
329.036522E-3
328.909492E-3
328.916359E-3
329.269981E-3
329.678535E-3
329.940605E-3
330.071640E-3
330.134583E-3
329.901123E-3
329.204750E-3
328.509521E-3
328.055191E-3
327.730179E-3
327.640915E-3
327.892685E-3
328.372192E-3
328.764725E-3
328.973579E-3
329.203606E-3
329.307175E-3
329.279709E-3
329.067993E-3
328.713226E-3
328.250885E-3
327.869797E-3
327.227211E-3
326.664734E-3
326.136017E-3
325.623322E-3
325.083160E-3
324.548149E-3
324.161911E-3
323.862076E-3
323.566246E-3
323.449516E-3
323.265266E-3
323.119354E-3
323.030090E-3
322.920799E-3
322.836113E-3
322.705650E-3
322.622681E-3
322.366333E-3
322.532272E-3
322.504807E-3
322.434425E-3
322.517395E-3
322.436714E-3
322.524261E-3
322.466469E-3
322.397232E-3
322.191238E-3
322.111130E-3
322.017288E-3
322.005844E-3
321.936035E-3
321.772957E-3
321.650505E-3
321.584129E-3
321.496582E-3
321.411896E-3
321.315193E-3
321.177864E-3
321.075439E-3
320.952988E-3
320.767593E-3
320.665741E-3
320.452309E-3
320.259476E-3
320.054054E-3
319.858360E-3
319.740486E-3
319.524765E-3
319.367981E-3
319.263840E-3
319.243240E-3
319.425774E-3
319.099617E-3
319.178581E-3
319.541359E-3
320.520401E-3
322.331429E-3
324.809647E-3
327.854919E-3
330.872154E-3
333.788681E-3
336.095238E-3
337.526894E-3
338.161469E-3
337.992096E-3
337.165833E-3
335.991669E-3
334.532547E-3
333.014488E-3
331.592560E-3
330.370903E-3
329.396439E-3
328.631401E-3
328.225708E-3
328.156471E-3
328.037453E-3
328.301239E-3
328.408241E-3
328.878021E-3
328.741264E-3
328.294945E-3
327.804565E-3
327.231216E-3
326.831245E-3
326.697350E-3
326.723671E-3
327.010345E-3
327.319336E-3
327.853775E-3
328.376770E-3
328.614807E-3
328.873444E-3
328.865433E-3
328.791618E-3
328.553581E-3
328.215981E-3
327.775955E-3
327.416039E-3
326.796913E-3
326.304245E-3
325.649071E-3
325.119781E-3
324.575615E-3
324.086952E-3
323.737335E-3
323.360252E-3
323.223495E-3
323.079300E-3
322.990036E-3
322.910500E-3
322.813225E-3
322.836685E-3
322.673607E-3
322.653580E-3
322.710228E-3
322.590065E-3
322.634697E-3
322.668457E-3
322.631264E-3
322.750282E-3
322.634697E-3
322.770882E-3
322.639275E-3
322.542000E-3
322.515678E-3
322.359467E-3
322.291946E-3
322.215843E-3
322.102547E-3
322.012711E-3
321.849632E-3
321.794128E-3
321.699715E-3
321.605873E-3
321.499443E-3
321.259689E-3
321.046257E-3
320.813370E-3
320.750427E-3
320.508957E-3
320.534134E-3
320.341301E-3
320.214844E-3
319.918442E-3
319.787407E-3
319.581985E-3
319.419479E-3
319.123077E-3
319.099045E-3
318.892479E-3
318.891335E-3
319.025230E-3
319.487572E-3
320.630264E-3
322.690773E-3
325.386429E-3
328.609085E-3
331.952477E-3
334.947968E-3
337.318039E-3
338.902473E-3
339.578819E-3
339.502144E-3
338.867569E-3
337.766647E-3
336.312103E-3
334.632683E-3
333.333206E-3
332.278061E-3
331.341934E-3
330.647278E-3
330.323982E-3
330.200958E-3
330.257607E-3
330.576897E-3
331.000328E-3
331.378555E-3
331.594276E-3
331.608009E-3
331.360245E-3
330.809784E-3
330.077362E-3
329.425621E-3
328.955841E-3
328.819084E-3
328.697777E-3
328.966713E-3
329.266548E-3
329.507446E-3
329.774666E-3
329.896545E-3
329.782677E-3
329.753494E-3
329.611588E-3
329.312897E-3
328.886032E-3
328.213692E-3
327.664948E-3
327.046967E-3
326.462746E-3
325.600433E-3
325.249672E-3
324.898911E-3
324.570465E-3
324.389076E-3
324.195671E-3
324.005699E-3
323.907280E-3
323.664093E-3
323.686981E-3
323.440361E-3
323.237228E-3
323.182297E-3
322.994041E-3
322.990608E-3
323.020935E-3
322.912788E-3
322.823524E-3
322.676468E-3
322.584343E-3
322.476196E-3
322.323418E-3
322.223282E-3
322.148895E-3
321.987534E-3
321.689987E-3
321.517181E-3
321.539497E-3
321.184731E-3
320.976448E-3
320.805359E-3
320.734978E-3
320.522118E-3
320.385361E-3
320.292664E-3
320.142746E-3
319.901848E-3
319.873810E-3
319.698715E-3
319.471550E-3
319.349670E-3
319.161415E-3
318.928528E-3
318.649292E-3
318.487930E-3
318.257904E-3
318.050766E-3
318.025589E-3
318.086243E-3
318.188095E-3
318.261909E-3
318.784332E-3
319.974518E-3
322.163773E-3
325.000763E-3
327.999687E-3
331.140518E-3
333.851624E-3
335.894966E-3
337.137222E-3
337.454796E-3
336.886597E-3
336.040878E-3
334.743690E-3
333.390427E-3
331.892967E-3
330.656433E-3
329.444504E-3
328.521538E-3
328.058624E-3
327.534485E-3
327.585983E-3
327.708435E-3
328.017426E-3
328.432846E-3
328.614807E-3
328.699493E-3
328.454590E-3
327.813721E-3
327.143669E-3
326.529694E-3
326.207542E-3
326.136017E-3
326.363182E-3
326.760292E-3
327.056122E-3
327.525902E-3
327.791977E-3
327.807999E-3
327.922440E-3
327.804565E-3
327.491570E-3
327.097321E-3
326.588631E-3
326.113701E-3
325.513458E-3
324.948120E-3
324.551010E-3
323.956490E-3
323.552513E-3
323.069572E-3
322.764015E-3
322.649002E-3
322.408676E-3
322.327995E-3
322.109985E-3
321.899414E-3
321.813011E-3
321.713448E-3
321.715164E-3
321.616745E-3
321.653366E-3
321.742058E-3
321.594429E-3
321.714020E-3
321.689415E-3
321.712303E-3
321.723747E-3
321.623611E-3
321.573257E-3
321.439934E-3
321.464539E-3
321.240234E-3
321.332359E-3
321.338081E-3
321.243095E-3
321.236801E-3
321.076012E-3
320.831108E-3
320.746422E-3
320.635986E-3
320.503807E-3
320.288658E-3
320.103836E-3
319.918442E-3
319.708443E-3
319.491005E-3
319.303322E-3
319.011497E-3
318.660164E-3
318.363762E-3
318.210983E-3
318.118286E-3
318.171501E-3
318.265915E-3
318.394661E-3
318.964577E-3
320.290947E-3
322.427559E-3
325.183868E-3
328.139877E-3
331.088448E-3
333.819580E-3
335.746765E-3
336.912918E-3
337.168121E-3
336.766434E-3
335.856628E-3
334.652710E-3
333.193588E-3
331.827736E-3
330.596924E-3
329.647064E-3
328.823662E-3
328.363037E-3
328.058052E-3
328.026581E-3
328.097534E-3
328.397942E-3
328.673172E-3
328.826523E-3
328.745842E-3
328.387642E-3
327.719879E-3
327.190018E-3
326.771736E-3
326.508522E-3
326.572609E-3
326.807213E-3
327.431488E-3
327.830315E-3
328.174782E-3
328.554726E-3
328.447723E-3
328.611946E-3
328.465462E-3
328.142166E-3
327.741051E-3
327.184296E-3
326.717377E-3
326.152039E-3
325.693703E-3
325.227356E-3
324.532700E-3
324.050331E-3
323.610878E-3
323.281860E-3
323.117638E-3
322.871590E-3
322.798347E-3
322.660446E-3
322.624397E-3
322.596931E-3
322.412682E-3
322.367477E-3
322.317123E-3
322.301674E-3
322.321129E-3
322.199821E-3
322.220993E-3
322.255898E-3
322.275352E-3
322.272491E-3
322.121429E-3
322.184944E-3
322.099113E-3
321.999550E-3
321.931458E-3
321.799850E-3
321.902275E-3
321.641350E-3
321.400452E-3
321.252251E-3
321.142387E-3
321.062279E-3
320.936966E-3
320.730972E-3
320.707512E-3
320.620537E-3
320.364761E-3
320.102119E-3
319.868660E-3
319.626045E-3
319.345665E-3
319.107628E-3
318.872452E-3
318.598366E-3
318.507385E-3
318.476486E-3
318.698502E-3
318.970871E-3
319.612312E-3
321.093750E-3
323.365402E-3
326.312828E-3
329.312325E-3
332.370186E-3
335.187149E-3
337.278557E-3
338.522530E-3
338.848114E-3
338.456726E-3
337.539482E-3
336.123848E-3
334.811211E-3
333.453941E-3
332.316399E-3
331.294441E-3
330.562592E-3
330.180931E-3
329.917145E-3
330.029297E-3
330.228424E-3
330.429840E-3
330.897903E-3
331.163406E-3
331.222343E-3
330.937386E-3
330.307961E-3
329.613304E-3
328.885460E-3
328.514099E-3
328.232002E-3
328.242874E-3
328.328705E-3
328.574753E-3
328.797340E-3
329.070854E-3
329.214478E-3
329.339790E-3
329.322624E-3
328.941536E-3
328.622818E-3
328.230858E-3
327.738762E-3
327.259827E-3
326.604652E-3
326.079941E-3
325.373268E-3
325.093460E-3
324.473190E-3
324.039459E-3
323.778534E-3
323.518181E-3
323.371124E-3
323.204041E-3
322.980881E-3
322.977448E-3
322.820091E-3
322.727966E-3
322.598076E-3
322.501945E-3
322.503662E-3
322.447014E-3
322.402954E-3
322.239304E-3
322.283363E-3
322.224426E-3
322.096252E-3
321.993256E-3
321.871948E-3
321.838188E-3
321.660233E-3
321.469116E-3
321.404457E-3
321.171570E-3
321.026230E-3
321.017075E-3
320.809937E-3
320.680046E-3
320.650291E-3
320.466614E-3
320.376205E-3
320.014000E-3
319.906425E-3
319.789124E-3
319.583702E-3
319.353676E-3
319.153976E-3
319.024658E-3
318.751717E-3
318.486786E-3
318.289375E-3
318.116570E-3
318.148613E-3
318.131447E-3
318.152046E-3
318.312263E-3
318.833542E-3
320.120430E-3
322.256470E-3
324.980164E-3
328.051758E-3
331.089020E-3
333.776665E-3
335.713577E-3
336.771584E-3
337.164116E-3
336.587334E-3
335.559654E-3
334.334564E-3
332.884026E-3
331.474113E-3
330.364609E-3
329.328346E-3
328.642845E-3
328.192520E-3
327.991104E-3
328.006554E-3
328.249741E-3
328.521538E-3
328.798485E-3
328.970146E-3
328.751564E-3
328.313255E-3
327.702713E-3
326.916504E-3
326.566315E-3
326.424408E-3
326.512527E-3
326.790619E-3
327.086449E-3
327.542496E-3
327.941322E-3
328.106689E-3
328.082085E-3
327.959633E-3
327.908707E-3
327.536774E-3
327.119637E-3
326.599503E-3
326.150322E-3
325.617027E-3
324.962997E-3
324.544716E-3
324.019432E-3
323.506165E-3
323.205185E-3
322.973442E-3
322.806931E-3
322.706795E-3
322.539711E-3
322.500229E-3
322.262764E-3
322.281075E-3
322.325706E-3
322.299957E-3
322.375488E-3
322.459030E-3
322.477913E-3
322.481918E-3
322.478485E-3
322.552872E-3
322.522545E-3
322.451591E-3
322.484779E-3
322.327995E-3
322.302246E-3
322.185516E-3
322.208405E-3
322.219849E-3
321.859932E-3
321.872520E-3
321.841049E-3
321.764374E-3
321.599007E-3
321.462822E-3
321.390152E-3
321.089745E-3
320.884323E-3
320.658875E-3
320.393372E-3
320.111847E-3
319.799995E-3
319.598007E-3
319.374847E-3
319.172287E-3
318.994331E-3
319.041252E-3
319.092751E-3
319.107056E-3
319.241524E-3
319.940186E-3
321.308899E-3
323.462677E-3
326.180077E-3
328.972435E-3
332.002831E-3
334.600639E-3
336.425972E-3
337.495995E-3
337.554932E-3
336.978722E-3
335.944748E-3
334.556580E-3
333.122063E-3
331.836891E-3
330.615234E-3
329.676247E-3
328.914642E-3
328.515816E-3
328.362465E-3
328.364182E-3
328.527832E-3
328.771019E-3
328.976440E-3
328.977013E-3
328.737831E-3
328.206253E-3
327.656937E-3
326.969719E-3
326.594353E-3
326.471329E-3
326.831818E-3
327.004623E-3
327.511024E-3
327.893257E-3
328.252602E-3
328.509521E-3
328.495216E-3
328.566170E-3
328.286934E-3
328.057480E-3
327.488708E-3
327.051544E-3
326.565170E-3
326.075935E-3
325.550652E-3
324.995041E-3
324.504662E-3
324.045181E-3
323.717880E-3
323.407173E-3
323.124504E-3
322.942543E-3
322.920799E-3
322.839546E-3
322.764587E-3
322.987747E-3
322.762871E-3
322.731400E-3
322.667885E-3
322.713661E-3
322.665024E-3
322.606659E-3
322.561455E-3
322.490501E-3
322.442436E-3
322.325706E-3
322.294235E-3
322.287941E-3
322.147751E-3
322.199821E-3
322.108841E-3
321.892548E-3
321.589851E-3
321.582985E-3
321.351242E-3
321.240807E-3
321.056557E-3
320.989037E-3
320.828247E-3
320.708084E-3
320.630836E-3
320.568466E-3
320.305252E-3
320.197678E-3
320.071220E-3
319.742203E-3
319.477272E-3
319.299889E-3
319.035530E-3
318.828964E-3
318.668175E-3
318.694496E-3
318.600082E-3
318.650436E-3
318.920517E-3
319.440079E-3
320.580482E-3
322.642136E-3
325.260544E-3
328.318977E-3
331.442070E-3
334.416962E-3
336.680603E-3
338.042450E-3
338.595200E-3
338.356018E-3
337.633324E-3
336.460304E-3
335.020638E-3
