Notes :


2023-10-24 ¿ÀÈÄ 9:58:44
Volts
Ch : LED 2,
227.564621E-3
227.067375E-3
227.952003E-3
226.678276E-3
228.026390E-3
227.984619E-3
227.324295E-3
227.867889E-3
226.883125E-3
228.372002E-3
228.480721E-3
228.209496E-3
229.610252E-3
228.672981E-3
230.197334E-3
229.882050E-3
229.167366E-3
229.790497E-3
228.647232E-3
230.063438E-3
230.022240E-3
229.278374E-3
230.240822E-3
229.314995E-3
230.994415E-3
231.000137E-3
230.312347E-3
231.197548E-3
230.013657E-3
231.637001E-3
231.693077E-3
230.772400E-3
231.629562E-3
230.818748E-3
232.577705E-3
232.456970E-3
231.947708E-3
232.749939E-3
231.937981E-3
233.475494E-3
233.580780E-3
232.629204E-3
233.417702E-3
232.497025E-3
234.051704E-3
234.314346E-3
233.453751E-3
234.498596E-3
233.644867E-3
235.004425E-3
234.807014E-3
233.704376E-3
234.560394E-3
233.811951E-3
235.181808E-3
235.343742E-3
234.182739E-3
235.021591E-3
234.108353E-3
235.465050E-3
235.372353E-3
234.482002E-3
235.513115E-3
234.585571E-3
236.045837E-3
235.671616E-3
235.187531E-3
235.982323E-3
235.315704E-3
236.417770E-3
236.587143E-3
235.537720E-3
236.279869E-3
235.279655E-3
235.548592E-3
234.507751E-3
232.695580E-3
232.439804E-3
230.438805E-3
230.592155E-3
230.050850E-3
229.187393E-3
230.005646E-3
229.064941E-3
230.038834E-3
230.442238E-3
229.580498E-3
230.565262E-3
230.250549E-3
231.379509E-3
231.298256E-3
230.423927E-3
231.425858E-3
230.603027E-3
231.717682E-3
231.670189E-3
230.481148E-3
231.334305E-3
230.948067E-3
232.067871E-3
232.298470E-3
232.020950E-3
233.087540E-3
232.184601E-3
233.514977E-3
233.274078E-3
232.039261E-3
233.148766E-3
232.060432E-3
232.999992E-3
232.870102E-3
232.250977E-3
233.315849E-3
232.468987E-3
233.201981E-3
233.541870E-3
231.987762E-3
233.186531E-3
232.892418E-3
234.048843E-3
234.261703E-3
233.705521E-3
234.708595E-3
233.638573E-3
234.573555E-3
234.891129E-3
234.202194E-3
235.419846E-3
234.296036E-3
235.039902E-3
235.290527E-3
234.717751E-3
235.754585E-3
234.824181E-3
235.624123E-3
236.091042E-3
235.227585E-3
236.106491E-3
234.975815E-3
235.748863E-3
235.934258E-3
235.241890E-3
236.421204E-3
235.466766E-3
236.120796E-3
236.602020E-3
235.329437E-3
236.613464E-3
235.763168E-3
236.457253E-3
236.845207E-3
235.998344E-3
237.048340E-3
236.110497E-3
237.039185E-3
237.532997E-3
236.636353E-3
237.578201E-3
236.522484E-3
237.528419E-3
237.980461E-3
237.078094E-3
237.974167E-3
237.297821E-3
238.339806E-3
238.493156E-3
236.956215E-3
237.134171E-3
235.400963E-3
234.862518E-3
233.990479E-3
231.832123E-3
232.044411E-3
230.419922E-3
230.774689E-3
230.672264E-3
229.561615E-3
230.835342E-3
230.149841E-3
231.088257E-3
231.646156E-3
230.513763E-3
231.889915E-3
231.061363E-3
231.845284E-3
231.805229E-3
230.145264E-3
231.961441E-3
230.966377E-3
231.475067E-3
231.671906E-3
230.803871E-3
232.481003E-3
231.809807E-3
232.507896E-3
232.830048E-3
232.113075E-3
234.019089E-3
232.976532E-3
233.270645E-3
233.794785E-3
232.554245E-3
233.850288E-3
232.691002E-3
233.357620E-3
233.603096E-3
232.387733E-3
233.923531E-3
232.775688E-3
233.169937E-3
233.885765E-3
232.877541E-3
234.392738E-3
233.195114E-3
233.797073E-3
234.214211E-3
233.498383E-3
235.065079E-3
233.754730E-3
234.561539E-3
234.891701E-3
234.135246E-3
235.622406E-3
234.469986E-3
234.930038E-3
235.406113E-3
234.457397E-3
236.030388E-3
234.899712E-3
235.110283E-3
235.801506E-3
234.845352E-3
236.499596E-3
235.269928E-3
235.378075E-3
236.354256E-3
235.402679E-3
236.492157E-3
235.648155E-3
235.729408E-3
236.248398E-3
235.723686E-3
237.072372E-3
235.865021E-3
235.938835E-3
236.791420E-3
235.616112E-3
237.329292E-3
236.121368E-3
236.365128E-3
237.000275E-3
235.613823E-3
237.672615E-3
236.268425E-3
236.702728E-3
237.643433E-3
236.834908E-3
238.645935E-3
237.268066E-3
237.533569E-3
238.284874E-3
237.241173E-3
239.201546E-3
237.296677E-3
236.449814E-3
236.263847E-3
234.240532E-3
234.744072E-3
231.948280E-3
231.178093E-3
230.996132E-3
229.589653E-3
231.056786E-3
229.436874E-3
229.661751E-3
230.481720E-3
229.939270E-3
231.694794E-3
230.663681E-3
230.918312E-3
231.947136E-3
231.079674E-3
232.489586E-3
230.932617E-3
230.946350E-3
231.754303E-3
231.007576E-3
232.400894E-3
230.910873E-3
231.119156E-3
232.026100E-3
231.607246E-3
233.571053E-3
232.439232E-3
232.435226E-3
233.258629E-3
232.332802E-3
233.967018E-3
232.200050E-3
232.207489E-3
233.025742E-3
232.138252E-3
233.504677E-3
232.233810E-3
232.408905E-3
233.419991E-3
232.603455E-3
233.794212E-3
232.799721E-3
232.938194E-3
233.718681E-3
232.636070E-3
234.469986E-3
233.197975E-3
233.440590E-3
234.475708E-3
233.865166E-3
235.258484E-3
233.862877E-3
233.867455E-3
234.796143E-3
234.205627E-3
235.494232E-3
234.244537E-3
234.448242E-3
235.311127E-3
234.666252E-3
236.031532E-3
234.680557E-3
235.004425E-3
235.838127E-3
234.907150E-3
236.429787E-3
235.085678E-3
235.160637E-3
235.927391E-3
235.190964E-3
236.426353E-3
234.971809E-3
235.251617E-3
235.972023E-3
235.225296E-3
236.637497E-3
235.728264E-3
235.472488E-3
236.263275E-3
235.548592E-3
236.907578E-3
235.811234E-3
236.172867E-3
236.968803E-3
236.295319E-3
237.584496E-3
236.672974E-3
236.544228E-3
237.068939E-3
235.685921E-3
237.010574E-3
235.374069E-3
234.350967E-3
233.774757E-3
231.761742E-3
231.752014E-3
230.104065E-3
229.374504E-3
229.877472E-3
228.968239E-3
229.856300E-3
229.253197E-3
229.531860E-3
230.346107E-3
229.791069E-3
230.998993E-3
230.366707E-3
230.442238E-3
231.433296E-3
230.928040E-3
231.754303E-3
230.812454E-3
230.857658E-3
231.638718E-3
230.877686E-3
232.152557E-3
231.361771E-3
231.567764E-3
232.802582E-3
232.167435E-3
233.375359E-3
232.324219E-3
232.361412E-3
232.819176E-3
231.859016E-3
233.022308E-3
231.925392E-3
232.276726E-3
232.352257E-3
231.610107E-3
232.950783E-3
232.063293E-3
231.925964E-3
232.683563E-3
231.374359E-3
233.440590E-3
232.712746E-3
232.721329E-3
233.423424E-3
232.957077E-3
234.377861E-3
233.568764E-3
233.568764E-3
234.400749E-3
233.791924E-3
235.129166E-3
234.214211E-3
234.234810E-3
234.833908E-3
234.174728E-3
235.559464E-3
234.750938E-3
234.530640E-3
235.219002E-3
234.444809E-3
236.040115E-3
235.113716E-3
234.761810E-3
235.331726E-3
234.959793E-3
236.233521E-3
235.140038E-3
235.263634E-3
236.088753E-3
235.240173E-3
236.251259E-3
235.289383E-3
235.262489E-3
235.828400E-3
235.079956E-3
236.568832E-3
235.652161E-3
235.396957E-3
236.226082E-3
234.348679E-3
236.685562E-3
236.184883E-3
236.296463E-3
236.965942E-3
236.228943E-3
237.795639E-3
236.780548E-3
236.624336E-3
236.852074E-3
235.211563E-3
235.304832E-3
233.266068E-3
231.816673E-3
231.316566E-3
229.251480E-3
229.858589E-3
228.574562E-3
228.271866E-3
228.544235E-3
227.924538E-3
229.502106E-3
228.757095E-3
228.616333E-3
229.486656E-3
228.952217E-3
230.103493E-3
229.470634E-3
229.348183E-3
230.162430E-3
229.504967E-3
230.566978E-3
229.705811E-3
229.238892E-3
229.963875E-3
229.225159E-3
230.851364E-3
230.261993E-3
230.588150E-3
231.562042E-3
229.609108E-3
231.550598E-3
231.333160E-3
230.889702E-3
231.579208E-3
230.818748E-3
232.137108E-3
231.184387E-3
230.769539E-3
231.466484E-3
229.527283E-3
231.449890E-3
230.889130E-3
231.132317E-3
232.120514E-3
231.384659E-3
232.808876E-3
232.127953E-3
231.886482E-3
232.404327E-3
231.952286E-3
233.074951E-3
232.757378E-3
232.540512E-3
233.271790E-3
232.746506E-3
234.154129E-3
233.144188E-3
233.160210E-3
234.013939E-3
233.101845E-3
234.528923E-3
233.783340E-3
233.377647E-3
234.095192E-3
232.446098E-3
234.415627E-3
233.974457E-3
233.985329E-3
234.942627E-3
233.896065E-3
235.013008E-3
234.567261E-3
234.226227E-3
235.287094E-3
234.097481E-3
235.276222E-3
234.754944E-3
234.554100E-3
235.346031E-3
234.359550E-3
235.533142E-3
234.926033E-3
234.708023E-3
235.750580E-3
234.542656E-3
235.950851E-3
235.700226E-3
235.265350E-3
236.517906E-3
234.647369E-3
236.615181E-3
236.210060E-3
235.963440E-3
237.182236E-3
235.899353E-3
236.774826E-3
235.177803E-3
233.751297E-3
233.300400E-3
230.898285E-3
230.852509E-3
229.218864E-3
228.091049E-3
228.372002E-3
226.836205E-3
227.910805E-3
227.320290E-3
226.975822E-3
228.121948E-3
227.079964E-3
228.654671E-3
228.320503E-3
228.262138E-3
229.208565E-3
228.351974E-3
229.159355E-3
228.949928E-3
228.343391E-3
228.848648E-3
227.870750E-3
229.034042E-3
229.014015E-3
228.904724E-3
230.058861E-3
229.154778E-3
230.490875E-3
230.400467E-3
230.030251E-3
230.992699E-3
229.831696E-3
230.928612E-3
230.573273E-3
229.935265E-3
230.896568E-3
229.350471E-3
230.514336E-3
230.212784E-3
229.565620E-3
230.448532E-3
229.549599E-3
230.982971E-3
231.011581E-3
230.692291E-3
231.335449E-3
230.606461E-3
231.902504E-3
231.657600E-3
231.480217E-3
232.078171E-3
231.131172E-3
232.320213E-3
232.376862E-3
232.108498E-3
232.879829E-3
231.706238E-3
232.868385E-3
232.788277E-3
232.103920E-3
232.863235E-3
232.082176E-3
233.255196E-3
233.062935E-3
232.564545E-3
233.437157E-3
232.153130E-3
233.560753E-3
233.468056E-3
232.943344E-3
233.652306E-3
232.272148E-3
233.905792E-3
233.892059E-3
233.171082E-3
233.673477E-3
232.430077E-3
233.938408E-3
234.029388E-3
233.483505E-3
234.131813E-3
232.785988E-3
234.353828E-3
234.292603E-3
233.827972E-3
234.288597E-3
233.361053E-3
235.131454E-3
235.151482E-3
234.643364E-3
235.434723E-3
234.310341E-3
235.622978E-3
235.300255E-3
234.286308E-3
234.679413E-3
232.398033E-3
232.276726E-3
230.660820E-3
228.808022E-3
228.606033E-3
226.348114E-3
227.473640E-3
226.898003E-3
226.007652E-3
227.067947E-3
225.647736E-3
227.557755E-3
227.685928E-3
227.314568E-3
228.362846E-3
227.396393E-3
229.021454E-3
228.889275E-3
227.915955E-3
228.654671E-3
227.597237E-3
228.984261E-3
228.936768E-3
228.359985E-3
229.153061E-3
228.288460E-3
230.378151E-3
230.129814E-3
229.506683E-3
230.408478E-3
229.099274E-3
230.691719E-3
230.387306E-3
229.289818E-3
229.995918E-3
228.648949E-3
230.023956E-3
230.018806E-3
228.919029E-3
229.551888E-3
228.743935E-3
230.434227E-3
230.245972E-3
229.768181E-3
230.485153E-3
229.665756E-3
231.433296E-3
231.440735E-3
230.608177E-3
231.299400E-3
230.315781E-3
231.766319E-3
232.030678E-3
231.137466E-3
231.860733E-3
231.131744E-3
232.396889E-3
232.341385E-3
231.184959E-3
232.191467E-3
231.435585E-3
232.692719E-3
232.818031E-3
231.762314E-3
232.703018E-3
231.717110E-3
233.032608E-3
232.989693E-3
232.213783E-3
233.087540E-3
232.221222E-3
233.497810E-3
233.419991E-3
232.408333E-3
233.280945E-3
232.332230E-3
233.580208E-3
233.727837E-3
232.649803E-3
233.405685E-3
232.688713E-3
233.858871E-3
233.995056E-3
233.225441E-3
234.167862E-3
233.485794E-3
234.731483E-3
234.816170E-3
233.957291E-3
234.841347E-3
233.959579E-3
234.790421E-3
234.262276E-3
232.419205E-3
232.035255E-3
229.950142E-3
229.304123E-3
228.236961E-3
225.983620E-3
226.090050E-3
225.026894E-3
225.767899E-3
225.558472E-3
225.191116E-3
226.074028E-3
225.331879E-3
226.508331E-3
226.681137E-3
226.139259E-3
227.117157E-3
226.316071E-3
227.564621E-3
227.638435E-3
226.816177E-3
227.525139E-3
226.227379E-3
227.311707E-3
227.339745E-3
226.903152E-3
228.258133E-3
227.442169E-3
228.764534E-3
229.209137E-3
228.632927E-3
229.366493E-3
228.268433E-3
229.258347E-3
228.991127E-3
228.155708E-3
228.686714E-3
227.822113E-3
228.724480E-3
229.017448E-3
228.308487E-3
229.205704E-3
228.247833E-3
229.202271E-3
229.382515E-3
228.841209E-3
229.499817E-3
228.681564E-3
229.637146E-3
229.922676E-3
229.418564E-3
230.498314E-3
229.568481E-3
230.494308E-3
231.083679E-3
230.208206E-3
231.111717E-3
230.066872E-3
231.155777E-3
231.249619E-3
230.673981E-3
231.694794E-3
230.468559E-3
231.444168E-3
231.643867E-3
231.064796E-3
232.332802E-3
231.395531E-3
232.179451E-3
232.078171E-3
230.574989E-3
231.620979E-3
231.255341E-3
232.209778E-3
232.581139E-3
231.542587E-3
232.736778E-3
231.951141E-3
232.747650E-3
232.782555E-3
231.912804E-3
233.264923E-3
232.347679E-3
233.203125E-3
233.519554E-3
232.079887E-3
233.436584E-3
232.570839E-3
233.480644E-3
233.631706E-3
233.069229E-3
234.325218E-3
233.373070E-3
234.281158E-3
234.513474E-3
233.769035E-3
234.405327E-3
232.922745E-3
232.655525E-3
231.646729E-3
229.289246E-3
228.758812E-3
226.309776E-3
226.300049E-3
225.773048E-3
224.419785E-3
225.208282E-3
224.220085E-3
225.099564E-3
225.670052E-3
224.983978E-3
225.757599E-3
225.329590E-3
226.320076E-3
226.638794E-3
225.675201E-3
226.952934E-3
225.830841E-3
226.790428E-3
226.704597E-3
225.765038E-3
226.996994E-3
225.947571E-3
226.798439E-3
227.231598E-3
226.647377E-3
227.514267E-3
227.182388E-3
228.028679E-3
228.313065E-3
227.332306E-3
228.119659E-3
227.521133E-3
228.182030E-3
228.173447E-3
226.078033E-3
227.664757E-3
226.894569E-3
227.634430E-3
227.968025E-3
227.102280E-3
228.481293E-3
227.710533E-3
228.557396E-3
229.082680E-3
228.049850E-3
229.176521E-3
228.472710E-3
229.199982E-3
229.426575E-3
228.442383E-3
229.929543E-3
229.120445E-3
230.060577E-3
230.142403E-3
229.488373E-3
230.787277E-3
229.831696E-3
230.208778E-3
230.615616E-3
229.613113E-3
231.215286E-3
230.252266E-3
230.712318E-3
230.925751E-3
230.110359E-3
231.610680E-3
230.540657E-3
231.302261E-3
231.206703E-3
230.313492E-3
232.117653E-3
230.737495E-3
231.059647E-3
231.716537E-3
229.986191E-3
231.919098E-3
231.072807E-3
231.516266E-3
232.086182E-3
230.877686E-3
232.542801E-3
231.400681E-3
231.853867E-3
232.105064E-3
231.161499E-3
232.709885E-3
232.078743E-3
232.265854E-3
232.594872E-3
232.148552E-3
233.743286E-3
232.697868E-3
232.939339E-3
233.345032E-3
232.370567E-3
233.181381E-3
231.137466E-3
230.438232E-3
229.478073E-3
227.348900E-3
227.582359E-3
225.479507E-3
224.989128E-3
224.529648E-3
223.347473E-3
225.432014E-3
224.032974E-3
224.489021E-3
225.049210E-3
224.476433E-3
226.791000E-3
225.650024E-3
225.831413E-3
226.525497E-3
224.797440E-3
227.039337E-3
225.612259E-3
225.745583E-3
226.392174E-3
225.513840E-3
227.361488E-3
226.221085E-3
226.675415E-3
227.593231E-3
226.079750E-3
228.475571E-3
227.288246E-3
227.288246E-3
227.664185E-3
226.740074E-3
228.529358E-3
226.904869E-3
226.917458E-3
227.515411E-3
226.686287E-3
228.195763E-3
226.669693E-3
226.868248E-3
227.693367E-3
227.015305E-3
228.833771E-3
227.591515E-3
227.760887E-3
228.773117E-3
228.230667E-3
229.751587E-3
228.404045E-3
228.721619E-3
229.672050E-3
227.811813E-3
230.072594E-3
228.812599E-3
229.083252E-3
229.599953E-3
229.004288E-3
230.727768E-3
229.461479E-3
229.761887E-3
230.370140E-3
229.709816E-3
231.180954E-3
229.760170E-3
229.941559E-3
230.772400E-3
229.853439E-3
231.314850E-3
229.866600E-3
230.085182E-3
231.027603E-3
230.139542E-3
231.562042E-3
230.113792E-3
230.338669E-3
230.907440E-3
230.334091E-3
231.780624E-3
230.259705E-3
230.552101E-3
231.203270E-3
230.673409E-3
232.007217E-3
230.913162E-3
231.226730E-3
232.089615E-3
