Notes :


2023-10-23 ¿ÀÈÄ 9:22:06
Volts
Ch : LED 2,
320.677757E-3
318.639565E-3
318.856430E-3
319.251251E-3
317.377281E-3
319.262695E-3
317.487144E-3
317.690277E-3
318.061638E-3
316.696930E-3
318.426132E-3
316.744995E-3
317.066574E-3
317.780685E-3
316.524124E-3
318.346596E-3
316.851425E-3
317.276573E-3
317.922592E-3
316.506386E-3
318.424988E-3
316.781044E-3
317.474556E-3
318.116570E-3
316.362190E-3
318.432999E-3
316.884041E-3
317.575836E-3
318.501091E-3
316.832542E-3
318.634987E-3
317.078018E-3
317.047691E-3
318.025589E-3
316.161346E-3
317.904854E-3
316.069221E-3
316.457748E-3
317.012215E-3
315.463257E-3
317.397881E-3
315.463829E-3
314.998055E-3
316.716957E-3
315.571976E-3
318.831253E-3
318.526840E-3
320.840836E-3
324.873734E-3
325.893974E-3
330.861855E-3
330.964851E-3
332.540131E-3
333.958054E-3
332.332420E-3
334.029579E-3
330.789757E-3
329.616737E-3
329.149818E-3
326.513672E-3
328.008270E-3
325.278282E-3
324.947548E-3
325.582123E-3
324.039459E-3
326.721382E-3
324.854279E-3
325.204468E-3
326.016998E-3
324.071503E-3
326.064491E-3
323.424339E-3
322.859001E-3
323.222923E-3
322.061920E-3
324.396515E-3
322.745705E-3
323.085594E-3
324.772453E-3
323.843765E-3
326.332855E-3
324.525833E-3
324.156761E-3
325.360107E-3
323.674965E-3
325.835037E-3
323.538780E-3
323.242378E-3
323.921013E-3
321.953201E-3
324.242592E-3
321.936035E-3
321.318626E-3
321.976089E-3
320.284081E-3
322.463608E-3
320.026016E-3
319.917870E-3
320.860291E-3
319.529343E-3
321.905708E-3
319.822311E-3
319.778824E-3
320.642281E-3
319.259262E-3
321.442795E-3
319.313622E-3
319.519043E-3
320.412254E-3
318.409538E-3
320.556450E-3
318.791199E-3
318.855858E-3
319.752502E-3
318.332291E-3
320.460892E-3
318.687630E-3
318.824959E-3
319.753075E-3
318.130302E-3
320.559311E-3
318.514252E-3
318.741417E-3
319.318771E-3
318.008995E-3
320.213127E-3
318.358040E-3
318.115425E-3
318.588066E-3
317.166710E-3
319.191170E-3
317.233658E-3
316.912651E-3
318.021584E-3
316.395378E-3
318.691635E-3
317.312622E-3
317.982674E-3
320.375061E-3
321.321487E-3
325.762939E-3
326.815796E-3
329.983521E-3
333.235359E-3
333.859062E-3
336.790466E-3
335.340500E-3
334.804916E-3
334.577751E-3
331.404305E-3
332.424545E-3
329.749489E-3
328.982735E-3
328.869438E-3
326.779747E-3
328.420830E-3
326.586914E-3
326.845551E-3
327.996254E-3
327.291298E-3
329.341507E-3
327.662659E-3
327.286720E-3
327.622032E-3
325.897408E-3
326.721382E-3
324.484062E-3
323.828888E-3
324.318123E-3
323.371696E-3
325.228500E-3
323.969650E-3
324.084663E-3
325.460815E-3
324.637985E-3
326.541710E-3
325.021362E-3
324.893761E-3
325.047112E-3
323.856354E-3
325.168991E-3
323.046112E-3
322.573471E-3
322.875023E-3
321.322632E-3
322.841835E-3
321.265984E-3
321.085167E-3
321.641350E-3
320.095253E-3
321.635628E-3
319.871521E-3
320.088959E-3
320.569038E-3
318.840408E-3
320.767593E-3
318.996620E-3
319.216347E-3
319.773674E-3
318.147469E-3
320.119858E-3
318.542290E-3
318.786621E-3
319.351387E-3
318.181801E-3
319.850922E-3
318.122292E-3
318.003273E-3
318.540573E-3
317.657089E-3
319.330215E-3
317.768669E-3
317.733192E-3
318.585777E-3
317.391586E-3
319.080162E-3
317.420197E-3
317.270851E-3
317.937469E-3
316.417122E-3
318.029022E-3
316.306686E-3
316.235161E-3
316.462326E-3
314.863014E-3
316.721535E-3
315.138245E-3
315.028381E-3
315.965080E-3
314.777184E-3
316.831970E-3
316.023445E-3
317.358971E-3
320.442581E-3
321.859932E-3
326.528549E-3
327.763939E-3
329.565239E-3
331.892395E-3
331.221771E-3
333.185005E-3
331.282997E-3
329.688835E-3
329.276276E-3
326.501083E-3
327.136803E-3
324.732399E-3
324.036598E-3
324.472618E-3
322.810364E-3
324.790764E-3
323.679543E-3
323.903275E-3
324.775887E-3
323.471260E-3
325.409889E-3
323.587418E-3
322.736549E-3
323.114777E-3
321.052551E-3
322.506523E-3
320.934105E-3
321.233368E-3
322.357178E-3
321.497726E-3
323.761368E-3
323.066139E-3
323.303604E-3
323.927307E-3
322.523689E-3
324.248314E-3
322.639847E-3
321.974373E-3
322.707939E-3
321.039963E-3
322.411537E-3
320.648003E-3
320.107269E-3
320.799065E-3
318.727112E-3
320.877457E-3
319.400024E-3
319.095612E-3
319.846344E-3
318.401527E-3
320.297813E-3
319.153976E-3
318.395805E-3
319.476700E-3
318.175507E-3
319.826889E-3
318.592644E-3
318.473625E-3
319.122505E-3
317.939758E-3
319.616318E-3
318.282509E-3
318.084526E-3
319.030380E-3
317.966080E-3
319.489861E-3
318.630981E-3
318.404961E-3
319.694710E-3
318.570900E-3
320.020866E-3
318.858719E-3
318.457031E-3
319.437218E-3
317.908859E-3
319.556808E-3
318.321419E-3
317.713165E-3
318.711090E-3
317.193031E-3
318.799782E-3
317.742348E-3
317.170715E-3
318.020439E-3
316.834259E-3
318.840408E-3
318.611526E-3
319.661522E-3
322.784615E-3
323.518753E-3
328.285789E-3
330.101395E-3
332.140160E-3
335.085297E-3
333.815575E-3
336.262894E-3
335.145950E-3
333.408737E-3
333.596992E-3
330.549431E-3
330.886459E-3
328.829384E-3
327.909851E-3
328.622818E-3
326.903343E-3
328.289223E-3
327.637482E-3
327.421761E-3
328.656578E-3
327.026939E-3
328.325844E-3
327.446365E-3
326.200676E-3
326.801491E-3
324.123001E-3
325.407600E-3
324.442863E-3
323.847771E-3
325.373840E-3
324.230003E-3
326.293373E-3
325.901985E-3
325.527191E-3
327.200890E-3
325.342941E-3
327.190590E-3
326.174927E-3
325.399590E-3
326.248741E-3
324.221992E-3
325.833321E-3
324.905777E-3
323.878098E-3
324.093246E-3
322.204399E-3
323.432922E-3
322.737122E-3
321.747208E-3
323.140526E-3
321.314049E-3
322.853279E-3
322.337723E-3
321.580124E-3
322.131729E-3
320.448875E-3
322.286797E-3
322.056770E-3
321.115494E-3
322.215843E-3
320.404816E-3
322.032738E-3
321.579552E-3
320.396233E-3
321.882248E-3
320.161057E-3
321.681976E-3
321.256828E-3
320.387650E-3
321.534348E-3
319.857216E-3
321.455956E-3
320.800209E-3
319.825745E-3
321.018791E-3
319.144249E-3
320.947266E-3
320.793343E-3
319.648933E-3
320.452881E-3
318.441010E-3
320.252037E-3
319.941902E-3
318.533134E-3
319.341660E-3
317.132378E-3
318.751717E-3
319.060135E-3
317.819023E-3
318.966293E-3
317.664528E-3
320.318985E-3
321.557236E-3
322.558594E-3
326.410675E-3
327.650070E-3
332.360458E-3
334.391785E-3
334.938240E-3
337.126350E-3
335.549355E-3
336.690331E-3
335.252380E-3
333.068275E-3
332.889175E-3
330.029869E-3
330.927086E-3
329.973221E-3
328.087807E-3
328.886032E-3
327.426338E-3
329.671097E-3
329.288864E-3
328.353882E-3
329.604721E-3
328.108978E-3
329.711723E-3
328.984451E-3
327.029800E-3
327.027512E-3
324.833107E-3
326.343155E-3
325.516891E-3
324.140739E-3
325.374985E-3
324.228859E-3
326.501083E-3
326.627541E-3
325.661087E-3
326.605225E-3
325.139809E-3
327.068710E-3
326.051903E-3
324.513245E-3
324.808502E-3
323.127365E-3
324.580193E-3
323.687553E-3
322.073364E-3
322.834969E-3
321.242523E-3
322.703934E-3
322.384071E-3
320.947266E-3
321.619034E-3
320.020294E-3
321.298599E-3
321.145821E-3
319.602585E-3
320.670891E-3
319.450378E-3
320.918655E-3
320.670891E-3
319.455528E-3
320.363617E-3
318.880463E-3
320.633125E-3
320.205688E-3
319.004059E-3
320.071220E-3
318.438148E-3
319.923592E-3
319.721603E-3
318.640137E-3
319.600296E-3
317.944336E-3
319.513321E-3
319.308472E-3
318.336296E-3
319.174004E-3
317.590141E-3
318.949699E-3
318.768311E-3
317.650223E-3
318.168640E-3
316.815948E-3
318.097115E-3
318.062782E-3
316.851425E-3
317.457962E-3
316.048622E-3
317.192459E-3
317.151833E-3
315.920448E-3
317.014503E-3
316.010857E-3
318.355179E-3
320.176506E-3
321.619034E-3
325.327492E-3
326.669884E-3
330.689049E-3
332.345009E-3
332.429695E-3
333.788109E-3
331.904984E-3
332.584763E-3
330.825233E-3
328.276062E-3
327.975082E-3
325.532913E-3
326.132584E-3
325.723457E-3
324.292374E-3
325.138092E-3
323.655510E-3
325.357819E-3
325.476837E-3
324.409103E-3
325.246811E-3
323.816872E-3
324.664307E-3
324.056625E-3
322.202682E-3
323.007202E-3
321.132088E-3
322.262764E-3
322.502518E-3
321.874237E-3
323.294449E-3
322.286797E-3
324.186516E-3
324.247742E-3
323.214340E-3
324.178505E-3
322.511101E-3
323.675537E-3
323.524475E-3
321.901703E-3
322.955704E-3
320.932961E-3
321.675682E-3
321.521759E-3
320.001411E-3
321.300316E-3
319.522476E-3
320.780754E-3
320.686913E-3
319.136238E-3
320.559311E-3
318.948555E-3
320.039177E-3
320.108986E-3
318.830681E-3
320.237732E-3
318.631554E-3
319.948769E-3
320.415688E-3
318.895340E-3
320.099258E-3
318.711662E-3
320.046616E-3
320.083809E-3
319.034958E-3
320.393944E-3
319.117928E-3
320.119858E-3
320.635986E-3
319.087029E-3
320.356178E-3
319.136238E-3
320.064926E-3
320.108414E-3
319.058418E-3
320.254898E-3
318.792343E-3
319.674683E-3
319.885254E-3
318.184090E-3
319.399452E-3
317.810440E-3
318.788910E-3
319.098473E-3
317.639923E-3
319.133949E-3
318.179512E-3
320.050621E-3
321.547508E-3
322.245026E-3
326.328278E-3
328.163338E-3
331.989670E-3
334.366608E-3
334.203529E-3
336.181641E-3
335.109329E-3
335.490417E-3
334.861565E-3
332.136154E-3
332.022858E-3
329.521751E-3
329.426193E-3
329.243660E-3
327.338791E-3
328.606224E-3
327.244949E-3
328.293228E-3
328.794479E-3
327.413177E-3
329.320908E-3
327.824593E-3
328.332710E-3
327.892113E-3
325.573540E-3
326.902199E-3
324.740982E-3
325.145531E-3
325.545502E-3
324.043465E-3
326.655579E-3
325.360680E-3
326.371765E-3
326.756287E-3
325.039101E-3
327.645493E-3
325.910568E-3
326.289940E-3
326.498222E-3
324.651146E-3
326.274490E-3
324.137878E-3
324.517822E-3
324.786758E-3
322.634125E-3
324.493790E-3
322.559738E-3
322.817230E-3
323.371124E-3
321.592712E-3
323.675537E-3
321.707153E-3
322.056198E-3
322.497940E-3
320.831108E-3
323.070145E-3
321.144104E-3
321.313477E-3
322.225571E-3
320.790482E-3
322.665024E-3
321.027374E-3
321.239662E-3
322.141457E-3
320.431137E-3
322.619247E-3
320.923233E-3
321.251678E-3
322.112846E-3
320.524979E-3
322.612381E-3
320.656586E-3
320.864296E-3
321.878815E-3
320.193672E-3
322.461891E-3
320.464325E-3
320.154190E-3
320.895767E-3
319.232941E-3
321.873093E-3
319.758797E-3
319.787979E-3
320.475197E-3
318.722534E-3
320.902634E-3
318.756294E-3
318.689919E-3
319.660950E-3
318.332291E-3
320.894051E-3
319.297600E-3
320.492935E-3
323.386002E-3
324.733543E-3
330.038452E-3
330.949402E-3
333.349228E-3
336.315536E-3
336.308098E-3
338.839531E-3
336.408234E-3
335.821724E-3
335.539627E-3
332.825089E-3
333.693123E-3
330.440712E-3
329.847908E-3
330.410957E-3
328.645134E-3
330.578613E-3
328.649712E-3
328.780174E-3
330.119705E-3
329.047966E-3
331.229782E-3
329.257965E-3
328.816795E-3
329.056549E-3
326.774025E-3
327.952194E-3
325.503159E-3
325.219345E-3
325.781250E-3
324.510384E-3
326.627541E-3
324.963570E-3
325.302887E-3
326.558304E-3
325.566101E-3
327.428627E-3
325.618744E-3
325.216484E-3
325.971794E-3
324.516106E-3
325.852776E-3
323.710442E-3
323.495293E-3
323.740196E-3
322.065353E-3
323.379135E-3
321.621895E-3
321.076012E-3
321.544647E-3
320.508385E-3
322.188377E-3
320.416260E-3
320.404816E-3
320.854568E-3
319.761658E-3
321.250534E-3
319.906425E-3
319.779968E-3
320.450592E-3
319.563103E-3
321.283150E-3
319.564247E-3
319.507599E-3
320.196533E-3
318.956566E-3
320.669174E-3
319.232941E-3
319.246674E-3
319.897842E-3
318.667030E-3
320.361900E-3
318.695641E-3
318.667030E-3
319.551659E-3
318.411827E-3
320.156479E-3
318.552017E-3
318.387222E-3
319.165421E-3
317.609024E-3
319.350815E-3
317.848778E-3
317.614174E-3
318.353462E-3
316.902924E-3
318.420982E-3
316.836548E-3
316.339874E-3
317.170143E-3
315.751648E-3
317.839622E-3
316.597939E-3
317.358971E-3
319.615746E-3
320.339012E-3
324.899483E-3
326.309967E-3
329.097748E-3
331.970787E-3
331.824875E-3
334.528542E-3
333.086586E-3
332.051468E-3
332.092667E-3
329.220772E-3
329.683113E-3
327.357101E-3
326.021576E-3
325.951767E-3
324.470329E-3
325.793839E-3
324.429131E-3
324.151039E-3
325.575256E-3
324.572754E-3
326.647568E-3
325.460815E-3
324.669456E-3
324.900627E-3
322.966003E-3
324.221420E-3
322.497940E-3
322.199821E-3
323.283577E-3
322.401237E-3
324.228287E-3
323.632050E-3
323.482132E-3
325.111771E-3
323.712730E-3
325.333214E-3
324.043465E-3
323.288727E-3
324.429703E-3
322.724533E-3
323.661804E-3
322.513962E-3
321.745491E-3
322.829247E-3
320.931244E-3
321.920586E-3
321.090317E-3
320.504951E-3
321.756935E-3
319.985962E-3
321.427917E-3
320.558167E-3
320.301247E-3
321.243668E-3
319.483566E-3
321.033096E-3
320.325279E-3
319.817734E-3
320.824242E-3
319.183731E-3
320.999908E-3
320.514679E-3
320.217705E-3
321.267128E-3
319.274712E-3
321.189308E-3
320.413399E-3
319.928169E-3
321.206474E-3
319.578552E-3
321.296883E-3
320.590210E-3
319.922447E-3
321.065140E-3
319.412041E-3
320.726395E-3
320.526695E-3
319.398308E-3
320.517540E-3
318.557167E-3
320.120430E-3
319.635773E-3
318.398666E-3
319.467545E-3
317.633057E-3
319.250679E-3
318.737411E-3
318.514252E-3
319.836044E-3
319.201469E-3
322.321701E-3
324.568748E-3
326.515961E-3
330.421829E-3
331.282997E-3
335.235214E-3
336.137009E-3
335.807419E-3
336.865425E-3
334.544563E-3
334.994316E-3
333.502579E-3
331.051826E-3
330.742264E-3
328.255463E-3
329.637909E-3
328.758430E-3
327.511024E-3
328.519821E-3
327.240944E-3
329.351807E-3
329.251099E-3
328.304672E-3
329.248810E-3
327.205467E-3
328.486633E-3
327.531624E-3
325.800133E-3
326.165199E-3
324.327850E-3
326.128578E-3
325.767517E-3
324.823380E-3
326.099396E-3
324.810219E-3
327.081871E-3
326.736259E-3
325.605011E-3
326.708794E-3
324.897766E-3
326.820374E-3
326.264191E-3
324.472618E-3
325.120926E-3
323.198318E-3
324.796486E-3
324.163055E-3
322.743416E-3
323.399734E-3
321.776390E-3
323.328781E-3
322.741699E-3
321.343231E-3
322.233582E-3
320.504951E-3
322.258759E-3
322.122002E-3
320.937538E-3
322.038460E-3
320.561600E-3
321.934319E-3
321.613884E-3
320.327568E-3
321.465683E-3
320.258331E-3
321.601295E-3
321.546364E-3
320.370483E-3
321.582413E-3
319.894409E-3
321.449089E-3
321.518898E-3
320.324135E-3
321.076584E-3
319.499016E-3
320.864868E-3
320.661736E-3
319.805717E-3
320.617676E-3
319.386292E-3
320.711517E-3
320.511818E-3
319.392014E-3
320.219994E-3
318.721390E-3
320.012283E-3
319.771957E-3
318.427849E-3
319.384575E-3
317.947769E-3
319.091606E-3
318.941689E-3
317.681694E-3
318.685913E-3
317.967224E-3
320.357895E-3
321.882248E-3
323.053551E-3
326.426697E-3
327.997398E-3
332.323265E-3
334.334564E-3
334.700775E-3
336.481476E-3
335.009193E-3
335.764503E-3
334.797478E-3
332.379341E-3
331.891823E-3
329.082298E-3
329.494286E-3
328.556442E-3
326.680756E-3
327.602005E-3
326.027870E-3
327.556801E-3
327.450943E-3
326.483345E-3
327.662086E-3
326.350021E-3
327.388573E-3
326.913071E-3
324.967575E-3
325.522614E-3
323.283577E-3
323.927879E-3
324.194527E-3
322.872162E-3
324.253464E-3
322.677040E-3
324.300957E-3
324.798203E-3
323.820877E-3
324.988747E-3
323.447800E-3
324.279213E-3
324.307823E-3
322.635841E-3
323.383141E-3
321.657372E-3
322.188377E-3
