Notes :


2023-11-10 ¿ÀÈÄ 10:09:01
Volts
Ch : LED 2,
327.577972E-3
327.553368E-3
327.414894E-3
327.297020E-3
327.269554E-3
327.082443E-3
327.115631E-3
326.997757E-3
326.959991E-3
327.103615E-3
327.008057E-3
326.902199E-3
326.900482E-3
326.808929E-3
326.795197E-3
326.678467E-3
326.590347E-3
326.572037E-3
326.514244E-3
326.586342E-3
326.434708E-3
326.593781E-3
326.482773E-3
326.391792E-3
326.470184E-3
326.320267E-3
326.418114E-3
326.407242E-3
326.447868E-3
326.534271E-3
326.348877E-3
326.411819E-3
326.257896E-3
326.166916E-3
326.098824E-3
325.849915E-3
325.851059E-3
325.883102E-3
325.893974E-3
326.065636E-3
326.530266E-3
327.397728E-3
328.620529E-3
330.006981E-3
331.675529E-3
333.213615E-3
334.610367E-3
335.601425E-3
336.180496E-3
336.526680E-3
336.368752E-3
336.056900E-3
335.565376E-3
334.907913E-3
334.474754E-3
333.958626E-3
333.795547E-3
333.469963E-3
333.285141E-3
333.408165E-3
333.344078E-3
333.413315E-3
333.337784E-3
333.317184E-3
333.326912E-3
333.215904E-3
333.137512E-3
332.868576E-3
332.488060E-3
332.110405E-3
331.672096E-3
331.431198E-3
331.190872E-3
331.028938E-3
331.049538E-3
330.999756E-3
331.337929E-3
331.466103E-3
331.478119E-3
331.632042E-3
331.539917E-3
331.403732E-3
331.291580E-3
331.093025E-3
331.094170E-3
330.800629E-3
330.762291E-3
330.552292E-3
330.283928E-3
330.043602E-3
329.945755E-3
329.775238E-3
329.524040E-3
329.316330E-3
329.370689E-3
329.074860E-3
328.987312E-3
328.891182E-3
328.677750E-3
328.582191E-3
328.408813E-3
328.373909E-3
328.355026E-3
328.256035E-3
328.286362E-3
328.108406E-3
328.084946E-3
328.032875E-3
327.934456E-3
328.025436E-3
327.822876E-3
327.816010E-3
327.812576E-3
327.675247E-3
327.769089E-3
327.523613E-3
327.520180E-3
327.489281E-3
327.412605E-3
327.393150E-3
327.273560E-3
327.302742E-3
327.224922E-3
327.190590E-3
327.198029E-3
327.044678E-3
327.000618E-3
326.863289E-3
326.771164E-3
326.736832E-3
326.583481E-3
326.489067E-3
326.385498E-3
326.204109E-3
326.260185E-3
326.176643E-3
326.176071E-3
326.336288E-3
326.412392E-3
327.012634E-3
327.700996E-3
329.012489E-3
330.339432E-3
331.933594E-3
333.510590E-3
334.794044E-3
335.781097E-3
336.242867E-3
336.226273E-3
335.947037E-3
335.334778E-3
334.680176E-3
333.998680E-3
333.304596E-3
332.910347E-3
332.410812E-3
332.153320E-3
331.983376E-3
331.721878E-3
331.815720E-3
331.727028E-3
331.820297E-3
331.838036E-3
331.736755E-3
331.778526E-3
331.487274E-3
331.205750E-3
330.634689E-3
330.243874E-3
330.065346E-3
329.754066E-3
329.715157E-3
329.783249E-3
329.767799E-3
330.092812E-3
330.091095E-3
330.207253E-3
330.262756E-3
330.093956E-3
330.183220E-3
329.877663E-3
329.800987E-3
329.639626E-3
329.469109E-3
329.416466E-3
329.192734E-3
328.959274E-3
328.678322E-3
328.405952E-3
328.427696E-3
328.093529E-3
328.042030E-3
327.870369E-3
327.700424E-3
327.743912E-3
327.549934E-3
327.577400E-3
327.385139E-3
327.247238E-3
327.252388E-3
327.084732E-3
327.101326E-3
327.065849E-3
327.037239E-3
327.022362E-3
326.953697E-3
326.941109E-3
326.905632E-3
326.738548E-3
326.810646E-3
326.704216E-3
326.661873E-3
326.642990E-3
326.569176E-3
326.546288E-3
326.430702E-3
326.490211E-3
326.510811E-3
326.398659E-3
326.386070E-3
326.273346E-3
326.178932E-3
326.106262E-3
325.977516E-3
325.932884E-3
325.735474E-3
325.642776E-3
325.662804E-3
325.498009E-3
325.484276E-3
325.273705E-3
325.234795E-3
325.233650E-3
325.227928E-3
325.467110E-3
325.697708E-3
326.406670E-3
327.507591E-3
328.653145E-3
330.223846E-3
331.517601E-3
332.863998E-3
333.917999E-3
334.342575E-3
334.571457E-3
334.266472E-3
333.717728E-3
333.096886E-3
332.391357E-3
331.823730E-3
331.135368E-3
330.658722E-3
330.322838E-3
330.021286E-3
329.922867E-3
329.676819E-3
329.718018E-3
329.783249E-3
329.754066E-3
329.796410E-3
329.536629E-3
329.207039E-3
328.993034E-3
328.565598E-3
328.375053E-3
328.135300E-3
327.974510E-3
328.181076E-3
328.175354E-3
328.375626E-3
328.495216E-3
328.614807E-3
328.847694E-3
328.800774E-3
328.806496E-3
328.573608E-3
328.482628E-3
328.323555E-3
328.040314E-3
327.986526E-3
327.729607E-3
327.548790E-3
327.361679E-3
327.111053E-3
326.926231E-3
326.727104E-3
326.629829E-3
326.605225E-3
326.327705E-3
326.396370E-3
326.199532E-3
326.132011E-3
326.083374E-3
325.891685E-3
325.947762E-3
325.872231E-3
325.872803E-3
325.788116E-3
325.658226E-3
325.750351E-3
325.678825E-3
325.667381E-3
325.646782E-3
325.538063E-3
325.605583E-3
325.471687E-3
325.404739E-3
325.461388E-3
325.389290E-3
325.452232E-3
325.459099E-3
325.431633E-3
325.393867E-3
325.203323E-3
325.346375E-3
325.215340E-3
325.290298E-3
325.321770E-3
325.099754E-3
325.245094E-3
325.083160E-3
325.091171E-3
325.159836E-3
325.040245E-3
325.023079E-3
324.911499E-3
324.824524E-3
324.797058E-3
324.541855E-3
324.569893E-3
324.528122E-3
324.406815E-3
324.603081E-3
324.633408E-3
325.110054E-3
325.748062E-3
326.843834E-3
328.288651E-3
329.633904E-3
331.320763E-3
332.661438E-3
333.948326E-3
334.750557E-3
334.955406E-3
334.953117E-3
334.446144E-3
333.816147E-3
333.211327E-3
332.409668E-3
331.880379E-3
331.288147E-3
330.905342E-3
330.755997E-3
330.512238E-3
330.478477E-3
330.441856E-3
330.509377E-3
330.578041E-3
330.520248E-3
330.598640E-3
330.376053E-3
330.080795E-3
329.633904E-3
328.995895E-3
328.725815E-3
328.353882E-3
328.175926E-3
328.039169E-3
327.977371E-3
328.027725E-3
328.087234E-3
328.138733E-3
328.166771E-3
328.120995E-3
328.167915E-3
328.146744E-3
327.979660E-3
327.972794E-3
327.767944E-3
327.650070E-3
327.397728E-3
327.212334E-3
326.939392E-3
326.625252E-3
326.509666E-3
326.221848E-3
325.992966E-3
325.967789E-3
325.750923E-3
325.734329E-3
325.595284E-3
325.452232E-3
325.455666E-3
325.304031E-3
325.342941E-3
325.215912E-3
325.064278E-3
325.100899E-3
324.864006E-3
324.926376E-3
324.862862E-3
324.788475E-3
324.870300E-3
324.657440E-3
324.630547E-3
324.520111E-3
324.513245E-3
324.462891E-3
324.252319E-3
324.324989E-3
324.277496E-3
324.129295E-3
324.182510E-3
324.093246E-3
324.126434E-3
324.003983E-3
323.907280E-3
323.884392E-3
323.796272E-3
323.770523E-3
323.657227E-3
323.648643E-3
323.741913E-3
323.589134E-3
323.585129E-3
323.507309E-3
323.384285E-3
323.399162E-3
323.280716E-3
323.316765E-3
323.248100E-3
323.103333E-3
322.978592E-3
322.827530E-3
322.933960E-3
322.932243E-3
322.867012E-3
323.224640E-3
323.672676E-3
324.609947E-3
325.861931E-3
327.248955E-3
328.841972E-3
330.207825E-3
331.444359E-3
332.217407E-3
332.560730E-3
332.450294E-3
331.986809E-3
331.391144E-3
330.587196E-3
329.771233E-3
329.192162E-3
328.554726E-3
328.193665E-3
327.904129E-3
327.705002E-3
327.716446E-3
327.536774E-3
327.610016E-3
327.620888E-3
327.606010E-3
327.687836E-3
327.437210E-3
327.237511E-3
326.787186E-3
326.355743E-3
326.051903E-3
325.731468E-3
325.693703E-3
325.657654E-3
325.721741E-3
325.865364E-3
325.979805E-3
325.994110E-3
326.188660E-3
326.181793E-3
326.213837E-3
325.915146E-3
325.877953E-3
325.807571E-3
325.563812E-3
325.482559E-3
325.206757E-3
324.979019E-3
324.819374E-3
324.530411E-3
324.447441E-3
324.184799E-3
324.080658E-3
324.000549E-3
323.792267E-3
323.793983E-3
323.614311E-3
323.503304E-3
323.413467E-3
323.258400E-3
323.281860E-3
323.066711E-3
323.023224E-3
323.087311E-3
322.924805E-3
322.881889E-3
322.813797E-3
322.794342E-3
322.754860E-3
322.570038E-3
322.677612E-3
322.510529E-3
322.504234E-3
322.500801E-3
322.425842E-3
322.572327E-3
322.423553E-3
322.365189E-3
322.327995E-3
322.162628E-3
322.207832E-3
322.089958E-3
322.116852E-3
322.037315E-3
321.879387E-3
321.952629E-3
321.857071E-3
321.779823E-3
321.704292E-3
321.571541E-3
321.675110E-3
321.560669E-3
321.384430E-3
321.221352E-3
321.002197E-3
320.931816E-3
320.892906E-3
320.792770E-3
320.773315E-3
320.682907E-3
320.832253E-3
320.783043E-3
320.940971E-3
321.518326E-3
322.358322E-3
323.558235E-3
324.867439E-3
326.377487E-3
327.727318E-3
328.755569E-3
329.617882E-3
329.793549E-3
329.570389E-3
329.141235E-3
328.486633E-3
327.787399E-3
326.966858E-3
326.290512E-3
325.713158E-3
325.195312E-3
324.962997E-3
324.757576E-3
324.574471E-3
324.584198E-3
324.510384E-3
324.650574E-3
324.537277E-3
324.474907E-3
324.346161E-3
324.025154E-3
323.662949E-3
323.262405E-3
323.014069E-3
322.959709E-3
322.933960E-3
322.989464E-3
323.056412E-3
323.277855E-3
323.439789E-3
323.460960E-3
323.576546E-3
323.558807E-3
323.400879E-3
323.325920E-3
323.120499E-3
323.139954E-3
322.882462E-3
322.712517E-3
322.559738E-3
322.335434E-3
322.188950E-3
321.880531E-3
321.783257E-3
321.627617E-3
321.482277E-3
321.476555E-3
321.295166E-3
321.230507E-3
321.168709E-3
320.974159E-3
320.962715E-3
320.872307E-3
320.745850E-3
320.788193E-3
320.792770E-3
320.835114E-3
320.629692E-3
320.633125E-3
320.613098E-3
320.557022E-3
320.541573E-3
320.442009E-3
320.444870E-3
320.439720E-3
320.331573E-3
320.521545E-3
320.349884E-3
320.381355E-3
320.335579E-3
320.266914E-3
320.206833E-3
320.052338E-3
320.074654E-3
320.041466E-3
319.960785E-3
320.110703E-3
319.989967E-3
319.915009E-3
319.955635E-3
319.866943E-3
319.890976E-3
319.786835E-3
319.745636E-3
319.812012E-3
319.688988E-3
319.717026E-3
319.548798E-3
319.493866E-3
319.420624E-3
319.267273E-3
319.317627E-3
319.231796E-3
319.195175E-3
319.281578E-3
319.363403E-3
319.774246E-3
320.273209E-3
321.415329E-3
322.826385E-3
324.223709E-3
325.834465E-3
327.208328E-3
328.479195E-3
329.481125E-3
329.792976E-3
329.795837E-3
329.274559E-3
328.689766E-3
328.035164E-3
327.195168E-3
326.663589E-3
326.016998E-3
325.551796E-3
325.330353E-3
325.135231E-3
325.065422E-3
324.940109E-3
325.002480E-3
325.190735E-3
325.124359E-3
325.221062E-3
325.024223E-3
324.800491E-3
324.523544E-3
323.974800E-3
323.578835E-3
323.166847E-3
322.950554E-3
322.825241E-3
322.658157E-3
322.746277E-3
322.750854E-3
322.756004E-3
322.960854E-3
322.838974E-3
322.943115E-3
322.795486E-3
322.702789E-3
322.698212E-3
322.523117E-3
322.366905E-3
322.099113E-3
321.934319E-3
321.680832E-3
321.382713E-3
321.197319E-3
320.930099E-3
320.793343E-3
320.857430E-3
320.650864E-3
320.629120E-3
320.515251E-3
320.369339E-3
320.332146E-3
320.111275E-3
320.030022E-3
319.870949E-3
319.938469E-3
319.949341E-3
319.799423E-3
319.798279E-3
319.785118E-3
319.636345E-3
319.655228E-3
319.536209E-3
319.555092E-3
319.476128E-3
319.449234E-3
319.557381E-3
319.367981E-3
319.394302E-3
319.425774E-3
319.283295E-3
319.264412E-3
319.178581E-3
319.191742E-3
319.080162E-3
318.951416E-3
318.874168E-3
318.705940E-3
318.713379E-3
318.703079E-3
318.575478E-3
318.549156E-3
318.480492E-3
318.548584E-3
318.446159E-3
318.404388E-3
318.432426E-3
318.321419E-3
318.330574E-3
318.265343E-3
318.176079E-3
318.097115E-3
317.881966E-3
317.855072E-3
317.786980E-3
317.693710E-3
317.684555E-3
317.536354E-3
317.609596E-3
317.613602E-3
317.984390E-3
318.634987E-3
319.501877E-3
320.846558E-3
322.360611E-3
324.005699E-3
325.500298E-3
326.587486E-3
327.505875E-3
327.784538E-3
327.655792E-3
327.203751E-3
326.550865E-3
325.754356E-3
325.032234E-3
324.367905E-3
323.857498E-3
323.326492E-3
323.053551E-3
322.760582E-3
322.612953E-3
322.614098E-3
322.686195E-3
322.812080E-3
322.786903E-3
322.765732E-3
322.783470E-3
322.385216E-3
322.212982E-3
321.706009E-3
321.256256E-3
321.059418E-3
320.738983E-3
320.728111E-3
320.823669E-3
320.906639E-3
321.054840E-3
321.193886E-3
321.256828E-3
321.212196E-3
321.122360E-3
321.150398E-3
320.979309E-3
320.861435E-3
320.682907E-3
320.519257E-3
320.357323E-3
320.060921E-3
319.905281E-3
319.773102E-3
319.451523E-3
319.430923E-3
319.123650E-3
319.160843E-3
318.915939E-3
318.648720E-3
318.745995E-3
318.552589E-3
318.555450E-3
318.475342E-3
318.332291E-3
318.347168E-3
318.190384E-3
318.259621E-3
318.188095E-3
318.097687E-3
318.203545E-3
318.077660E-3
318.131447E-3
317.994690E-3
317.898560E-3
317.888260E-3
317.733192E-3
317.835045E-3
317.789268E-3
317.701149E-3
317.706299E-3
317.657089E-3
317.656517E-3
317.553520E-3
317.393303E-3
317.397308E-3
317.267418E-3
317.219353E-3
317.270279E-3
317.078018E-3
317.126083E-3
316.999054E-3
316.980171E-3
317.095184E-3
316.907501E-3
316.875458E-3
316.765594E-3
316.771317E-3
316.676903E-3
316.547585E-3
316.422272E-3
316.195107E-3
316.176224E-3
316.141319E-3
315.968513E-3
316.060638E-3
315.988541E-3
316.217995E-3
316.397667E-3
316.761017E-3
317.715454E-3
318.922234E-3
320.381355E-3
321.862221E-3
323.190880E-3
324.616241E-3
325.258827E-3
325.699997E-3
325.530052E-3
325.064850E-3
324.397659E-3
323.606873E-3
322.965431E-3
322.282791E-3
321.662521E-3
321.318626E-3
320.853424E-3
320.691490E-3
320.461464E-3
320.360756E-3
320.531273E-3
320.462036E-3
320.480347E-3
320.408249E-3
320.139313E-3
319.886398E-3
319.461823E-3
319.249535E-3
319.016647E-3
318.774033E-3
318.974304E-3
318.969154E-3
319.116211E-3
319.434357E-3
319.460678E-3
319.596291E-3
319.515610E-3
319.570541E-3
319.482994E-3
319.340515E-3
319.365120E-3
319.125938E-3
319.055557E-3
318.799782E-3
318.532562E-3
318.387222E-3
318.051338E-3
317.847061E-3
317.821312E-3
317.544365E-3
317.518616E-3
317.296028E-3
317.193604E-3
317.182159E-3
317.027092E-3
316.977882E-3
316.851425E-3
316.761589E-3
316.785622E-3
316.683769E-3
316.815376E-3
316.662598E-3
316.684914E-3
316.650009E-3
316.551018E-3
316.633987E-3
316.506958E-3
316.472054E-3
316.426849E-3
316.329575E-3
316.495514E-3
316.359329E-3
316.453171E-3
316.429710E-3
316.279793E-3
316.337013E-3
316.267204E-3
316.215706E-3
316.107559E-3
316.009712E-3
316.129875E-3
315.981102E-3
316.001701E-3
316.066360E-3
315.971947E-3
316.014290E-3
315.814590E-3
315.934181E-3
315.834045E-3
315.832329E-3
315.847206E-3
315.658379E-3
315.702438E-3
315.715027E-3
315.693855E-3
315.676689E-3
315.601730E-3
315.468407E-3
315.363693E-3
315.200615E-3
315.311050E-3
315.211487E-3
315.317345E-3
315.483284E-3
315.880966E-3
316.976166E-3
317.939758E-3
319.383430E-3
320.909500E-3
322.367477E-3
324.009705E-3
325.081444E-3
325.967216E-3
326.292801E-3
326.061630E-3
325.680542E-3
324.908638E-3
324.258614E-3
323.439217E-3
322.611809E-3
322.182083E-3
321.747780E-3
321.510315E-3
321.436501E-3
321.252251E-3
321.393585E-3
321.384430E-3
321.450806E-3
321.609306E-3
321.465111E-3
321.477127E-3
321.081161E-3
320.802498E-3
320.453453E-3
319.912148E-3
319.638634E-3
319.350815E-3
319.329071E-3
319.311333E-3
319.230080E-3
319.440651E-3
319.451523E-3
319.485855E-3
319.658661E-3
319.563103E-3
319.670677E-3
319.469833E-3
319.365120E-3
319.289017E-3
319.009209E-3
318.867874E-3
318.560028E-3
318.371201E-3
318.171501E-3
317.895699E-3
317.905998E-3
317.663383E-3
317.666245E-3
317.612457E-3
317.385292E-3
317.316055E-3
317.115784E-3
317.041969E-3
316.933823E-3
316.878319E-3
316.909218E-3
316.811371E-3
316.738701E-3
316.703796E-3
