Notes :


2023-11-04 ¿ÀÈÄ 9:58:26
Volts
Ch : LED 2,
545.111847E-3
544.646645E-3
544.206047E-3
543.883896E-3
543.495369E-3
543.280792E-3
543.038750E-3
542.894554E-3
542.412186E-3
542.167282E-3
542.013359E-3
541.808510E-3
541.613388E-3
541.467476E-3
541.217422E-3
541.212273E-3
541.120720E-3
541.155052E-3
541.022301E-3
540.773964E-3
540.736771E-3
540.535927E-3
540.356827E-3
540.263557E-3
540.024948E-3
539.742851E-3
539.513969E-3
539.251328E-3
538.926315E-3
538.407326E-3
538.068008E-3
537.573624E-3
537.214851E-3
536.685562E-3
536.404610E-3
536.277008E-3
536.273003E-3
536.816597E-3
538.409042E-3
540.840912E-3
544.235802E-3
547.971725E-3
551.596642E-3
555.289078E-3
558.151817E-3
560.274696E-3
561.241722E-3
561.147308E-3
560.343361E-3
558.865356E-3
557.118416E-3
555.319405E-3
553.535271E-3
552.116776E-3
550.766373E-3
549.980736E-3
549.312401E-3
548.870659E-3
548.854637E-3
548.690987E-3
548.696709E-3
548.511314E-3
548.188591E-3
547.699356E-3
546.901131E-3
546.236801E-3
545.717812E-3
545.379066E-3
545.357895E-3
545.213699E-3
545.670891E-3
546.132660E-3
546.576691E-3
547.056770E-3
547.207832E-3
547.452164E-3
547.402954E-3
547.188950E-3
547.213554E-3
546.469116E-3
545.847702E-3
545.268059E-3
544.561386E-3
543.976021E-3
543.386078E-3
542.840767E-3
542.389297E-3
541.722679E-3
541.415977E-3
541.020584E-3
540.743637E-3
540.491295E-3
540.208626E-3
540.058136E-3
539.905930E-3
539.819527E-3
539.675903E-3
539.552879E-3
539.537430E-3
539.325714E-3
539.216995E-3
539.036179E-3
538.976669E-3
538.845634E-3
538.802719E-3
538.779831E-3
538.756371E-3
538.637924E-3
538.579559E-3
538.491440E-3
538.499451E-3
538.462257E-3
538.545799E-3
538.401031E-3
538.157272E-3
538.089752E-3
537.850571E-3
537.482071E-3
537.316704E-3
536.859512E-3
536.577415E-3
536.235809E-3
535.808945E-3
535.479927E-3
535.139465E-3
535.160637E-3
535.277939E-3
535.956573E-3
537.955284E-3
540.640640E-3
544.521332E-3
548.612022E-3
552.651787E-3
556.466675E-3
559.554863E-3
561.746407E-3
562.755203E-3
562.646484E-3
561.777306E-3
560.239792E-3
558.417892E-3
556.521034E-3
554.755211E-3
553.462601E-3
552.393150E-3
551.675034E-3
551.338005E-3
551.089668E-3
551.317978E-3
551.247025E-3
551.303101E-3
551.338577E-3
551.128006E-3
550.811577E-3
550.094032E-3
549.316406E-3
548.586273E-3
548.218918E-3
547.827530E-3
547.603798E-3
547.729111E-3
547.947121E-3
548.253250E-3
548.589134E-3
548.826599E-3
548.974228E-3
548.943901E-3
548.915863E-3
548.704720E-3
548.094749E-3
547.765160E-3
547.180939E-3
546.557236E-3
546.141815E-3
545.515251E-3
545.009422E-3
544.474411E-3
544.097328E-3
543.721390E-3
543.315125E-3
543.015289E-3
542.776108E-3
542.437935E-3
542.439079E-3
542.109489E-3
542.007065E-3
541.950989E-3
541.786194E-3
541.783905E-3
541.509247E-3
541.563034E-3
541.262627E-3
541.313553E-3
541.355324E-3
541.173935E-3
541.203117E-3
541.169930E-3
541.088104E-3
541.125870E-3
541.006279E-3
541.133881E-3
541.018295E-3
540.961647E-3
540.998840E-3
540.792847E-3
540.651512E-3
540.410042E-3
540.243530E-3
540.002060E-3
539.677620E-3
539.396667E-3
539.140892E-3
538.740921E-3
538.455391E-3
538.088036E-3
537.918663E-3
537.847710E-3
537.945557E-3
538.635063E-3
540.280151E-3
542.952919E-3
546.386719E-3
550.326347E-3
554.487991E-3
558.319473E-3
561.440849E-3
563.603783E-3
564.544487E-3
564.612579E-3
563.471603E-3
561.966133E-3
560.210037E-3
558.242798E-3
556.525040E-3
554.989815E-3
553.848839E-3
553.051758E-3
552.524757E-3
552.366829E-3
552.186584E-3
552.448654E-3
552.585411E-3
552.531624E-3
552.446938E-3
551.870728E-3
551.142311E-3
550.356674E-3
549.817085E-3
549.362755E-3
549.450302E-3
549.466896E-3
549.827385E-3
550.186157E-3
550.623894E-3
550.938034E-3
551.204109E-3
551.334572E-3
551.255035E-3
550.983238E-3
550.590706E-3
550.229073E-3
549.769592E-3
549.118423E-3
548.398590E-3
547.924232E-3
547.423553E-3
546.935463E-3
546.444511E-3
546.248245E-3
545.855141E-3
545.837402E-3
545.442581E-3
545.153618E-3
544.894981E-3
544.697571E-3
544.572830E-3
544.394875E-3
544.225502E-3
544.109344E-3
543.738556E-3
543.771172E-3
543.700218E-3
543.655014E-3
543.546295E-3
543.469620E-3
543.422127E-3
543.378067E-3
543.291092E-3
543.506813E-3
543.276215E-3
543.233299E-3
543.226433E-3
543.023300E-3
543.132019E-3
542.789841E-3
542.709732E-3
542.427635E-3
542.098618E-3
541.773605E-3
541.392517E-3
541.015434E-3
540.665245E-3
540.151405E-3
539.785194E-3
539.497948E-3
539.365196E-3
539.235878E-3
539.317131E-3
540.261841E-3
542.108345E-3
544.960785E-3
548.428917E-3
552.321625E-3
556.324196E-3
559.606934E-3
562.462807E-3
564.023209E-3
564.385414E-3
563.921928E-3
562.584686E-3
560.932159E-3
559.023285E-3
557.049179E-3
555.528259E-3
553.991890E-3
553.099823E-3
552.261543E-3
551.923943E-3
551.736832E-3
551.557159E-3
551.760292E-3
551.759720E-3
551.445580E-3
550.893974E-3
550.146675E-3
549.391937E-3
548.808861E-3
548.411179E-3
548.321915E-3
548.310471E-3
548.877525E-3
549.196815E-3
549.547005E-3
549.942398E-3
550.106621E-3
550.273705E-3
550.212479E-3
549.936104E-3
549.584198E-3
548.808289E-3
548.343658E-3
547.758865E-3
547.101402E-3
546.513748E-3
545.858002E-3
545.448875E-3
544.967651E-3
544.438362E-3
544.166565E-3
543.691063E-3
543.427277E-3
543.107986E-3
542.839622E-3
542.727470E-3
542.500877E-3
542.466545E-3
542.340660E-3
542.240524E-3
542.205048E-3
542.087746E-3
542.001343E-3
541.894341E-3
541.763878E-3
541.672325E-3
541.385651E-3
541.425705E-3
541.416550E-3
541.294670E-3
541.147614E-3
541.036606E-3
540.987968E-3
540.963364E-3
540.827751E-3
540.594292E-3
540.593147E-3
540.514755E-3
540.373993E-3
540.173149E-3
540.004349E-3
539.555740E-3
539.402390E-3
539.089966E-3
538.790703E-3
538.529205E-3
538.053703E-3
537.737274E-3
537.468338E-3
537.265778E-3
537.419128E-3
538.042831E-3
539.634132E-3
542.302895E-3
545.757866E-3
549.938965E-3
554.152679E-3
558.140373E-3
561.460304E-3
563.726234E-3
564.943314E-3
564.965630E-3
564.246941E-3
562.705421E-3
560.802841E-3
558.933449E-3
557.154465E-3
555.892754E-3
554.792404E-3
554.007339E-3
553.577042E-3
553.133011E-3
553.292084E-3
553.538132E-3
553.654289E-3
553.751564E-3
553.668594E-3
553.320694E-3
552.511024E-3
551.593781E-3
551.032448E-3
550.190163E-3
549.800491E-3
549.512672E-3
549.482346E-3
549.633980E-3
549.811363E-3
550.146103E-3
550.270844E-3
550.386429E-3
550.455666E-3
550.163269E-3
549.841690E-3
549.453163E-3
548.913574E-3
548.402596E-3
547.971153E-3
547.163773E-3
546.508598E-3
545.856285E-3
545.555878E-3
545.092964E-3
544.704437E-3
544.272423E-3
543.949699E-3
543.605232E-3
543.411827E-3
543.217850E-3
543.077087E-3
542.928886E-3
542.800140E-3
542.648506E-3
542.500305E-3
542.348671E-3
542.397308E-3
542.476845E-3
542.339516E-3
542.372131E-3
542.282867E-3
542.019081E-3
541.847992E-3
541.599655E-3
541.519547E-3
541.477203E-3
541.144180E-3
541.007996E-3
540.860939E-3
540.621758E-3
540.359116E-3
540.210342E-3
540.066719E-3
539.789772E-3
539.763451E-3
539.492226E-3
539.124870E-3
538.933754E-3
538.542366E-3
538.296890E-3
537.899208E-3
537.520981E-3
537.174797E-3
536.589432E-3
536.363411E-3
536.016655E-3
535.884476E-3
535.794640E-3
535.823250E-3
536.617470E-3
538.241959E-3
540.860367E-3
544.184303E-3
548.167992E-3
552.353096E-3
556.162834E-3
559.352875E-3
561.508942E-3
562.421036E-3
562.330055E-3
561.471748E-3
559.982300E-3
558.296013E-3
556.482697E-3
554.936600E-3
553.450584E-3
552.448082E-3
551.810074E-3
551.457024E-3
551.342583E-3
551.418114E-3
551.503944E-3
551.604080E-3
551.644135E-3
551.610374E-3
551.168633E-3
550.345230E-3
549.553299E-3
548.788261E-3
548.308182E-3
548.050117E-3
548.083878E-3
548.199463E-3
548.413467E-3
548.669243E-3
548.952484E-3
549.415398E-3
549.358749E-3
549.171066E-3
549.067497E-3
548.744202E-3
548.245239E-3
547.804070E-3
547.336578E-3
546.797562E-3
546.423340E-3
545.836830E-3
545.420265E-3
544.967079E-3
544.577980E-3
544.125366E-3
543.786049E-3
543.550873E-3
543.170357E-3
543.111420E-3
542.872810E-3
542.729187E-3
542.626762E-3
542.415047E-3
542.296600E-3
542.092896E-3
541.952705E-3
541.989899E-3
541.868019E-3
541.862869E-3
541.856003E-3
541.819382E-3
541.815376E-3
541.781616E-3
541.592789E-3
541.509247E-3
541.437149E-3
541.282654E-3
541.185951E-3
541.093254E-3
540.930748E-3
540.753365E-3
540.711021E-3
540.614319E-3
540.561676E-3
540.406609E-3
540.253258E-3
540.233231E-3
540.081596E-3
539.967155E-3
539.845848E-3
539.641571E-3
539.468765E-3
539.263344E-3
539.057922E-3
538.703728E-3
538.402176E-3
538.179588E-3
537.939835E-3
537.864876E-3
537.715530E-3
537.678909E-3
537.976456E-3
538.863945E-3
540.870667E-3
543.854713E-3
547.452736E-3
551.549721E-3
555.496216E-3
559.160042E-3
561.916924E-3
563.229561E-3
563.927650E-3
563.331413E-3
562.162971E-3
560.450363E-3
558.662796E-3
557.063484E-3
555.464172E-3
554.380989E-3
553.531265E-3
552.865791E-3
552.646065E-3
552.604866E-3
552.775383E-3
553.007698E-3
553.228569E-3
553.438568E-3
553.171921E-3
552.672958E-3
552.075005E-3
551.515961E-3
551.323128E-3
551.253891E-3
551.527977E-3
551.879883E-3
552.298737E-3
552.972221E-3
553.244019E-3
553.745270E-3
553.891754E-3
553.924942E-3
553.626823E-3
553.308678E-3
552.999687E-3
552.389145E-3
551.639557E-3
551.192093E-3
550.817299E-3
550.415039E-3
549.793053E-3
549.246597E-3
548.870087E-3
548.394012E-3
548.220062E-3
547.914505E-3
547.565460E-3
547.548294E-3
547.332573E-3
547.166061E-3
546.978951E-3
546.693420E-3
546.588707E-3
546.473694E-3
546.257401E-3
546.010780E-3
545.747566E-3
545.534134E-3
545.207405E-3
545.140457E-3
544.915581E-3
544.676399E-3
544.543076E-3
544.258690E-3
544.064713E-3
543.734550E-3
543.348312E-3
543.214989E-3
542.818451E-3
542.689705E-3
542.465401E-3
542.377281E-3
542.126656E-3
541.662025E-3
541.454887E-3
541.204262E-3
540.910721E-3
540.756798E-3
540.415192E-3
540.224075E-3
539.999771E-3
539.775467E-3
539.635277E-3
539.342308E-3
539.079094E-3
538.866806E-3
538.722610E-3
538.758087E-3
539.029884E-3
540.200615E-3
542.243958E-3
545.203400E-3
549.033165E-3
552.915001E-3
556.732750E-3
559.923935E-3
562.151527E-3
563.303947E-3
563.279915E-3
562.596703E-3
561.269760E-3
559.568024E-3
557.996178E-3
556.294441E-3
554.852486E-3
553.586197E-3
552.439499E-3
552.047539E-3
551.735687E-3
551.844406E-3
552.015495E-3
552.280998E-3
552.710724E-3
552.814293E-3
552.640915E-3
552.176857E-3
551.533127E-3
550.971222E-3
550.412750E-3
550.199318E-3
550.087738E-3
550.210190E-3
550.555229E-3
550.924873E-3
551.055336E-3
551.240730E-3
551.424980E-3
551.577187E-3
551.354027E-3
551.038170E-3
550.572395E-3
550.042534E-3
549.358177E-3
548.863220E-3
548.236084E-3
547.614670E-3
547.003555E-3
546.580124E-3
545.882607E-3
545.391655E-3
544.813728E-3
544.416046E-3
544.091606E-3
543.886185E-3
543.717957E-3
543.752289E-3
543.651009E-3
543.619537E-3
543.552589E-3
543.554306E-3
543.286514E-3
543.376350E-3
543.506241E-3
543.386078E-3
543.502235E-3
543.457031E-3
543.404388E-3
543.457031E-3
543.354607E-3
543.523979E-3
543.542290E-3
543.335724E-3
543.265915E-3
543.102264E-3
542.996407E-3
542.893410E-3
542.621613E-3
542.582703E-3
542.369270E-3
542.321777E-3
542.088318E-3
541.868019E-3
541.689491E-3
541.308403E-3
541.023445E-3
540.801430E-3
540.554237E-3
540.344810E-3
539.966583E-3
539.714813E-3
539.354324E-3
539.023018E-3
538.881683E-3
538.912010E-3
539.491081E-3
540.806007E-3
543.107986E-3
546.512032E-3
550.445938E-3
554.637909E-3
558.542633E-3
561.808205E-3
564.155388E-3
565.033150E-3
565.422821E-3
564.837456E-3
563.675880E-3
562.182426E-3
560.306740E-3
558.713722E-3
557.042313E-3
555.746269E-3
554.836464E-3
554.264832E-3
554.287148E-3
554.380989E-3
554.757500E-3
555.232430E-3
555.631256E-3
555.785751E-3
555.685616E-3
555.202675E-3
554.279137E-3
553.296661E-3
552.458382E-3
551.751137E-3
551.324844E-3
551.185799E-3
551.188087E-3
551.334000E-3
551.348305E-3
551.604652E-3
551.873016E-3
551.844978E-3
551.832390E-3
551.630402E-3
551.295090E-3
550.903130E-3
550.388718E-3
549.855423E-3
549.273491E-3
548.631477E-3
548.130226E-3
547.509956E-3
547.096825E-3
546.659660E-3
545.965004E-3
545.774460E-3
545.514679E-3
545.218277E-3
545.107841E-3
544.912720E-3
544.755363E-3
544.619751E-3
544.526482E-3
544.200325E-3
544.077873E-3
544.129372E-3
543.958855E-3
543.951416E-3
543.953705E-3
543.875313E-3
544.014931E-3
543.826103E-3
543.702507E-3
543.552589E-3
543.406105E-3
543.284798E-3
543.165207E-3
543.077087E-3
543.061638E-3
543.111420E-3
543.004990E-3
542.886543E-3
542.753792E-3
542.652512E-3
542.451668E-3
542.331505E-3
542.053413E-3
541.785049E-3
541.700363E-3
541.270065E-3
541.040611E-3
540.619469E-3
540.418625E-3
540.129089E-3
539.771461E-3
539.299965E-3
539.425850E-3
539.686203E-3
540.490150E-3
542.209053E-3
545.045471E-3
548.565674E-3
552.397728E-3
556.305885E-3
559.222412E-3
561.967850E-3
563.552284E-3
564.062691E-3
563.673592E-3
562.506294E-3
561.116982E-3
559.285927E-3
557.655144E-3
556.311607E-3
554.771805E-3
553.923225E-3
553.199387E-3
552.816582E-3
552.610016E-3
552.717018E-3
553.094673E-3
553.048897E-3
553.022003E-3
552.874947E-3
552.179718E-3
551.420403E-3
550.710297E-3
550.358391E-3
550.137520E-3
549.668884E-3
550.178146E-3
550.564957E-3
551.085663E-3
551.420975E-3
551.718521E-3
551.994324E-3
551.863861E-3
551.630402E-3
551.441574E-3
550.785828E-3
550.215340E-3
549.502945E-3
548.938179E-3
548.417473E-3
547.716522E-3
547.243309E-3
546.742058E-3
546.409035E-3
546.060562E-3
545.668030E-3
545.416260E-3
545.112419E-3
544.917870E-3
544.815445E-3
544.363403E-3
544.353104E-3
544.254112E-3
544.105339E-3
544.119644E-3
543.868446E-3
543.709373E-3
543.597221E-3
543.495941E-3
543.495941E-3
543.382645E-3
543.458176E-3
543.458176E-3
543.404388E-3
543.437004E-3
543.235016E-3
542.796707E-3
542.939758E-3
542.863083E-3
542.773819E-3
542.517471E-3
542.448807E-3
542.103767E-3
541.814232E-3
541.496658E-3
541.140175E-3
540.750504E-3
540.323639E-3
539.984894E-3
539.787483E-3
539.378357E-3
539.202690E-3
538.993263E-3
539.268494E-3
540.545082E-3
542.502022E-3
545.393944E-3
548.914146E-3
552.575111E-3
556.033516E-3
558.818436E-3
560.747910E-3
561.528397E-3
561.413956E-3
560.607147E-3
559.249878E-3
557.545853E-3
555.700493E-3
554.085732E-3
552.559090E-3
551.172638E-3
550.373268E-3
549.864006E-3
549.514389E-3
549.461746E-3
549.379349E-3
549.334717E-3
549.159622E-3
548.814011E-3
548.358536E-3
547.455597E-3
546.833611E-3
546.493721E-3
546.274567E-3
546.349525E-3
546.600723E-3
546.887970E-3
547.274208E-3
547.813797E-3
548.035240E-3
548.176575E-3
548.203468E-3
547.986603E-3
547.706795E-3
547.327995E-3
546.709442E-3
546.148109E-3
545.511246E-3
544.841194E-3
544.220352E-3
543.585205E-3
543.080521E-3
542.613602E-3
542.292023E-3
542.011070E-3
541.635704E-3
541.691780E-3
