Notes :


2023-11-04 ¿ÀÈÄ 9:43:30
Volts
Ch : LED 2,
525.011444E-3
526.258278E-3
526.653099E-3
526.742935E-3
526.174164E-3
525.374794E-3
524.445534E-3
523.324585E-3
522.601891E-3
521.680641E-3
520.988846E-3
520.491600E-3
520.064163E-3
519.893074E-3
519.927406E-3
520.073891E-3
520.349121E-3
520.471001E-3
520.607185E-3
520.423508E-3
519.999504E-3
519.446754E-3
518.695450E-3
518.273163E-3
518.009377E-3
517.901230E-3
518.058586E-3
518.231392E-3
518.415642E-3
518.540955E-3
518.527794E-3
518.697166E-3
518.611908E-3
518.594742E-3
518.370438E-3
518.129539E-3
517.981339E-3
517.560196E-3
517.486954E-3
517.029190E-3
516.783714E-3
516.570854E-3
516.265869E-3
516.145134E-3
515.919113E-3
515.908813E-3
516.135406E-3
515.954590E-3
516.085625E-3
515.974045E-3
515.896225E-3
515.944862E-3
515.744591E-3
515.824699E-3
515.667343E-3
515.531158E-3
515.532875E-3
515.336609E-3
515.307999E-3
515.216446E-3
515.171814E-3
515.186691E-3
515.018463E-3
515.051079E-3
514.908600E-3
514.771271E-3
514.785004E-3
514.610481E-3
514.635086E-3
514.530373E-3
514.325523E-3
514.372444E-3
514.082909E-3
514.052582E-3
513.844872E-3
513.610268E-3
513.666916E-3
513.529015E-3
513.482094E-3
513.343048E-3
513.269234E-3
513.121033E-3
512.865257E-3
512.741661E-3
512.612343E-3
512.385750E-3
512.199211E-3
511.913681E-3
511.747169E-3
511.458778E-3
510.998154E-3
510.903740E-3
510.609055E-3
510.624504E-3
510.693169E-3
510.995293E-3
511.927414E-3
513.534164E-3
515.892792E-3
518.621635E-3
521.438599E-3
524.073601E-3
526.152992E-3
527.885628E-3
528.662109E-3
528.711891E-3
528.470421E-3
527.699089E-3
526.789856E-3
525.783348E-3
524.697304E-3
523.867035E-3
523.038483E-3
522.557831E-3
522.207069E-3
521.850014E-3
521.986771E-3
521.963882E-3
522.180176E-3
522.275162E-3
522.323799E-3
522.339821E-3
521.931267E-3
521.486092E-3
521.002579E-3
520.452118E-3
520.240974E-3
520.057297E-3
520.271301E-3
520.384026E-3
520.500183E-3
520.765686E-3
520.696449E-3
520.973396E-3
520.993423E-3
520.912170E-3
520.786285E-3
520.480728E-3
520.162582E-3
519.893074E-3
519.499969E-3
519.072533E-3
518.587875E-3
518.372154E-3
518.023109E-3
517.517853E-3
517.295265E-3
516.929626E-3
516.804886E-3
516.630363E-3
516.411209E-3
516.488457E-3
516.239548E-3
516.164017E-3
516.095352E-3
516.007805E-3
516.078758E-3
515.832138E-3
515.884781E-3
515.918541E-3
515.798950E-3
515.805244E-3
515.629578E-3
515.684509E-3
515.563202E-3
515.396118E-3
515.459633E-3
515.310287E-3
515.206146E-3
515.097427E-3
514.871979E-3
514.958382E-3
514.686012E-3
514.669418E-3
514.547539E-3
514.330673E-3
514.319229E-3
514.157295E-3
514.110374E-3
514.006805E-3
513.855171E-3
513.882637E-3
513.683510E-3
513.602829E-3
513.644600E-3
513.558769E-3
513.609695E-3
513.328171E-3
513.266373E-3
513.157654E-3
512.972832E-3
512.923050E-3
512.571144E-3
512.524796E-3
512.394333E-3
512.231255E-3
512.273026E-3
512.210655E-3
512.508202E-3
513.232040E-3
514.526939E-3
516.783142E-3
519.221878E-3
522.014809E-3
524.722481E-3
526.886559E-3
528.461838E-3
529.224014E-3
529.514694E-3
529.209137E-3
528.430939E-3
527.561760E-3
526.439095E-3
525.468636E-3
524.470139E-3
523.461342E-3
522.933197E-3
522.358131E-3
522.002792E-3
521.941566E-3
521.936417E-3
522.116661E-3
522.077179E-3
522.224236E-3
522.121811E-3
521.653175E-3
521.241760E-3
520.716476E-3
520.576859E-3
520.423508E-3
520.491028E-3
520.817184E-3
520.959091E-3
521.262360E-3
521.625710E-3
521.692085E-3
521.858025E-3
521.725845E-3
521.653175E-3
521.439171E-3
521.056366E-3
520.757675E-3
520.266151E-3
519.847870E-3
519.505119E-3
519.048500E-3
518.641663E-3
518.190193E-3
517.862320E-3
517.650604E-3
517.259216E-3
517.154503E-3
516.888428E-3
516.803741E-3
516.654968E-3
516.424942E-3
516.408920E-3
516.268158E-3
516.079330E-3
516.007233E-3
515.829277E-3
515.927124E-3
515.688515E-3
515.521431E-3
515.525436E-3
515.372086E-3
515.415001E-3
515.155220E-3
515.063095E-3
515.013885E-3
514.751244E-3
514.667702E-3
514.442825E-3
514.247704E-3
514.169884E-3
513.882065E-3
513.772774E-3
513.549042E-3
513.456345E-3
513.352203E-3
513.070107E-3
513.041496E-3
512.801170E-3
512.581444E-3
512.437820E-3
512.223816E-3
512.096786E-3
511.952019E-3
511.679649E-3
511.507416E-3
511.142349E-3
511.068535E-3
510.789299E-3
510.513496E-3
510.372162E-3
510.128975E-3
510.167885E-3
510.342407E-3
510.769272E-3
512.047005E-3
513.800240E-3
516.257858E-3
518.940926E-3
521.459770E-3
523.806381E-3
525.363350E-3
526.654243E-3
526.994133E-3
526.860809E-3
526.313210E-3
525.436592E-3
524.478149E-3
523.293686E-3
522.260857E-3
521.409988E-3
520.591736E-3
520.160294E-3
519.796944E-3
519.590950E-3
519.607544E-3
519.476509E-3
519.626427E-3
519.666481E-3
519.596672E-3
519.371796E-3
518.719482E-3
518.312645E-3
517.850876E-3
517.630577E-3
517.630577E-3
517.690086E-3
517.955017E-3
518.090057E-3
518.361855E-3
518.669128E-3
518.663406E-3
518.777275E-3
518.548393E-3
518.377304E-3
518.169022E-3
517.758751E-3
517.502975E-3
517.106438E-3
516.672134E-3
516.217804E-3
515.699387E-3
515.450478E-3
515.067101E-3
514.617348E-3
514.474869E-3
514.058304E-3
514.065742E-3
513.796234E-3
513.621712E-3
513.635445E-3
513.474655E-3
513.464928E-3
513.302422E-3
513.329315E-3
513.234901E-3
513.054085E-3
513.026047E-3
512.987709E-3
512.848091E-3
512.909317E-3
512.730217E-3
512.721634E-3
512.660980E-3
512.495041E-3
512.438965E-3
512.150574E-3
512.209511E-3
512.069321E-3
511.879921E-3
511.823273E-3
511.590385E-3
511.639595E-3
511.507988E-3
511.277390E-3
511.244774E-3
510.962105E-3
510.866547E-3
510.776711E-3
510.603333E-3
510.606194E-3
510.475159E-3
510.388756E-3
510.205650E-3
510.029984E-3
510.055161E-3
509.745026E-3
509.631729E-3
509.437752E-3
509.177971E-3
509.026337E-3
508.684158E-3
508.581161E-3
508.636665E-3
508.730507E-3
509.146500E-3
510.124969E-3
511.986351E-3
514.365005E-3
517.033195E-3
519.772911E-3
522.243118E-3
524.355698E-3
525.680351E-3
526.283455E-3
526.433945E-3
525.829124E-3
525.172234E-3
524.170303E-3
522.945213E-3
522.055435E-3
520.908737E-3
520.324516E-3
519.739723E-3
519.314003E-3
519.281387E-3
519.133759E-3
519.272232E-3
519.429588E-3
519.450760E-3
519.575500E-3
519.379234E-3
519.102287E-3
518.614197E-3
518.019104E-3
517.744446E-3
517.337608E-3
517.325592E-3
517.389679E-3
517.413139E-3
517.708397E-3
517.692947E-3
517.922401E-3
517.989349E-3
517.870331E-3
517.921829E-3
517.593384E-3
517.374802E-3
517.032623E-3
516.582870E-3
516.334534E-3
515.801811E-3
515.572357E-3
515.198708E-3
514.696884E-3
514.510345E-3
514.167595E-3
514.010239E-3
513.754463E-3
513.491249E-3
513.531303E-3
513.306999E-3
513.192558E-3
513.118172E-3
512.865257E-3
513.027191E-3
512.789154E-3
512.811470E-3
512.697601E-3
512.611198E-3
512.665558E-3
512.494469E-3
512.509346E-3
512.423515E-3
512.277603E-3
512.354851E-3
512.224388E-3
512.184334E-3
512.010956E-3
511.891365E-3
511.880493E-3
511.673927E-3
511.594391E-3
511.506271E-3
511.359787E-3
511.376381E-3
511.150360E-3
511.154938E-3
511.019325E-3
510.852242E-3
510.850525E-3
510.600471E-3
510.617638E-3
510.482025E-3
510.348701E-3
510.308647E-3
510.101509E-3
510.113525E-3
509.938431E-3
509.740448E-3
509.686089E-3
509.434319E-3
509.342194E-3
509.088135E-3
509.021187E-3
509.110451E-3
509.030914E-3
509.230614E-3
509.893799E-3
511.233902E-3
513.528442E-3
515.972900E-3
518.721199E-3
521.371651E-3
523.368073E-3
525.056076E-3
525.800514E-3
526.019096E-3
525.747299E-3
524.961662E-3
524.092484E-3
522.910881E-3
521.912384E-3
521.008873E-3
520.042419E-3
519.429016E-3
518.891144E-3
518.660545E-3
518.559837E-3
518.434525E-3
518.654823E-3
518.741226E-3
518.899727E-3
518.862534E-3
518.367004E-3
518.079185E-3
517.544746E-3
517.231750E-3
517.082405E-3
517.029762E-3
517.260361E-3
517.437172E-3
517.758751E-3
517.983627E-3
518.030548E-3
518.223381E-3
518.188477E-3
517.960739E-3
517.869759E-3
517.477798E-3
517.227173E-3
516.781998E-3
516.409492E-3
516.073608E-3
515.588379E-3
515.341187E-3
514.849091E-3
514.608765E-3
514.381599E-3
513.970757E-3
514.007378E-3
513.693810E-3
513.555908E-3
513.496399E-3
513.266373E-3
513.249779E-3
513.047218E-3
512.958527E-3
512.962532E-3
512.790871E-3
512.830353E-3
512.659836E-3
512.649536E-3
512.582588E-3
512.340546E-3
512.398338E-3
512.214661E-3
512.178040E-3
512.071037E-3
511.816978E-3
511.818695E-3
511.558342E-3
511.450195E-3
511.333466E-3
511.075974E-3
511.026192E-3
510.725212E-3
510.631943E-3
510.503197E-3
510.146141E-3
509.991074E-3
509.793663E-3
509.737587E-3
509.572792E-3
509.264374E-3
509.188843E-3
508.821487E-3
508.665276E-3
508.438110E-3
508.070755E-3
507.884789E-3
507.591248E-3
507.507706E-3
507.461929E-3
507.336617E-3
507.862473E-3
508.698463E-3
510.286903E-3
512.552261E-3
514.926910E-3
517.496681E-3
519.677925E-3
521.499825E-3
522.738075E-3
523.242760E-3
523.306274E-3
522.710609E-3
522.014236E-3
520.991135E-3
519.786072E-3
518.843651E-3
517.881203E-3
517.073822E-3
516.382027E-3
515.828133E-3
515.687943E-3
515.389824E-3
515.387535E-3
515.570068E-3
515.496254E-3
515.479660E-3
515.199280E-3
514.647675E-3
514.196777E-3
513.773918E-3
513.651466E-3
513.547325E-3
513.651466E-3
513.951302E-3
514.109230E-3
514.473724E-3
514.606476E-3
514.768982E-3
514.835358E-3
514.718056E-3
514.551544E-3
514.219666E-3
513.933563E-3
513.571358E-3
512.996864E-3
512.730789E-3
512.259865E-3
511.903954E-3
511.520576E-3
510.972404E-3
510.692024E-3
510.378456E-3
510.182762E-3
510.025978E-3
509.674644E-3
509.690094E-3
509.511566E-3
509.412575E-3
509.379387E-3
509.302711E-3
509.283257E-3
509.255219E-3
509.129333E-3
509.173965E-3
509.022903E-3
508.973122E-3
508.899307E-3
508.883858E-3
508.803177E-3
508.650970E-3
508.660698E-3
508.501625E-3
508.465576E-3
508.431244E-3
508.125687E-3
508.113670E-3
507.901955E-3
507.802391E-3
507.674217E-3
507.384682E-3
507.392693E-3
507.299423E-3
507.265663E-3
507.195854E-3
506.870270E-3
506.839943E-3
506.656837E-3
506.576157E-3
506.557274E-3
506.294060E-3
506.172180E-3
506.023979E-3
505.736160E-3
505.602264E-3
505.221176E-3
505.074692E-3
504.990005E-3
504.984283E-3
505.225754E-3
505.671501E-3
507.196426E-3
508.953667E-3
511.454201E-3
514.136696E-3
516.654968E-3
519.039345E-3
520.833206E-3
522.014809E-3
522.526932E-3
522.386169E-3
521.898651E-3
521.063805E-3
520.009232E-3
518.953514E-3
517.809105E-3
517.072105E-3
516.301346E-3
515.803528E-3
515.639877E-3
515.353775E-3
515.441895E-3
515.472221E-3
515.631294E-3
515.770912E-3
515.632439E-3
515.571785E-3
515.069389E-3
514.426804E-3
513.983345E-3
513.505554E-3
513.454628E-3
513.345337E-3
513.308144E-3
513.571358E-3
513.586807E-3
513.805389E-3
513.832855E-3
513.995934E-3
514.019966E-3
513.764191E-3
513.595963E-3
513.294411E-3
512.857246E-3
512.644386E-3
512.002373E-3
511.593819E-3
511.209297E-3
510.806465E-3
510.533524E-3
510.088348E-3
509.967613E-3
509.805679E-3
509.478378E-3
509.361649E-3
509.102440E-3
509.129906E-3
508.922195E-3
508.813477E-3
508.805466E-3
508.638954E-3
508.581161E-3
508.501053E-3
508.341408E-3
508.466721E-3
508.305931E-3
508.366585E-3
508.264732E-3
508.095932E-3
508.192062E-3
507.978058E-3
508.098221E-3
507.808685E-3
507.637596E-3
507.667351E-3
507.440186E-3
507.402992E-3
507.320023E-3
507.041931E-3
506.978989E-3
506.823349E-3
506.786156E-3
506.699753E-3
506.596756E-3
506.581306E-3
506.343842E-3
506.383896E-3
506.339836E-3
506.081200E-3
506.202507E-3
505.855751E-3
505.748177E-3
505.585670E-3
505.359650E-3
505.226898E-3
504.967690E-3
504.873848E-3
504.760551E-3
504.643822E-3
504.770851E-3
504.873276E-3
505.622292E-3
506.859398E-3
508.966255E-3
511.546326E-3
514.009094E-3
516.636086E-3
518.911171E-3
520.529938E-3
521.651459E-3
521.888351E-3
521.760178E-3
521.071243E-3
520.192909E-3
519.255066E-3
518.092918E-3
517.152214E-3
516.216087E-3
515.505409E-3
515.238190E-3
514.926338E-3
514.919472E-3
514.956093E-3
515.002441E-3
515.291405E-3
515.271950E-3
515.231323E-3
514.858246E-3
514.435959E-3
514.034271E-3
513.464355E-3
513.371658E-3
513.325310E-3
513.391685E-3
513.723564E-3
513.864899E-3
514.050293E-3
514.212227E-3
514.241982E-3
514.273453E-3
514.149857E-3
514.017677E-3
513.705254E-3
513.362503E-3
513.089561E-3
512.624931E-3
512.301064E-3
511.851883E-3
511.401558E-3
511.194992E-3
510.805321E-3
510.619354E-3
510.363579E-3
510.117531E-3
510.048866E-3
509.826851E-3
509.782791E-3
509.824562E-3
509.498405E-3
509.498405E-3
509.280968E-3
509.359360E-3
509.274101E-3
509.129906E-3
509.120750E-3
509.078979E-3
509.159660E-3
509.066391E-3
508.814049E-3
508.840942E-3
508.661842E-3
508.659554E-3
508.527946E-3
508.315659E-3
508.315659E-3
508.121109E-3
508.046150E-3
507.900810E-3
507.661629E-3
507.666779E-3
507.392693E-3
507.196426E-3
507.057381E-3
506.865692E-3
506.735229E-3
506.485176E-3
506.393051E-3
506.200218E-3
505.996513E-3
505.904961E-3
505.506706E-3
505.274391E-3
504.994583E-3
504.606628E-3
504.511642E-3
504.296494E-3
504.286766E-3
504.368591E-3
504.409218E-3
505.248642E-3
506.562424E-3
508.663559E-3
511.077118E-3
513.595390E-3
516.196060E-3
517.990494E-3
519.423866E-3
520.222664E-3
520.214653E-3
520.013809E-3
519.158363E-3
518.268585E-3
517.191696E-3
516.026688E-3
515.188408E-3
514.221382E-3
513.705254E-3
513.225174E-3
512.984276E-3
512.894440E-3
512.713623E-3
512.765694E-3
512.830353E-3
512.623787E-3
512.400627E-3
511.823273E-3
511.355782E-3
511.063957E-3
510.698318E-3
510.692024E-3
510.633659E-3
510.857964E-3
511.093712E-3
511.265945E-3
511.590958E-3
511.637306E-3
511.642456E-3
511.713409E-3
511.391830E-3
511.208153E-3
510.741234E-3
510.480881E-3
510.061455E-3
509.519577E-3
509.236336E-3
508.743668E-3
508.317947E-3
507.961464E-3
507.501411E-3
507.314301E-3
506.988144E-3
506.781006E-3
506.564140E-3
506.447411E-3
506.451988E-3
506.250000E-3
506.137848E-3
506.147003E-3
505.942154E-3
505.987930E-3
505.845451E-3
505.863762E-3
505.780792E-3
505.650902E-3
505.728722E-3
505.571365E-3
505.551910E-3
505.467224E-3
505.205154E-3
505.222321E-3
505.089569E-3
505.032921E-3
504.928207E-3
504.726219E-3
504.725075E-3
504.499054E-3
504.437828E-3
504.339981E-3
504.093933E-3
504.187202E-3
503.970909E-3
503.879356E-3
503.805542E-3
503.622437E-3
503.548622E-3
503.363228E-3
503.309441E-3
503.221893E-3
502.938652E-3
502.830505E-3
502.613640E-3
502.338982E-3
502.163887E-3
501.833725E-3
501.875496E-3
501.820564E-3
501.950455E-3
502.417946E-3
503.317451E-3
505.155373E-3
507.349777E-3
510.118103E-3
512.982559E-3
515.512276E-3
517.737007E-3
519.207001E-3
519.998360E-3
520.195770E-3
519.691086E-3
519.110298E-3
518.009377E-3
516.962242E-3
515.994072E-3
515.035057E-3
514.391327E-3
513.846016E-3
513.593102E-3
513.536453E-3
513.400269E-3
513.673782E-3
513.736725E-3
513.890076E-3
513.958740E-3
513.769341E-3
513.473511E-3
512.845230E-3
