Notes :


2023-11-04 ¿ÀÈÄ 6:47:19
Volts
Ch : LED 2,
310.106277E-3
312.204552E-3
313.745499E-3
314.735985E-3
315.149689E-3
314.921379E-3
314.372063E-3
313.584137E-3
312.565613E-3
311.707878E-3
310.913658E-3
310.295677E-3
309.873390E-3
309.565544E-3
309.457970E-3
309.337234E-3
309.264565E-3
309.333801E-3
309.331512E-3
309.221077E-3
308.877754E-3
308.500671E-3
307.979965E-3
307.545090E-3
307.431221E-3
307.499886E-3
307.443237E-3
307.572556E-3
307.812309E-3
308.295250E-3
308.529854E-3
308.705521E-3
308.684349E-3
308.588791E-3
308.352470E-3
308.100700E-3
307.765388E-3
307.254982E-3
306.870461E-3
306.519699E-3
306.113434E-3
305.707169E-3
305.387306E-3
305.140114E-3
304.694366E-3
304.301262E-3
304.063225E-3
303.933907E-3
303.814316E-3
303.865814E-3
303.936768E-3
303.810310E-3
303.767395E-3
303.631783E-3
303.643799E-3
303.515053E-3
303.390884E-3
303.408623E-3
303.293610E-3
303.359985E-3
303.402901E-3
303.441811E-3
303.449249E-3
303.389168E-3
303.361702E-3
303.324509E-3
303.279877E-3
303.212357E-3
303.079033E-3
302.967453E-3
302.830124E-3
302.699089E-3
302.560616E-3
302.215576E-3
301.940346E-3
301.613045E-3
301.396751E-3
301.142693E-3
300.956154E-3
300.878906E-3
300.856018E-3
300.988197E-3
301.511192E-3
302.458191E-3
304.039764E-3
305.995560E-3
308.288956E-3
310.582352E-3
312.660599E-3
314.364624E-3
315.386009E-3
315.936470E-3
315.864944E-3
315.294456E-3
314.650726E-3
314.079094E-3
313.111496E-3
312.270927E-3
311.614037E-3
311.159706E-3
310.823250E-3
310.721397E-3
310.819244E-3
310.861588E-3
311.025238E-3
311.156845E-3
311.287880E-3
311.315346E-3
310.877609E-3
310.404968E-3
309.683990E-3
309.190750E-3
308.655167E-3
308.351898E-3
308.398819E-3
308.448601E-3
308.759308E-3
309.091759E-3
309.318924E-3
309.605026E-3
309.641075E-3
309.408188E-3
309.235382E-3
308.803368E-3
308.392525E-3
308.090973E-3
307.716179E-3
307.280731E-3
306.995201E-3
306.764030E-3
306.354332E-3
306.004715E-3
305.715179E-3
305.425072E-3
305.298042E-3
305.045700E-3
304.969025E-3
304.860878E-3
304.867744E-3
304.839706E-3
304.757881E-3
304.709244E-3
304.677200E-3
304.611397E-3
304.449463E-3
304.397964E-3
304.345894E-3
304.173660E-3
304.209137E-3
304.150772E-3
304.066086E-3
304.119301E-3
304.111290E-3
304.070091E-3
304.078102E-3
304.010010E-3
303.915024E-3
303.760529E-3
303.562546E-3
303.525352E-3
303.371429E-3
303.143120E-3
302.872467E-3
302.600098E-3
302.263069E-3
302.020454E-3
301.760674E-3
301.738358E-3
301.530647E-3
301.610756E-3
301.636505E-3
301.928902E-3
302.608109E-3
303.627205E-3
305.292320E-3
307.377434E-3
309.689713E-3
311.921310E-3
313.893700E-3
315.446091E-3
316.257477E-3
316.649437E-3
316.330719E-3
315.641212E-3
314.933968E-3
314.038467E-3
313.155556E-3
312.414551E-3
312.024879E-3
311.703873E-3
311.569405E-3
311.549950E-3
311.456680E-3
311.757088E-3
312.052345E-3
311.963654E-3
311.805725E-3
311.697578E-3
311.291313E-3
310.915375E-3
310.228157E-3
309.696007E-3
309.463692E-3
309.320068E-3
309.352112E-3
309.516907E-3
309.731483E-3
310.092545E-3
310.533714E-3
310.464478E-3
310.486794E-3
310.253334E-3
309.980965E-3
309.560966E-3
309.189606E-3
308.855438E-3
308.391380E-3
308.034897E-3
307.567406E-3
307.317352E-3
307.006073E-3
306.817245E-3
306.552887E-3
306.328011E-3
306.373787E-3
306.080246E-3
305.973244E-3
305.846214E-3
305.678558E-3
305.626488E-3
305.634499E-3
305.596161E-3
305.628777E-3
305.530357E-3
305.484009E-3
305.445099E-3
305.414772E-3
305.345535E-3
305.394173E-3
305.304909E-3
305.278587E-3
305.151558E-3
305.433655E-3
305.166435E-3
305.177307E-3
305.082893E-3
304.949570E-3
304.844284E-3
304.646873E-3
304.498100E-3
304.230309E-3
303.986549E-3
303.765106E-3
303.500175E-3
303.139687E-3
303.000641E-3
302.890205E-3
302.922249E-3
302.865601E-3
302.920532E-3
303.071022E-3
303.702164E-3
304.943848E-3
306.583786E-3
308.637428E-3
310.712814E-3
312.844276E-3
314.727974E-3
315.982819E-3
316.767883E-3
316.821671E-3
316.336441E-3
315.580559E-3
314.700508E-3
313.909149E-3
313.011360E-3
312.472343E-3
311.818314E-3
311.294174E-3
311.139107E-3
311.040688E-3
311.071587E-3
311.258125E-3
311.199188E-3
311.192322E-3
311.039543E-3
310.420418E-3
309.940910E-3
309.281731E-3
308.881187E-3
308.533859E-3
308.549881E-3
308.706665E-3
309.063721E-3
309.473419E-3
309.743500E-3
309.985542E-3
310.058212E-3
309.920311E-3
309.736061E-3
309.457397E-3
309.031105E-3
308.707237E-3
308.323288E-3
307.927895E-3
307.526779E-3
307.169151E-3
306.821823E-3
306.314850E-3
306.053925E-3
305.605888E-3
305.228806E-3
304.979897E-3
304.823685E-3
304.799652E-3
304.779053E-3
304.745293E-3
304.754448E-3
304.655457E-3
304.658890E-3
304.561043E-3
304.337311E-3
304.322433E-3
304.240036E-3
304.163933E-3
304.105568E-3
304.083824E-3
304.050064E-3
303.893280E-3
303.941345E-3
304.031181E-3
303.941917E-3
303.973961E-3
303.893280E-3
303.798866E-3
303.629494E-3
303.404045E-3
303.278732E-3
303.085899E-3
302.851868E-3
302.704239E-3
302.449036E-3
302.221870E-3
301.880836E-3
301.613045E-3
301.490593E-3
301.383018E-3
301.431084E-3
301.437378E-3
301.738930E-3
302.568054E-3
303.955650E-3
305.868530E-3
307.993126E-3
310.301399E-3
312.698936E-3
314.543724E-3
315.980530E-3
316.622543E-3
316.772461E-3
316.417694E-3
315.772247E-3
315.012360E-3
314.127159E-3
313.188171E-3
312.571907E-3
311.962509E-3
311.718750E-3
311.476707E-3
311.535072E-3
311.630058E-3
311.847496E-3
312.058067E-3
312.086105E-3
311.986542E-3
311.775398E-3
311.216927E-3
310.573196E-3
309.918022E-3
309.424210E-3
309.241676E-3
308.940697E-3
308.916092E-3
309.056854E-3
309.309196E-3
309.580421E-3
309.709167E-3
309.877396E-3
309.739494E-3
309.518051E-3
309.189034E-3
308.831406E-3
308.539581E-3
308.075523E-3
307.768250E-3
307.411194E-3
307.081604E-3
306.735420E-3
306.528854E-3
306.158066E-3
305.741501E-3
305.441666E-3
305.276871E-3
305.069733E-3
304.922676E-3
304.942703E-3
304.757309E-3
304.793358E-3
304.799652E-3
304.718971E-3
304.771042E-3
304.597092E-3
304.498100E-3
304.320717E-3
304.318428E-3
304.189682E-3
304.027748E-3
304.005432E-3
303.948784E-3
303.839493E-3
303.972816E-3
303.905296E-3
303.797722E-3
303.774834E-3
303.666115E-3
303.468132E-3
303.320503E-3
303.093910E-3
302.964020E-3
302.766037E-3
302.702522E-3
302.529716E-3
302.459908E-3
302.047348E-3
301.793861E-3
301.551819E-3
301.191330E-3
301.025391E-3
301.003075E-3
301.064873E-3
301.135254E-3
301.544952E-3
302.592659E-3
304.178810E-3
306.206131E-3
308.455467E-3
310.728836E-3
312.817955E-3
314.479065E-3
315.712166E-3
316.266060E-3
316.110420E-3
315.720749E-3
315.014648E-3
314.171791E-3
313.389015E-3
312.619972E-3
312.000275E-3
311.410904E-3
311.108780E-3
310.834694E-3
310.691643E-3
310.784912E-3
310.895920E-3
311.059570E-3
311.212921E-3
311.057281E-3
310.728264E-3
310.197258E-3
309.501457E-3
308.944702E-3
308.434868E-3
308.192825E-3
308.041191E-3
308.070374E-3
308.355904E-3
308.700371E-3
309.009933E-3
309.242249E-3
309.294319E-3
309.267998E-3
308.913803E-3
308.618546E-3
308.224297E-3
307.650948E-3
307.411766E-3
307.034111E-3
306.784630E-3
306.421852E-3
306.187248E-3
305.872536E-3
305.573845E-3
305.397034E-3
305.102348E-3
304.801369E-3
304.672050E-3
304.505539E-3
304.421425E-3
304.414558E-3
304.316139E-3
304.396248E-3
304.259491E-3
304.257774E-3
304.151344E-3
304.131889E-3
303.984261E-3
303.936195E-3
303.904152E-3
303.849220E-3
303.777122E-3
303.739357E-3
303.600311E-3
303.751945E-3
303.733063E-3
303.628349E-3
303.567123E-3
303.407478E-3
303.307915E-3
303.179169E-3
302.915382E-3
302.734566E-3
302.653885E-3
302.522278E-3
302.330589E-3
302.085114E-3
301.835060E-3
301.475716E-3
301.254845E-3
301.138687E-3
301.092339E-3
301.063728E-3
301.036263E-3
301.261139E-3
301.809883E-3
302.935982E-3
304.783058E-3
306.969452E-3
309.204483E-3
311.298180E-3
313.169861E-3
314.542580E-3
315.236664E-3
315.417480E-3
315.070152E-3
314.404106E-3
313.679695E-3
312.667465E-3
311.888123E-3
311.128235E-3
310.498810E-3
309.990692E-3
309.542084E-3
309.401894E-3
309.310341E-3
309.388733E-3
309.443665E-3
309.418488E-3
309.395599E-3
309.234238E-3
308.692360E-3
308.148766E-3
307.551384E-3
307.244110E-3
307.198906E-3
307.092476E-3
307.308769E-3
307.617187E-3
308.013725E-3
308.414841E-3
308.604240E-3
308.672333E-3
308.583641E-3
308.463478E-3
307.945633E-3
307.491302E-3
307.077599E-3
306.563187E-3
306.234169E-3
305.885696E-3
305.660248E-3
305.252266E-3
304.842567E-3
304.554176E-3
304.349899E-3
304.067802E-3
303.990555E-3
303.702736E-3
303.522491E-3
303.553391E-3
303.326225E-3
303.299332E-3
303.214645E-3
303.074455E-3
303.153992E-3
303.100204E-3
303.109932E-3
302.907372E-3
302.592659E-3
302.736282E-3
302.643013E-3
302.674484E-3
302.635002E-3
302.648735E-3
302.606392E-3
302.505112E-3
302.541733E-3
302.249908E-3
302.292824E-3
302.182961E-3
301.996994E-3
301.774979E-3
301.394463E-3
301.061440E-3
300.831413E-3
300.535011E-3
300.419426E-3
300.193977E-3
300.084686E-3
300.034332E-3
300.148201E-3
300.405121E-3
300.901794E-3
302.059937E-3
303.671265E-3
305.596733E-3
307.954788E-3
310.196114E-3
312.322426E-3
314.036179E-3
314.903069E-3
315.289307E-3
315.042114E-3
314.390373E-3
313.511467E-3
312.492371E-3
311.604309E-3
310.774612E-3
310.258484E-3
309.812164E-3
309.708023E-3
309.789848E-3
309.653091E-3
309.705162E-3
309.745216E-3
309.821320E-3
309.730339E-3
309.559822E-3
309.085464E-3
308.573914E-3
307.888412E-3
307.572556E-3
307.298470E-3
307.237816E-3
307.186317E-3
307.309341E-3
307.607460E-3
307.727051E-3
307.856941E-3
308.027458E-3
307.867813E-3
307.753372E-3
307.537651E-3
307.350540E-3
307.020950E-3
306.685638E-3
306.356049E-3
305.870819E-3
305.437088E-3
304.997635E-3
304.423141E-3
304.175949E-3
303.882980E-3
303.630066E-3
303.551102E-3
303.392601E-3
303.390884E-3
303.155136E-3
303.081894E-3
302.977753E-3
302.759171E-3
302.728271E-3
302.589798E-3
302.526283E-3
302.526855E-3
302.479362E-3
302.676201E-3
302.613831E-3
302.566338E-3
302.550316E-3
302.437019E-3
302.330017E-3
302.197838E-3
302.001572E-3
302.028465E-3
302.063370E-3
302.100563E-3
302.047920E-3
301.943779E-3
301.877975E-3
301.732635E-3
301.491737E-3
301.437378E-3
301.016235E-3
300.705528E-3
300.375366E-3
300.217438E-3
300.039482E-3
299.930763E-3
299.895859E-3
299.808311E-3
299.959946E-3
300.045204E-3
300.482941E-3
301.495743E-3
303.022957E-3
305.068016E-3
307.365990E-3
309.711456E-3
311.818314E-3
313.298607E-3
314.564323E-3
315.102196E-3
315.158844E-3
314.622116E-3
313.757515E-3
312.956429E-3
311.947060E-3
311.063576E-3
310.259056E-3
309.834480E-3
309.655952E-3
309.512329E-3
309.627342E-3
309.682846E-3
309.844208E-3
310.006714E-3
309.970093E-3
309.902000E-3
309.572983E-3
308.880615E-3
308.348465E-3
307.848358E-3
307.490158E-3
307.408333E-3
307.095909E-3
307.431793E-3
307.606888E-3
307.840919E-3
308.077240E-3
308.153915E-3
308.140755E-3
307.913017E-3
307.662392E-3
307.359123E-3
307.079315E-3
306.679344E-3
306.471634E-3
306.107140E-3
305.782700E-3
305.326653E-3
304.992485E-3
304.574776E-3
304.094124E-3
303.976250E-3
303.718758E-3
303.705597E-3
303.602028E-3
303.590584E-3
303.599739E-3
303.588867E-3
303.541946E-3
303.527641E-3
303.450966E-3
303.426933E-3
303.333664E-3
303.367424E-3
303.381157E-3
303.339386E-3
303.282738E-3
303.223801E-3
303.132820E-3
303.168297E-3
303.016663E-3
303.010368E-3
302.815247E-3
302.771759E-3
302.686501E-3
302.697945E-3
302.586937E-3
302.340889E-3
302.236748E-3
302.115440E-3
301.853943E-3
301.674271E-3
301.365852E-3
301.116371E-3
300.995636E-3
300.681496E-3
300.319290E-3
300.060081E-3
300.044060E-3
300.026321E-3
300.089836E-3
300.341034E-3
300.944710E-3
301.952362E-3
303.945351E-3
305.976677E-3
308.236313E-3
310.398674E-3
312.294960E-3
313.664246E-3
314.496803E-3
314.749718E-3
314.581490E-3
313.900566E-3
313.068581E-3
312.072372E-3
311.131668E-3
310.283089E-3
309.609032E-3
309.155846E-3
308.805084E-3
308.723259E-3
308.635712E-3
308.842850E-3
308.901787E-3
308.952713E-3
308.937836E-3
308.496094E-3
307.943344E-3
307.416344E-3
307.032394E-3
306.659889E-3
306.512833E-3
306.638145E-3
306.795502E-3
307.196045E-3
307.522202E-3
307.657242E-3
307.960510E-3
307.960510E-3
307.774544E-3
307.609177E-3
307.245827E-3
306.842422E-3
306.530571E-3
306.170654E-3
305.645943E-3
305.294037E-3
305.001640E-3
304.597664E-3
304.172516E-3
303.896141E-3
303.620911E-3
303.454971E-3
303.329086E-3
303.346252E-3
303.188896E-3
302.983475E-3
302.862740E-3
302.824974E-3
302.728271E-3
302.759171E-3
302.659035E-3
302.613831E-3
302.815247E-3
302.594376E-3
302.664757E-3
302.521706E-3
302.491379E-3
302.420425E-3
302.423859E-3
302.478218E-3
302.466202E-3
302.336884E-3
302.332878E-3
302.213287E-3
302.066231E-3
301.894569E-3
301.761818E-3
301.534653E-3
301.152992E-3
300.946999E-3
300.777626E-3
300.557327E-3
300.214577E-3
299.910164E-3
299.864960E-3
299.809456E-3
299.765968E-3
299.971390E-3
300.573349E-3
301.895142E-3
303.582001E-3
305.636787E-3
307.907295E-3
310.037613E-3
311.995697E-3
313.429070E-3
314.467049E-3
314.656448E-3
314.464188E-3
313.890839E-3
313.021660E-3
312.137032E-3
311.211777E-3
310.437584E-3
309.883690E-3
309.369278E-3
309.104919E-3
308.979607E-3
308.921242E-3
309.045410E-3
309.091187E-3
309.183311E-3
309.089470E-3
308.814240E-3
308.303261E-3
307.802582E-3
307.322502E-3
307.003784E-3
306.705666E-3
306.646729E-3
306.654167E-3
306.881905E-3
307.104492E-3
307.416916E-3
307.672691E-3
307.612610E-3
307.537651E-3
307.489014E-3
307.190323E-3
306.959152E-3
306.544304E-3
306.133461E-3
305.851364E-3
305.394173E-3
304.979324E-3
304.563904E-3
304.136467E-3
303.902435E-3
303.546524E-3
303.432083E-3
303.205490E-3
303.115654E-3
303.004074E-3
302.852440E-3
302.826691E-3
302.654457E-3
302.650452E-3
302.570915E-3
302.605820E-3
302.629280E-3
302.429008E-3
302.414131E-3
302.439880E-3
302.318573E-3
302.350044E-3
302.201843E-3
302.117157E-3
302.243614E-3
302.022743E-3
301.987267E-3
301.997566E-3
301.886559E-3
301.908875E-3
301.881981E-3
301.725197E-3
301.564980E-3
301.269150E-3
301.122665E-3
300.965881E-3
300.816536E-3
300.502968E-3
300.264931E-3
300.067520E-3
299.846077E-3
299.582863E-3
299.401474E-3
299.438095E-3
299.415779E-3
299.572563E-3
300.061226E-3
301.063728E-3
302.669907E-3
304.609680E-3
306.875038E-3
309.112358E-3
311.288452E-3
313.083458E-3
314.187813E-3
314.685059E-3
314.750862E-3
314.321136E-3
313.754654E-3
312.799072E-3
311.757660E-3
310.921097E-3
310.197830E-3
309.685135E-3
309.270859E-3
309.099770E-3
309.131241E-3
308.984184E-3
309.196472E-3
309.509468E-3
309.449387E-3
309.487724E-3
309.091759E-3
308.498383E-3
307.939339E-3
307.407188E-3
307.209778E-3
306.868172E-3
306.824112E-3
306.946564E-3
307.149696E-3
307.501030E-3
307.689285E-3
307.805443E-3
307.840347E-3
307.509041E-3
307.454109E-3
