Notes :


2023-10-23 ¿ÀÈÄ 11:02:30
Volts
Ch : LED 2,
593.082619E-3
592.461205E-3
592.360497E-3
592.536736E-3
591.265869E-3
591.678429E-3
591.395760E-3
591.652679E-3
592.003441E-3
591.337395E-3
591.791725E-3
591.197777E-3
590.942574E-3
591.177177E-3
590.236473E-3
590.802956E-3
590.394974E-3
590.112305E-3
590.554047E-3
589.536667E-3
589.922333E-3
589.610481E-3
589.641380E-3
590.120316E-3
589.446831E-3
589.832497E-3
589.752960E-3
589.411354E-3
589.448547E-3
588.672066E-3
589.180756E-3
588.464928E-3
588.023186E-3
588.787079E-3
587.517357E-3
587.651825E-3
587.357140E-3
586.848450E-3
587.832069E-3
586.803246E-3
586.952591E-3
586.277390E-3
586.307144E-3
587.339973E-3
587.441826E-3
589.588737E-3
592.057800E-3
595.145416E-3
598.921967E-3
601.418495E-3
604.514694E-3
605.942917E-3
606.984901E-3
607.318497E-3
605.930328E-3
605.273437E-3
603.427505E-3
602.279663E-3
601.671982E-3
600.484085E-3
600.283813E-3
600.229454E-3
600.794792E-3
601.490021E-3
601.734924E-3
602.397537E-3
602.289963E-3
602.534294E-3
602.210999E-3
601.144409E-3
600.330734E-3
598.706245E-3
598.304558E-3
597.202492E-3
596.362495E-3
596.680641E-3
597.014236E-3
597.032547E-3
597.938347E-3
598.041344E-3
598.552895E-3
598.633575E-3
598.411560E-3
598.252487E-3
597.159004E-3
596.959877E-3
596.137619E-3
595.231819E-3
595.196915E-3
594.423294E-3
594.503975E-3
593.830490E-3
593.421936E-3
593.447113E-3
592.689514E-3
593.221664E-3
592.991066E-3
592.272949E-3
592.373657E-3
591.654968E-3
592.287827E-3
591.863251E-3
591.403198E-3
591.679573E-3
591.144562E-3
591.859245E-3
591.481590E-3
591.000938E-3
591.385460E-3
590.681648E-3
590.760612E-3
590.247917E-3
590.072250E-3
590.225029E-3
589.569283E-3
589.917183E-3
589.620209E-3
589.633369E-3
589.948082E-3
589.307785E-3
589.680290E-3
589.431953E-3
589.136124E-3
589.312363E-3
588.485527E-3
588.765907E-3
588.134193E-3
587.904167E-3
587.855530E-3
587.162590E-3
587.393188E-3
587.172890E-3
587.695885E-3
587.612343E-3
587.481880E-3
588.061523E-3
587.813187E-3
588.337326E-3
590.161514E-3
591.342545E-3
594.025612E-3
596.917534E-3
599.547958E-3
602.871895E-3
605.039978E-3
606.707382E-3
607.173729E-3
607.365990E-3
606.608391E-3
604.318428E-3
603.734207E-3
602.164650E-3
601.260567E-3
601.262283E-3
600.677490E-3
601.467133E-3
602.343750E-3
603.351402E-3
605.470276E-3
607.071877E-3
609.411621E-3
610.939980E-3
610.954285E-3
610.593224E-3
608.490944E-3
606.585503E-3
604.789352E-3
603.944778E-3
604.404259E-3
604.562187E-3
606.156349E-3
607.362556E-3
608.631134E-3
609.374428E-3
609.035110E-3
608.966446E-3
607.921028E-3
606.410980E-3
605.609322E-3
603.888702E-3
603.817177E-3
602.581787E-3
602.435303E-3
602.206421E-3
601.076889E-3
601.165581E-3
600.861740E-3
600.595093E-3
600.865746E-3
600.119591E-3
600.169945E-3
599.785995E-3
599.513626E-3
599.608040E-3
598.547173E-3
598.848724E-3
598.273087E-3
598.031616E-3
598.354912E-3
597.547531E-3
597.755241E-3
597.469139E-3
597.179604E-3
597.762680E-3
596.627426E-3
596.911240E-3
596.594238E-3
596.829414E-3
596.819115E-3
595.915604E-3
595.838928E-3
595.274162E-3
594.841003E-3
594.852448E-3
593.941498E-3
594.293404E-3
593.733788E-3
593.080330E-3
593.107796E-3
592.363358E-3
592.652893E-3
592.320442E-3
591.819763E-3
592.188835E-3
591.502190E-3
591.974831E-3
591.814041E-3
592.501831E-3
592.994499E-3
593.205643E-3
595.210648E-3
597.658539E-3
600.462341E-3
604.286957E-3
606.114578E-3
608.902359E-3
609.797287E-3
609.780693E-3
609.952354E-3
608.279228E-3
607.515907E-3
606.079102E-3
605.074883E-3
604.893494E-3
603.505898E-3
603.992844E-3
603.676414E-3
603.977394E-3
604.836845E-3
604.391670E-3
604.780769E-3
604.395103E-3
603.824043E-3
603.192902E-3
601.344109E-3
600.848007E-3
600.195122E-3
599.416351E-3
599.858665E-3
599.601173E-3
600.489807E-3
601.324081E-3
601.658249E-3
602.883911E-3
602.824402E-3
603.367996E-3
602.622986E-3
601.697159E-3
601.465988E-3
599.818039E-3
599.412918E-3
598.457909E-3
597.647667E-3
597.428513E-3
596.797371E-3
597.270584E-3
596.817398E-3
596.538734E-3
597.078323E-3
596.614838E-3
596.824265E-3
596.419716E-3
595.480156E-3
595.851517E-3
595.269585E-3
595.339394E-3
595.222092E-3
595.060158E-3
595.446968E-3
595.129395E-3
595.551109E-3
595.160866E-3
595.120239E-3
595.335388E-3
594.314575E-3
594.109726E-3
594.221306E-3
593.992996E-3
594.098854E-3
593.041420E-3
593.548393E-3
593.032837E-3
593.126678E-3
593.381310E-3
592.618561E-3
593.000793E-3
592.965889E-3
592.562485E-3
592.595673E-3
591.669846E-3
591.884995E-3
591.369438E-3
591.563988E-3
591.507912E-3
590.387535E-3
590.737152E-3
590.392685E-3
589.998436E-3
590.250778E-3
589.628220E-3
589.797592E-3
589.850807E-3
589.902306E-3
590.781212E-3
591.327095E-3
593.441391E-3
596.272659E-3
599.930191E-3
603.844070E-3
606.422424E-3
609.431648E-3
610.747147E-3
611.706734E-3
611.670685E-3
609.872246E-3
608.822823E-3
607.335663E-3
605.731773E-3
605.358696E-3
604.460335E-3
604.657173E-3
604.390526E-3
604.862595E-3
605.592155E-3
605.797005E-3
606.269646E-3
606.576920E-3
606.088257E-3
606.269646E-3
604.970741E-3
604.211426E-3
602.666473E-3
601.422501E-3
600.967598E-3
599.757957E-3
600.140762E-3
600.185966E-3
600.474930E-3
601.323509E-3
601.325226E-3
602.474213E-3
602.461624E-3
602.171516E-3
602.252769E-3
600.973320E-3
600.334167E-3
599.709892E-3
599.093056E-3
598.958015E-3
597.763824E-3
597.866821E-3
597.211075E-3
596.686935E-3
597.013664E-3
596.239471E-3
596.223450E-3
596.015167E-3
595.886993E-3
596.254349E-3
595.539093E-3
595.800591E-3
595.280457E-3
594.961739E-3
595.431519E-3
594.525719E-3
594.672775E-3
594.213867E-3
594.156647E-3
594.787216E-3
594.081688E-3
594.299698E-3
594.319725E-3
593.840218E-3
593.820763E-3
593.153000E-3
593.219376E-3
592.782211E-3
592.430305E-3
592.749596E-3
592.078400E-3
592.238617E-3
591.917038E-3
591.557693E-3
591.889572E-3
591.110229E-3
591.421509E-3
591.101074E-3
591.396332E-3
591.720200E-3
591.117096E-3
591.095924E-3
590.781784E-3
590.734291E-3
590.972900E-3
590.045357E-3
589.946938E-3
589.612770E-3
589.382744E-3
589.526367E-3
589.031410E-3
589.446831E-3
589.235115E-3
589.282036E-3
590.075684E-3
590.275955E-3
591.883278E-3
593.797302E-3
596.476936E-3
600.346184E-3
603.160286E-3
606.310272E-3
608.418274E-3
610.027885E-3
610.890770E-3
609.748077E-3
608.937263E-3
607.287025E-3
605.980682E-3
605.343819E-3
603.919029E-3
603.691864E-3
603.243256E-3
603.187752E-3
604.113579E-3
604.176521E-3
604.849434E-3
605.218506E-3
606.176949E-3
606.453896E-3
604.939842E-3
604.360199E-3
602.475929E-3
601.217079E-3
600.581360E-3
599.230957E-3
599.301910E-3
599.680710E-3
600.141907E-3
601.577568E-3
601.595306E-3
602.694511E-3
602.600670E-3
602.514839E-3
602.339745E-3
601.152992E-3
600.425720E-3
599.672127E-3
598.674774E-3
598.847580E-3
597.858810E-3
597.770119E-3
597.578430E-3
597.264290E-3
597.681999E-3
596.979904E-3
596.702957E-3
596.482086E-3
596.265793E-3
596.977615E-3
595.996857E-3
596.096992E-3
596.462059E-3
596.144485E-3
596.501541E-3
595.961952E-3
596.283531E-3
596.239471E-3
596.091270E-3
596.783638E-3
596.132469E-3
596.020317E-3
596.163368E-3
595.729637E-3
596.240616E-3
595.535660E-3
595.213509E-3
594.924545E-3
594.237900E-3
594.667625E-3
594.067383E-3
593.567848E-3
593.883705E-3
593.812180E-3
594.212151E-3
593.273735E-3
593.840790E-3
593.466568E-3
593.013954E-3
592.985344E-3
591.827774E-3
591.864967E-3
592.034912E-3
591.433525E-3
591.752243E-3
590.774345E-3
590.834999E-3
590.605545E-3
590.528297E-3
590.956879E-3
590.506554E-3
590.212440E-3
590.453339E-3
591.249275E-3
592.909813E-3
594.526291E-3
597.739792E-3
600.960732E-3
604.571342E-3
607.580566E-3
608.716393E-3
610.096550E-3
610.257339E-3
609.956360E-3
609.328079E-3
607.035828E-3
605.804443E-3
604.341316E-3
603.697014E-3
603.602600E-3
602.442741E-3
602.363205E-3
602.682495E-3
602.763176E-3
603.414917E-3
603.337097E-3
603.344536E-3
602.945709E-3
601.894569E-3
601.237106E-3
599.424362E-3
598.675919E-3
598.412132E-3
597.960663E-3
598.731995E-3
598.314857E-3
599.184608E-3
600.105286E-3
600.371361E-3
601.383018E-3
600.619125E-3
600.437737E-3
600.029755E-3
599.870682E-3
599.412346E-3
597.930336E-3
597.644234E-3
596.879196E-3
596.080971E-3
596.070099E-3
594.652176E-3
594.710541E-3
594.530869E-3
594.308281E-3
594.582367E-3
593.750954E-3
594.009590E-3
594.261360E-3
593.811607E-3
594.240761E-3
593.528366E-3
593.748665E-3
593.512917E-3
593.154716E-3
593.428802E-3
592.853737E-3
593.021393E-3
592.995071E-3
592.850304E-3
592.953300E-3
592.430305E-3
592.701530E-3
592.506981E-3
592.380524E-3
592.347908E-3
591.307640E-3
591.273880E-3
591.023254E-3
590.773201E-3
591.197777E-3
590.140343E-3
590.313148E-3
590.629578E-3
590.022469E-3
590.816116E-3
589.900017E-3
589.957809E-3
590.280533E-3
589.837074E-3
590.131187E-3
589.173317E-3
589.358711E-3
588.941574E-3
589.014816E-3
589.049721E-3
588.076973E-3
588.086700E-3
588.107872E-3
587.555695E-3
587.973976E-3
587.467003E-3
587.870407E-3
588.337326E-3
589.382172E-3
592.111015E-3
594.678497E-3
598.749733E-3
602.517128E-3
605.410767E-3
608.970451E-3
609.686279E-3
610.610390E-3
610.232735E-3
609.028816E-3
607.773972E-3
605.199623E-3
603.861809E-3
602.827835E-3
602.016449E-3
602.302551E-3
601.966095E-3
602.420998E-3
602.530861E-3
603.104210E-3
604.113579E-3
603.949356E-3
604.438591E-3
603.953934E-3
603.112793E-3
602.539444E-3
600.337029E-3
599.533081E-3
598.718262E-3
597.798729E-3
598.286819E-3
597.443962E-3
597.826195E-3
598.451042E-3
599.332237E-3
600.161934E-3
599.942780E-3
599.884415E-3
599.505043E-3
598.904800E-3
598.841858E-3
597.370720E-3
596.872330E-3
596.186829E-3
595.613480E-3
595.865822E-3
594.636154E-3
594.446754E-3
594.487381E-3
594.085693E-3
594.553757E-3
593.631935E-3
593.455696E-3
593.327522E-3
593.066597E-3
593.771553E-3
593.258858E-3
593.497467E-3
593.675995E-3
593.223953E-3
593.751526E-3
592.799950E-3
593.024254E-3
592.646027E-3
592.355919E-3
593.019676E-3
592.040634E-3
592.222595E-3
591.830063E-3
591.555977E-3
592.049217E-3
591.193771E-3
591.194344E-3
590.975761E-3
590.528297E-3
591.288757E-3
590.304565E-3
589.797020E-3
589.904594E-3
589.371300E-3
590.223312E-3
589.438248E-3
589.676857E-3
589.628220E-3
589.289474E-3
589.462280E-3
588.743019E-3
588.537598E-3
588.372231E-3
587.798882E-3
588.246346E-3
587.340546E-3
587.405205E-3
587.411499E-3
587.024689E-3
587.667274E-3
586.480522E-3
586.767769E-3
586.834717E-3
586.723137E-3
587.547684E-3
587.637520E-3
589.642525E-3
592.216301E-3
595.642662E-3
599.306488E-3
602.272224E-3
605.403328E-3
607.666969E-3
608.948135E-3
609.516907E-3
607.625198E-3
606.238174E-3
604.694366E-3
602.741432E-3
601.803017E-3
599.909019E-3
599.812889E-3
599.436951E-3
599.308777E-3
600.283241E-3
599.873543E-3
600.481224E-3
600.773621E-3
600.978470E-3
601.666832E-3
600.319862E-3
599.427795E-3
598.238754E-3
597.977257E-3
597.259712E-3
596.276093E-3
596.762466E-3
597.369003E-3
597.734642E-3
599.086761E-3
598.810387E-3
599.501610E-3
599.477005E-3
598.708534E-3
599.121666E-3
597.659683E-3
597.631645E-3
596.716118E-3
595.877838E-3
596.137619E-3
594.980049E-3
594.856453E-3
594.642448E-3
594.065094E-3
594.494820E-3
593.524933E-3
593.225098E-3
593.352699E-3
593.167305E-3
593.519783E-3
592.825699E-3
592.750740E-3
592.928123E-3
592.767334E-3
593.173599E-3
592.223167E-3
592.211723E-3
591.899872E-3
591.577148E-3
591.969681E-3
590.857315E-3
590.891075E-3
591.095924E-3
590.956879E-3
591.494179E-3
590.727997E-3
590.684509E-3
590.258789E-3
589.320374E-3
590.000725E-3
589.145851E-3
588.991928E-3
588.925552E-3
588.858604E-3
589.256859E-3
588.739014E-3
589.021111E-3
589.090919E-3
588.259506E-3
588.499832E-3
587.666130E-3
587.757111E-3
587.693596E-3
586.993217E-3
587.357712E-3
586.323738E-3
586.600113E-3
586.384964E-3
585.993576E-3
586.625290E-3
585.988426E-3
586.067390E-3
586.289406E-3
585.912323E-3
587.461281E-3
588.496399E-3
591.471863E-3
595.006371E-3
598.795509E-3
602.536583E-3
604.515839E-3
606.739426E-3
607.268715E-3
607.057571E-3
606.921959E-3
604.533577E-3
602.715111E-3
601.330948E-3
599.339676E-3
598.927116E-3
597.526360E-3
597.354126E-3
597.581863E-3
597.522926E-3
598.392105E-3
598.142624E-3
598.518562E-3
598.648453E-3
598.099709E-3
598.003006E-3
595.987129E-3
594.996643E-3
594.360352E-3
593.652534E-3
594.114876E-3
593.191910E-3
594.091988E-3
594.807816E-3
595.252419E-3
596.808815E-3
596.303558E-3
596.940422E-3
597.133255E-3
596.610260E-3
596.452904E-3
594.556618E-3
593.975830E-3
593.099213E-3
592.320442E-3
592.522430E-3
591.190338E-3
591.450691E-3
591.002655E-3
590.675926E-3
590.976906E-3
589.830208E-3
589.772987E-3
589.672279E-3
589.203644E-3
590.064240E-3
588.962173E-3
589.102936E-3
589.124107E-3
588.576508E-3
589.221954E-3
588.546181E-3
588.574791E-3
588.653183E-3
588.248634E-3
589.149284E-3
588.212585E-3
588.427734E-3
588.396263E-3
588.092995E-3
588.668060E-3
588.076401E-3
587.953377E-3
588.034630E-3
587.928772E-3
588.016319E-3
586.981773E-3
586.957169E-3
586.586952E-3
586.226463E-3
586.830711E-3
585.819054E-3
585.689163E-3
585.777855E-3
585.382462E-3
586.100006E-3
585.416222E-3
585.536385E-3
585.478592E-3
584.587097E-3
585.310364E-3
584.103012E-3
584.082413E-3
583.795166E-3
583.188629E-3
583.656120E-3
582.954597E-3
583.312225E-3
583.465004E-3
583.411789E-3
585.144997E-3
586.541748E-3
589.294052E-3
593.248558E-3
596.875763E-3
601.105499E-3
603.446960E-3
605.522346E-3
606.778336E-3
606.757736E-3
606.487083E-3
604.281807E-3
602.532005E-3
600.957298E-3
598.933411E-3
598.479080E-3
596.895218E-3
596.863747E-3
597.152138E-3
597.204208E-3
597.757530E-3
597.783852E-3
598.365211E-3
598.961449E-3
598.477364E-3
598.723984E-3
597.369576E-3
596.963882E-3
595.989418E-3
594.985199E-3
594.696236E-3
593.302345E-3
593.314362E-3
593.678284E-3
593.583870E-3
594.652748E-3
595.087051E-3
595.865250E-3
596.359062E-3
596.349335E-3
596.067238E-3
594.717979E-3
594.351196E-3
593.364716E-3
592.437744E-3
592.543602E-3
591.415787E-3
590.979767E-3
591.047287E-3
590.341187E-3
590.770912E-3
589.947510E-3
589.418221E-3
589.393044E-3
588.993073E-3
589.566422E-3
588.594246E-3
588.747025E-3
588.627434E-3
588.267517E-3
588.821411E-3
588.317871E-3
588.086700E-3
588.681221E-3
588.784790E-3
588.650894E-3
587.815475E-3
587.809753E-3
587.965393E-3
587.308502E-3
587.864113E-3
587.103653E-3
587.122536E-3
587.384605E-3
586.624718E-3
587.110519E-3
586.446190E-3
586.113167E-3
586.504555E-3
585.689735E-3
586.139488E-3
585.143852E-3
585.269737E-3
585.502625E-3
584.944725E-3
585.776138E-3
584.860611E-3
585.281754E-3
585.323524E-3
585.077477E-3
585.218811E-3
584.331894E-3
584.119606E-3
583.830643E-3
583.478165E-3
583.831787E-3
582.644463E-3
582.678223E-3
583.170319E-3
582.774925E-3
583.530807E-3
