Notes :


2023-10-23 ¿ÀÈÄ 9:22:47
Volts
Ch : LED 2,
316.060066E-3
314.259911E-3
314.821815E-3
315.200615E-3
313.849068E-3
315.960503E-3
314.552307E-3
315.091896E-3
315.145111E-3
313.727760E-3
315.882683E-3
314.242744E-3
314.563179E-3
314.820671E-3
313.414192E-3
315.282440E-3
313.616180E-3
314.122581E-3
314.234734E-3
312.179375E-3
314.713669E-3
312.960434E-3
313.438797E-3
313.755798E-3
311.861229E-3
315.387154E-3
315.199471E-3
317.410469E-3
320.408821E-3
321.546364E-3
326.414680E-3
326.842690E-3
329.241371E-3
330.446434E-3
329.412460E-3
331.332207E-3
328.948975E-3
328.446007E-3
327.334785E-3
324.341583E-3
325.622177E-3
323.098183E-3
322.892189E-3
323.304176E-3
321.574974E-3
323.998833E-3
322.364044E-3
322.811508E-3
323.388863E-3
321.817017E-3
323.902702E-3
321.796989E-3
321.748352E-3
321.381569E-3
319.783401E-3
321.725464E-3
320.130157E-3
320.673180E-3
321.156120E-3
319.716454E-3
322.603798E-3
321.208763E-3
322.045326E-3
322.415543E-3
320.177650E-3
322.485352E-3
320.853996E-3
320.806503E-3
321.033669E-3
319.129372E-3
321.032524E-3
319.032097E-3
318.721390E-3
319.252968E-3
317.442513E-3
319.459534E-3
317.495728E-3
317.824745E-3
318.254471E-3
316.233444E-3
318.941116E-3
317.057991E-3
317.269135E-3
317.746353E-3
316.042328E-3
317.825317E-3
316.494942E-3
316.911507E-3
317.552948E-3
316.030884E-3
318.020439E-3
316.375923E-3
316.656876E-3
317.380142E-3
316.022873E-3
318.095970E-3
316.279793E-3
316.782761E-3
317.588997E-3
315.962219E-3
317.504311E-3
315.953636E-3
316.382790E-3
317.061996E-3
315.364838E-3
317.364693E-3
315.701294E-3
315.827751E-3
316.235161E-3
314.488792E-3
316.348457E-3
314.577484E-3
314.172363E-3
315.209770E-3
313.522339E-3
315.469551E-3
313.579559E-3
314.115715E-3
315.083885E-3
314.434433E-3
317.864227E-3
318.513107E-3
321.045113E-3
324.532127E-3
325.705719E-3
330.216408E-3
329.975510E-3
330.852127E-3
332.177925E-3
329.952621E-3
331.046104E-3
328.115845E-3
326.650429E-3
326.394653E-3
323.894119E-3
324.849701E-3
322.786903E-3
322.439575E-3
323.410606E-3
322.051048E-3
324.322128E-3
323.137093E-3
323.570824E-3
324.362183E-3
322.389221E-3
323.816872E-3
321.617317E-3
321.185875E-3
321.799850E-3
319.701004E-3
321.590996E-3
319.880104E-3
320.231438E-3
321.254539E-3
320.224571E-3
322.447014E-3
321.128654E-3
321.189308E-3
322.220993E-3
320.294952E-3
321.936035E-3
319.723320E-3
319.589996E-3
320.319557E-3
318.487930E-3
320.001984E-3
317.556953E-3
317.532349E-3
318.081665E-3
316.561890E-3
318.489075E-3
316.397095E-3
316.373634E-3
317.345238E-3
315.631485E-3
317.720032E-3
315.485573E-3
315.582848E-3
316.596222E-3
315.208626E-3
317.240524E-3
315.086174E-3
315.216637E-3
316.399384E-3
314.721107E-3
316.847420E-3
314.800072E-3
314.856720E-3
315.648079E-3
314.306259E-3
316.498375E-3
314.280510E-3
314.632416E-3
315.720177E-3
313.640785E-3
315.961075E-3
314.060783E-3
314.487648E-3
315.169144E-3
313.257408E-3
315.320206E-3
313.279152E-3
313.346100E-3
314.025879E-3
312.623978E-3
314.693642E-3
312.325859E-3
312.217140E-3
313.492012E-3
311.826897E-3
314.289665E-3
311.976814E-3
312.348747E-3
313.861656E-3
313.343811E-3
318.050766E-3
318.609810E-3
321.319199E-3
324.640846E-3
325.330925E-3
329.113770E-3
327.670670E-3
327.317047E-3
327.789116E-3
325.142097E-3
326.241302E-3
323.027802E-3
321.907425E-3
321.494865E-3
319.616890E-3
321.262550E-3
319.175148E-3
319.369125E-3
320.420837E-3
318.699074E-3
321.524048E-3
319.573975E-3
319.434357E-3
320.000267E-3
318.250465E-3
320.051765E-3
317.495155E-3
317.407608E-3
318.142891E-3
317.179298E-3
319.729614E-3
318.322563E-3
318.743134E-3
319.982529E-3
318.643570E-3
320.934677E-3
318.734550E-3
318.704224E-3
319.534492E-3
318.039322E-3
319.799995E-3
317.564964E-3
317.013931E-3
317.770386E-3
316.161346E-3
318.099976E-3
316.010857E-3
315.891266E-3
316.713524E-3
315.335655E-3
317.441940E-3
315.167427E-3
315.359116E-3
316.255760E-3
314.749718E-3
316.733551E-3
314.848709E-3
315.024948E-3
315.716171E-3
314.650726E-3
316.461754E-3
314.567184E-3
314.584351E-3
315.658379E-3
314.580917E-3
316.433716E-3
314.873886E-3
314.937401E-3
315.745354E-3
313.998413E-3
316.526413E-3
314.832687E-3
315.364265E-3
315.891266E-3
314.425278E-3
316.108704E-3
314.306831E-3
314.607239E-3
315.333939E-3
313.933754E-3
315.598297E-3
313.688278E-3
313.855934E-3
314.443016E-3
313.332367E-3
315.225220E-3
313.754082E-3
314.516830E-3
316.217422E-3
316.657448E-3
320.741844E-3
321.770668E-3
324.701500E-3
327.743340E-3
328.219414E-3
330.974007E-3
329.572678E-3
329.571533E-3
329.307747E-3
326.977158E-3
327.712440E-3
324.739265E-3
323.764801E-3
323.658943E-3
322.068214E-3
323.403740E-3
321.603584E-3
321.691132E-3
322.751427E-3
321.603012E-3
323.597717E-3
322.069931E-3
321.644211E-3
321.747208E-3
320.328140E-3
321.621895E-3
319.401169E-3
319.468689E-3
320.222855E-3
319.459534E-3
321.705437E-3
320.366478E-3
320.830536E-3
321.791840E-3
321.262550E-3
323.003769E-3
321.006203E-3
320.628548E-3
321.138954E-3
319.952202E-3
321.524620E-3
319.243813E-3
319.057274E-3
319.249535E-3
317.963791E-3
319.409752E-3
317.556381E-3
317.253685E-3
317.701721E-3
316.553879E-3
318.242455E-3
316.537857E-3
316.565323E-3
317.198753E-3
316.232872E-3
318.088531E-3
316.434288E-3
316.488647E-3
317.210197E-3
316.061783E-3
317.579842E-3
316.147614E-3
316.271782E-3
316.866875E-3
315.819740E-3
317.674255E-3
316.130447E-3
316.440582E-3
317.072296E-3
315.525055E-3
317.548943E-3
316.158485E-3
316.124725E-3
316.732407E-3
315.789986E-3
317.147827E-3
315.817451E-3
315.669823E-3
316.226578E-3
314.525986E-3
316.666603E-3
315.283012E-3
314.896202E-3
315.387154E-3
314.262772E-3
315.507317E-3
314.285088E-3
314.243317E-3
315.297890E-3
315.229225E-3
318.113136E-3
318.693924E-3
321.068573E-3
324.469185E-3
326.292229E-3
330.526543E-3
330.508804E-3
331.915855E-3
333.038521E-3
331.167412E-3
332.099533E-3
329.529190E-3
328.171349E-3
327.573967E-3
325.468254E-3
326.472473E-3
324.220276E-3
324.081802E-3
324.803352E-3
323.807716E-3
325.590706E-3
324.422264E-3
324.584770E-3
325.199318E-3
324.242020E-3
325.449944E-3
323.441505E-3
322.590065E-3
322.400093E-3
320.537567E-3
322.280502E-3
320.829391E-3
320.724106E-3
321.640778E-3
320.751572E-3
322.739983E-3
321.794701E-3
321.884537E-3
322.715950E-3
321.113777E-3
322.662163E-3
320.635986E-3
320.345306E-3
320.982742E-3
319.176292E-3
320.459175E-3
318.544006E-3
318.353462E-3
318.888474E-3
317.434502E-3
319.000626E-3
317.536354E-3
317.117500E-3
317.682838E-3
316.385078E-3
318.000984E-3
316.449738E-3
316.154480E-3
316.980743E-3
315.622902E-3
317.221069E-3
315.797997E-3
315.824318E-3
316.734695E-3
314.618683E-3
317.012787E-3
315.919304E-3
315.597153E-3
316.329575E-3
315.106773E-3
316.732979E-3
315.535355E-3
315.340805E-3
315.879822E-3
314.632416E-3
316.580772E-3
315.226936E-3
314.848137E-3
315.545654E-3
313.390160E-3
315.579987E-3
314.135170E-3
313.768387E-3
314.576340E-3
313.187027E-3
314.573479E-3
312.956429E-3
312.641144E-3
313.554382E-3
311.844635E-3
313.768387E-3
312.905502E-3
312.841415E-3
315.410042E-3
315.830612E-3
319.517899E-3
321.085739E-3
323.414612E-3
326.685333E-3
327.179718E-3
329.835320E-3
328.660011E-3
327.553940E-3
327.466393E-3
324.930954E-3
325.348091E-3
323.150826E-3
321.578407E-3
321.709442E-3
319.131660E-3
321.143532E-3
319.964790E-3
319.621468E-3
320.696068E-3
319.781685E-3
321.642494E-3
320.405388E-3
320.029449E-3
320.455170E-3
318.600082E-3
319.860077E-3
318.177795E-3
317.335510E-3
318.133163E-3
317.494011E-3
319.624329E-3
318.949127E-3
318.832397E-3
320.135307E-3
319.137383E-3
320.574188E-3
319.348526E-3
318.521118E-3
319.343376E-3
317.762947E-3
319.065857E-3
317.771530E-3
316.850853E-3
317.675972E-3
315.977669E-3
317.451668E-3
316.496086E-3
315.629196E-3
316.833115E-3
315.408325E-3
316.792488E-3
315.980530E-3
315.002632E-3
316.077805E-3
314.543152E-3
315.911293E-3
315.062714E-3
314.793777E-3
315.983391E-3
314.277077E-3
315.911865E-3
314.973450E-3
314.476776E-3
315.713882E-3
314.120865E-3
316.053200E-3
315.142822E-3
315.042686E-3
315.801430E-3
314.362907E-3
316.218567E-3
315.149117E-3
314.622688E-3
315.641785E-3
313.441086E-3
315.652657E-3
314.796066E-3
314.085388E-3
315.074730E-3
313.177299E-3
314.796638E-3
313.799858E-3
313.060570E-3
314.212418E-3
312.285233E-3
314.344597E-3
314.147758E-3
314.530563E-3
316.829109E-3
317.048264E-3
321.379280E-3
323.197746E-3
325.157547E-3
328.131294E-3
327.789688E-3
330.076218E-3
329.592133E-3
328.515244E-3
328.153038E-3
325.294876E-3
326.050186E-3
324.498367E-3
322.751427E-3
322.851562E-3
320.948982E-3
322.394371E-3
322.041321E-3
321.224785E-3
322.678757E-3
320.909500E-3
322.694778E-3
322.299957E-3
320.841408E-3
321.169281E-3
319.046402E-3
320.278358E-3
319.558525E-3
318.747711E-3
319.731903E-3
318.708801E-3
321.021080E-3
320.677185E-3
320.369339E-3
321.729469E-3
320.111847E-3
321.827888E-3
321.078873E-3
320.025444E-3
320.766449E-3
318.697929E-3
320.118713E-3
319.531059E-3
318.375206E-3
318.996048E-3
317.096901E-3
318.453026E-3
317.869377E-3
316.888046E-3
317.752647E-3
316.071510E-3
317.653656E-3
316.836548E-3
316.080666E-3
317.214203E-3
315.546227E-3
317.329788E-3
317.036819E-3
316.282654E-3
317.194748E-3
315.674973E-3
317.301750E-3
316.956139E-3
315.985680E-3
316.905785E-3
315.491867E-3
316.912651E-3
316.823959E-3
315.993690E-3
316.892624E-3
315.389442E-3
317.155838E-3
316.843987E-3
315.684700E-3
316.535568E-3
314.877892E-3
316.663170E-3
316.429710E-3
315.265274E-3
316.205978E-3
314.422989E-3
316.041756E-3
315.735626E-3
314.338303E-3
315.276718E-3
313.430786E-3
314.920807E-3
314.760017E-3
313.656807E-3
315.571976E-3
314.793777E-3
318.215561E-3
319.914436E-3
321.608162E-3
325.346947E-3
326.584053E-3
330.523109E-3
331.229782E-3
330.762863E-3
331.895828E-3
330.025291E-3
330.437851E-3
328.955841E-3
326.472473E-3
326.507950E-3
324.025726E-3
325.396156E-3
324.984169E-3
323.447227E-3
324.542427E-3
323.189163E-3
325.396729E-3
325.333786E-3
324.584770E-3
325.493431E-3
323.559380E-3
324.633980E-3
323.636055E-3
321.592712E-3
321.894836E-3
320.237732E-3
321.931458E-3
321.689415E-3
320.646286E-3
321.947479E-3
320.742416E-3
322.778320E-3
322.474480E-3
321.566963E-3
322.315979E-3
321.050835E-3
322.461319E-3
321.625900E-3
319.951630E-3
320.553589E-3
318.734550E-3
319.979095E-3
319.111061E-3
317.998123E-3
318.777466E-3
317.159843E-3
318.545151E-3
317.945480E-3
316.714096E-3
317.682266E-3
316.213989E-3
317.865944E-3
317.576981E-3
316.238594E-3
317.372131E-3
315.898132E-3
317.274857E-3
316.858292E-3
315.625763E-3
316.643143E-3
315.489578E-3
317.059135E-3
316.756439E-3
315.602303E-3
316.647148E-3
315.396309E-3
316.838264E-3
316.749001E-3
315.242386E-3
316.310692E-3
314.882469E-3
316.365623E-3
316.274071E-3
315.150261E-3
315.941048E-3
314.353180E-3
316.012573E-3
315.291595E-3
314.260483E-3
314.745712E-3
313.480568E-3
314.714813E-3
314.223289E-3
313.180733E-3
314.195251E-3
313.010216E-3
314.164352E-3
314.487648E-3
314.155197E-3
316.465187E-3
317.409897E-3
321.248245E-3
323.822594E-3
325.313187E-3
328.087807E-3
328.178215E-3
330.188942E-3
330.082512E-3
328.260612E-3
328.125572E-3
325.627327E-3
325.997543E-3
324.894905E-3
322.883034E-3
323.135948E-3
321.388435E-3
322.256470E-3
322.551727E-3
321.683121E-3
322.957993E-3
322.021294E-3
323.221779E-3
323.133659E-3
321.900558E-3
322.015572E-3
319.934464E-3
320.610809E-3
320.401382E-3
319.089890E-3
320.091820E-3
319.178581E-3
320.773315E-3
321.355820E-3
320.559883E-3
321.696854E-3
320.508385E-3
321.776962E-3
321.451378E-3
319.750214E-3
320.747566E-3
319.275284E-3
320.256615E-3
319.707870E-3
318.443871E-3
318.949699E-3
317.468262E-3
318.791199E-3
318.363762E-3
317.337799E-3
318.334579E-3
316.934395E-3
318.141174E-3
317.995262E-3
316.762733E-3
317.938614E-3
316.303825E-3
317.923164E-3
317.532349E-3
316.957855E-3
317.921448E-3
316.759300E-3
317.693138E-3
317.574692E-3
316.450882E-3
317.867661E-3
316.570473E-3
317.817307E-3
317.674255E-3
316.623688E-3
317.920876E-3
316.547012E-3
317.882538E-3
317.493439E-3
316.382790E-3
317.757225E-3
316.009140E-3
317.126656E-3
316.647148E-3
315.424347E-3
316.448021E-3
315.085602E-3
316.138458E-3
315.899849E-3
314.818382E-3
315.542793E-3
314.423561E-3
315.950203E-3
316.724968E-3
315.926743E-3
318.435287E-3
318.688774E-3
322.296524E-3
324.767303E-3
325.773811E-3
329.659081E-3
330.000114E-3
332.194519E-3
332.268906E-3
330.784607E-3
331.095886E-3
328.470039E-3
328.655434E-3
327.523041E-3
325.358391E-3
325.789261E-3
324.137878E-3
325.344658E-3
325.154686E-3
324.003983E-3
325.397873E-3
324.244881E-3
325.562096E-3
325.317192E-3
323.735619E-3
323.593712E-3
321.613884E-3
322.312546E-3
322.366905E-3
321.119499E-3
322.413826E-3
321.077156E-3
322.764587E-3
323.575401E-3
322.485924E-3
324.007416E-3
322.895050E-3
323.796272E-3
323.985100E-3
322.333145E-3
323.050690E-3
321.394730E-3
322.324562E-3
321.998978E-3
320.617676E-3
321.339798E-3
319.639206E-3
320.532990E-3
320.364189E-3
319.309044E-3
320.093536E-3
318.581772E-3
319.770813E-3
319.856644E-3
318.521118E-3
319.972801E-3
318.323135E-3
319.459534E-3
319.860077E-3
318.477631E-3
319.491005E-3
318.092537E-3
319.124222E-3
319.204330E-3
318.122864E-3
319.388008E-3
318.174362E-3
318.924522E-3
319.424057E-3
318.160057E-3
319.356537E-3
318.070793E-3
318.941689E-3
319.042969E-3
317.683983E-3
319.087029E-3
317.879105E-3
318.621826E-3
319.089890E-3
317.576981E-3
318.251038E-3
317.515182E-3
318.148041E-3
318.517113E-3
316.946983E-3
317.847633E-3
316.669464E-3
317.223930E-3
317.221069E-3
315.884972E-3
317.162704E-3
316.223717E-3
317.331505E-3
318.296814E-3
318.117714E-3
321.469688E-3
322.617531E-3
326.206398E-3
329.607582E-3
330.622101E-3
333.926010E-3
334.137726E-3
335.533905E-3
335.626030E-3
333.419037E-3
333.800697E-3
331.234932E-3
330.857849E-3
329.759216E-3
327.766228E-3
328.926086E-3
327.569962E-3
328.255463E-3
328.290367E-3
327.206039E-3
329.366684E-3
328.215981E-3
329.201317E-3
329.399872E-3
327.382851E-3
328.751564E-3
326.025581E-3
325.930595E-3
325.758934E-3
323.701859E-3
325.575829E-3
323.892975E-3
324.896622E-3
325.520325E-3
324.334717E-3
326.779175E-3
325.048828E-3
325.748634E-3
325.529480E-3
324.026871E-3
325.849915E-3
323.620033E-3
323.684120E-3
323.668098E-3
321.122932E-3
323.373413E-3
321.486855E-3
321.755791E-3
321.866798E-3
320.118141E-3
321.913719E-3
320.152473E-3
320.391083E-3
320.903778E-3
319.191170E-3
321.093750E-3
319.193459E-3
319.846916E-3
320.358467E-3
317.945480E-3
320.294380E-3
318.688774E-3
319.042969E-3
319.606590E-3
318.170357E-3
320.470047E-3
318.685341E-3
318.891907E-3
319.417191E-3
317.928886E-3
319.720459E-3
317.794991E-3
317.935753E-3
318.566322E-3
317.131233E-3
318.945122E-3
