Notes :


2023-11-13 ¿ÀÀü 12:13:45
Volts
Ch : LED 2,
1.011696E+0
1.012845E+0
1.013239E+0
1.013354E+0
1.013008E+0
1.012392E+0
1.011943E+0
1.011128E+0
1.010644E+0
1.010159E+0
1.009630E+0
1.009476E+0
1.009585E+0
1.009654E+0
1.009736E+0
1.009796E+0
1.009906E+0
1.009853E+0
1.009709E+0
1.009289E+0
1.008584E+0
1.007648E+0
1.006688E+0
1.006051E+0
1.005377E+0
1.005001E+0
1.004944E+0
1.004972E+0
1.005091E+0
1.005158E+0
1.005002E+0
1.005293E+0
1.005148E+0
1.005109E+0
1.004814E+0
1.004527E+0
1.004411E+0
1.003995E+0
1.003728E+0
1.003332E+0
1.003269E+0
1.003119E+0
1.002736E+0
1.002509E+0
1.002234E+0
1.001967E+0
1.001673E+0
1.001440E+0
1.001415E+0
1.001063E+0
1.000973E+0
1.000816E+0
1.000558E+0
1.000452E+0
1.000348E+0
1.000122E+0
999.791336E-3
999.309540E-3
999.253464E-3
999.132156E-3
999.081802E-3
999.123573E-3
998.934174E-3
999.139595E-3
999.187660E-3
998.922157E-3
998.813438E-3
998.684120E-3
998.564529E-3
998.419189E-3
998.245239E-3
998.244095E-3
997.994614E-3
997.764587E-3
997.770309E-3
997.648430E-3
997.444153E-3
996.881676E-3
996.558952E-3
996.323204E-3
995.741844E-3
995.360184E-3
995.102692E-3
995.000839E-3
994.983673E-3
995.249748E-3
996.348953E-3
998.009491E-3
1.000230E+0
1.002715E+0
1.005022E+0
1.007081E+0
1.008618E+0
1.009720E+0
1.010371E+0
1.010342E+0
1.010153E+0
1.009526E+0
1.008967E+0
1.008021E+0
1.007376E+0
1.006785E+0
1.005973E+0
1.005563E+0
1.005243E+0
1.004950E+0
1.004738E+0
1.004576E+0
1.004638E+0
1.004844E+0
1.004554E+0
1.004451E+0
1.003801E+0
1.003278E+0
1.002270E+0
1.001293E+0
1.000615E+0
999.942398E-3
999.855423E-3
999.708366E-3
999.861717E-3
1.000139E+0
1.000455E+0
1.001028E+0
1.001304E+0
1.001460E+0
1.001581E+0
1.001498E+0
1.001458E+0
1.001107E+0
1.000786E+0
1.000729E+0
1.000548E+0
1.000543E+0
1.000488E+0
1.000309E+0
1.000443E+0
1.000170E+0
1.000083E+0
999.850845E-3
999.455452E-3
999.203110E-3
998.742485E-3
998.221207E-3
997.741699E-3
997.443581E-3
997.155190E-3
996.808434E-3
996.553802E-3
996.270561E-3
995.882607E-3
995.471191E-3
994.893837E-3
994.685555E-3
994.450378E-3
994.164848E-3
994.108772E-3
993.891335E-3
993.890762E-3
993.883324E-3
993.890762E-3
994.125366E-3
994.071007E-3
993.832970E-3
993.569183E-3
993.319130E-3
993.220139E-3
992.922592E-3
992.915154E-3
992.765236E-3
992.490578E-3
992.480278E-3
992.223358E-3
992.001343E-3
991.890335E-3
991.490364E-3
991.451454E-3
991.166496E-3
991.227150E-3
991.730118E-3
992.873955E-3
994.942474E-3
997.341728E-3
1.000158E+0
1.003056E+0
1.005526E+0
1.007584E+0
1.008931E+0
1.009532E+0
1.009578E+0
1.009316E+0
1.008735E+0
1.008010E+0
1.007290E+0
1.006827E+0
1.006257E+0
1.005960E+0
1.005590E+0
1.005394E+0
1.005424E+0
1.005345E+0
1.005433E+0
1.005340E+0
1.005392E+0
1.005608E+0
1.005356E+0
1.005259E+0
1.004907E+0
1.004336E+0
1.003761E+0
1.003018E+0
1.002565E+0
1.002079E+0
1.001883E+0
1.001794E+0
1.001851E+0
1.002026E+0
1.002163E+0
1.002496E+0
1.002540E+0
1.002616E+0
1.002610E+0
1.002422E+0
1.002083E+0
1.001744E+0
1.001324E+0
1.000945E+0
1.000455E+0
1.000258E+0
999.991035E-3
1.000005E+0
1.000143E+0
1.000017E+0
1.000011E+0
999.924088E-3
999.584770E-3
999.289513E-3
998.868942E-3
998.448372E-3
997.922516E-3
997.493935E-3
997.219849E-3
996.882820E-3
996.771812E-3
996.552086E-3
996.244812E-3
996.296883E-3
996.002769E-3
995.762444E-3
995.579338E-3
995.161629E-3
995.091248E-3
994.908142E-3
994.783974E-3
994.949341E-3
994.791985E-3
995.143890E-3
995.123291E-3
995.170784E-3
995.142174E-3
994.939041E-3
994.889832E-3
994.513893E-3
994.115639E-3
994.074440E-3
993.829536E-3
993.618965E-3
993.354607E-3
993.130875E-3
993.107414E-3
992.839050E-3
992.906570E-3
992.777824E-3
992.843056E-3
993.637848E-3
995.085526E-3
997.242737E-3
999.712944E-3
1.002584E+0
1.005095E+0
1.007070E+0
1.008467E+0
1.009475E+0
1.009730E+0
1.009543E+0
1.008941E+0
1.008334E+0
1.007575E+0
1.006944E+0
1.006419E+0
1.005837E+0
1.005787E+0
1.005464E+0
1.005540E+0
1.005502E+0
1.005445E+0
1.005509E+0
1.005268E+0
1.005195E+0
1.004965E+0
1.004760E+0
1.004288E+0
1.003456E+0
1.002720E+0
1.002077E+0
1.001613E+0
1.001261E+0
1.001008E+0
1.001135E+0
1.001320E+0
1.001365E+0
1.001642E+0
1.001736E+0
1.001861E+0
1.001846E+0
1.001811E+0
1.001633E+0
1.001344E+0
1.001070E+0
1.000857E+0
1.000459E+0
1.000326E+0
999.838829E-3
999.310684E-3
999.105263E-3
998.696136E-3
998.532486E-3
998.277855E-3
998.155975E-3
998.024940E-3
997.776604E-3
997.721672E-3
997.465897E-3
997.083092E-3
996.798706E-3
996.361542E-3
996.151543E-3
995.923805E-3
995.672607E-3
995.660591E-3
995.522690E-3
995.589638E-3
995.388222E-3
995.287514E-3
995.267487E-3
995.059204E-3
994.868660E-3
994.654083E-3
994.519615E-3
994.413185E-3
994.182587E-3
994.104195E-3
994.294167E-3
994.384575E-3
994.390297E-3
994.173431E-3
994.052124E-3
993.936539E-3
993.437004E-3
993.082809E-3
992.670822E-3
992.405891E-3
992.232513E-3
992.077446E-3
992.214203E-3
992.447662E-3
993.128586E-3
994.493294E-3
996.225357E-3
998.493004E-3
1.001060E+0
1.003428E+0
1.005511E+0
1.007059E+0
1.008342E+0
1.008787E+0
1.009153E+0
1.008983E+0
1.008502E+0
1.008018E+0
1.007137E+0
1.006436E+0
1.005830E+0
1.005294E+0
1.004906E+0
1.004467E+0
1.004273E+0
1.004287E+0
1.004313E+0
1.004592E+0
1.004699E+0
1.004584E+0
1.004275E+0
1.003831E+0
1.003197E+0
1.002119E+0
1.001185E+0
1.000475E+0
999.992752E-3
999.898338E-3
1.000001E+0
1.000362E+0
1.000758E+0
1.001004E+0
1.001506E+0
1.001564E+0
1.001608E+0
1.001483E+0
1.001246E+0
1.000910E+0
1.000329E+0
999.858284E-3
999.609375E-3
999.087524E-3
999.099541E-3
998.784828E-3
998.835182E-3
998.576546E-3
998.373413E-3
998.195457E-3
997.877312E-3
997.662735E-3
997.290802E-3
996.822739E-3
996.632195E-3
996.247673E-3
996.208191E-3
996.109772E-3
995.969582E-3
995.954132E-3
995.804214E-3
995.686913E-3
995.501518E-3
995.155334E-3
994.945908E-3
994.495583E-3
994.220352E-3
994.184875E-3
994.095612E-3
994.034386E-3
993.855858E-3
993.889046E-3
993.930817E-3
993.788338E-3
993.651009E-3
993.411827E-3
993.455887E-3
993.216133E-3
992.899132E-3
992.734909E-3
992.527199E-3
992.405319E-3
992.333794E-3
992.078018E-3
991.909790E-3
991.488647E-3
991.367912E-3
991.061211E-3
990.719604E-3
990.662384E-3
990.894699E-3
991.307259E-3
992.648506E-3
994.478416E-3
997.231293E-3
999.950981E-3
1.002796E+0
1.005168E+0
1.006997E+0
1.008282E+0
1.008885E+0
1.009107E+0
1.008824E+0
1.008235E+0
1.007442E+0
1.006631E+0
1.005938E+0
1.005454E+0
1.005076E+0
1.004903E+0
1.004687E+0
1.004896E+0
1.005037E+0
1.005179E+0
1.005315E+0
1.005286E+0
1.005327E+0
1.005075E+0
1.004709E+0
1.004116E+0
1.003108E+0
1.002224E+0
1.001361E+0
1.000801E+0
1.000620E+0
1.000570E+0
1.000678E+0
1.000764E+0
1.000937E+0
1.001159E+0
1.001097E+0
1.001155E+0
1.001041E+0
1.000783E+0
1.000665E+0
1.000425E+0
1.000091E+0
999.924660E-3
999.538994E-3
999.239731E-3
998.910713E-3
998.727036E-3
998.521614E-3
998.038673E-3
997.911072E-3
997.641563E-3
997.582054E-3
997.465324E-3
997.149467E-3
997.000122E-3
996.712303E-3
996.537781E-3
996.402740E-3
996.002197E-3
995.811653E-3
995.574760E-3
995.320129E-3
995.344734E-3
995.110130E-3
995.066071E-3
995.003128E-3
994.927025E-3
995.044327E-3
994.677544E-3
994.759369E-3
994.618034E-3
994.391441E-3
994.268417E-3
994.010925E-3
993.806648E-3
993.788910E-3
993.567467E-3
993.542290E-3
993.439865E-3
993.371773E-3
993.320274E-3
993.194962E-3
993.145752E-3
992.875099E-3
992.781830E-3
992.427063E-3
992.170143E-3
991.815948E-3
991.454887E-3
991.303253E-3
991.149330E-3
991.148758E-3
991.548729E-3
992.275429E-3
993.949127E-3
996.224785E-3
998.826599E-3
1.001559E+0
1.003879E+0
1.005911E+0
1.007271E+0
1.007938E+0
1.008132E+0
1.007687E+0
1.007398E+0
1.006826E+0
1.006125E+0
1.005441E+0
1.004812E+0
1.004346E+0
1.003933E+0
1.003538E+0
1.003323E+0
1.003170E+0
1.003218E+0
1.003250E+0
1.003308E+0
1.003362E+0
1.003015E+0
1.002732E+0
1.002159E+0
1.001530E+0
1.000730E+0
999.965286E-3
999.399948E-3
999.036026E-3
999.089813E-3
999.101257E-3
999.183655E-3
999.434853E-3
999.680328E-3
999.805641E-3
999.868584E-3
999.871445E-3
999.746704E-3
999.528122E-3
999.295235E-3
999.097824E-3
998.736763E-3
998.591995E-3
998.319054E-3
998.056984E-3
997.816086E-3
997.557449E-3
997.334290E-3
997.112274E-3
996.997261E-3
997.015572E-3
996.817017E-3
996.661377E-3
996.458244E-3
996.260834E-3
996.076584E-3
995.787048E-3
995.508385E-3
995.304108E-3
994.891548E-3
994.798279E-3
994.702721E-3
994.516182E-3
994.334793E-3
994.105339E-3
994.124222E-3
993.899918E-3
993.746567E-3
993.775749E-3
993.600082E-3
993.490219E-3
993.301964E-3
993.177795E-3
993.008995E-3
992.864227E-3
992.809296E-3
992.628479E-3
992.690277E-3
992.567825E-3
992.280006E-3
992.060852E-3
991.597366E-3
991.379356E-3
991.053200E-3
990.659523E-3
990.564537E-3
990.320778E-3
990.341949E-3
990.831757E-3
991.650581E-3
993.313408E-3
995.466614E-3
998.055840E-3
1.000635E+0
1.002925E+0
1.004934E+0
1.006142E+0
1.007106E+0
1.007260E+0
1.007220E+0
1.006738E+0
1.005987E+0
1.005525E+0
1.004720E+0
1.004095E+0
1.003647E+0
1.003080E+0
1.002789E+0
1.002538E+0
1.002435E+0
1.002493E+0
1.002561E+0
1.002809E+0
1.002738E+0
1.002520E+0
1.002299E+0
1.001848E+0
1.000955E+0
1.000079E+0
999.336433E-3
998.830605E-3
998.266983E-3
998.305893E-3
998.486137E-3
998.675537E-3
999.015999E-3
999.226570E-3
999.475479E-3
999.731827E-3
999.727821E-3
999.645424E-3
999.269485E-3
999.012566E-3
998.871231E-3
998.391151E-3
998.081589E-3
997.740555E-3
997.468758E-3
997.218132E-3
997.053909E-3
996.827888E-3
996.451378E-3
996.241379E-3
995.902061E-3
995.395660E-3
995.074654E-3
994.793129E-3
994.421196E-3
994.211769E-3
993.903351E-3
993.673325E-3
993.475342E-3
993.292236E-3
993.154335E-3
992.918587E-3
992.790985E-3
992.614174E-3
992.515755E-3
992.480850E-3
992.218781E-3
992.173004E-3
991.884041E-3
991.632843E-3
991.751862E-3
991.494370E-3
991.393089E-3
991.334724E-3
991.173935E-3
991.107559E-3
990.957642E-3
990.929604E-3
990.626907E-3
990.625763E-3
990.561104E-3
990.327644E-3
990.208054E-3
989.753723E-3
989.613533E-3
989.274216E-3
988.776398E-3
988.767242E-3
988.465691E-3
988.397026E-3
988.473129E-3
988.965797E-3
989.955711E-3
991.741562E-3
994.120216E-3
996.685410E-3
999.310684E-3
1.002025E+0
1.004190E+0
1.005626E+0
1.006433E+0
1.006753E+0
1.006611E+0
1.006154E+0
1.005542E+0
1.004847E+0
1.003938E+0
1.003359E+0
1.002876E+0
1.002522E+0
1.002580E+0
1.002417E+0
1.002619E+0
1.002527E+0
1.002467E+0
1.002497E+0
1.002365E+0
1.002355E+0
1.001934E+0
1.001391E+0
1.000723E+0
999.695778E-3
999.124718E-3
998.577690E-3
998.236084E-3
998.246384E-3
998.058128E-3
998.252106E-3
998.234940E-3
998.388863E-3
998.369980E-3
998.403740E-3
998.460960E-3
998.340797E-3
998.182297E-3
998.090172E-3
997.804642E-3
997.676468E-3
997.329712E-3
997.035027E-3
996.833038E-3
996.531487E-3
996.270561E-3
995.930099E-3
995.768166E-3
995.366478E-3
994.964790E-3
994.833183E-3
994.624901E-3
994.429779E-3
994.281006E-3
994.016075E-3
993.848991E-3
993.632698E-3
993.444443E-3
993.017578E-3
992.809868E-3
992.642212E-3
992.288017E-3
992.097473E-3
991.953278E-3
991.606522E-3
991.532707E-3
991.246033E-3
991.341591E-3
991.132164E-3
990.932465E-3
990.933609E-3
990.816307E-3
990.732193E-3
990.609169E-3
990.446663E-3
990.394020E-3
990.314484E-3
990.036392E-3
990.038681E-3
989.691925E-3
989.649582E-3
989.515114E-3
989.375496E-3
989.130592E-3
988.740921E-3
988.333511E-3
988.054848E-3
987.773895E-3
987.712669E-3
987.487221E-3
987.480927E-3
987.773323E-3
988.715172E-3
990.389442E-3
992.520905E-3
995.076370E-3
997.749138E-3
1.000100E+0
1.001939E+0
1.003127E+0
1.003691E+0
1.003662E+0
1.003362E+0
1.002901E+0
1.002105E+0
1.001408E+0
1.000705E+0
1.000068E+0
999.601936E-3
999.114990E-3
998.897552E-3
998.924446E-3
998.915863E-3
998.922729E-3
998.820877E-3
998.876953E-3
998.826027E-3
998.594856E-3
998.200035E-3
997.277641E-3
996.621895E-3
995.880890E-3
995.500946E-3
995.233154E-3
994.940758E-3
995.024872E-3
995.211411E-3
995.377922E-3
995.704079E-3
995.823097E-3
995.955276E-3
996.125221E-3
996.090889E-3
995.974731E-3
995.840836E-3
995.818520E-3
995.492363E-3
995.307541E-3
995.122719E-3
994.682693E-3
994.403458E-3
994.135666E-3
993.792915E-3
993.510818E-3
993.206978E-3
992.788124E-3
992.632484E-3
992.254829E-3
992.045403E-3
991.763878E-3
991.467476E-3
991.216850E-3
990.893555E-3
990.975380E-3
990.547943E-3
990.357399E-3
990.121651E-3
990.002060E-3
989.921379E-3
989.703369E-3
989.591789E-3
989.662743E-3
989.436722E-3
989.448738E-3
989.229584E-3
989.270210E-3
989.121437E-3
988.937759E-3
988.854790E-3
988.606453E-3
988.624191E-3
988.353539E-3
988.270569E-3
988.295746E-3
988.160706E-3
988.036537E-3
987.808228E-3
987.607384E-3
987.344742E-3
986.952209E-3
986.821175E-3
986.658669E-3
986.425781E-3
986.549377E-3
987.015724E-3
988.176727E-3
990.091324E-3
992.702866E-3
995.440865E-3
998.110199E-3
1.000416E+0
1.002347E+0
1.003674E+0
1.004425E+0
1.004526E+0
1.004396E+0
1.003931E+0
1.003308E+0
1.002667E+0
1.001878E+0
1.001462E+0
1.001207E+0
1.000799E+0
1.000726E+0
1.000466E+0
1.000362E+0
1.000340E+0
1.000410E+0
1.000493E+0
1.000329E+0
1.000155E+0
1.000010E+0
999.333000E-3
998.668671E-3
997.766876E-3
997.091103E-3
996.662521E-3
996.310043E-3
996.133804E-3
996.138382E-3
996.377563E-3
996.615028E-3
996.696854E-3
996.985245E-3
997.097969E-3
997.055626E-3
997.145462E-3
996.868515E-3
996.771240E-3
996.360397E-3
996.195030E-3
995.876312E-3
995.510101E-3
995.189667E-3
994.842339E-3
994.566536E-3
994.330788E-3
994.165421E-3
994.052124E-3
993.675613E-3
993.497658E-3
993.308830E-3
993.030167E-3
992.834473E-3
992.635345E-3
992.370415E-3
992.134666E-3
991.698647E-3
991.522408E-3
991.255188E-3
991.097260E-3
991.007996E-3
990.775108E-3
990.748215E-3
990.702438E-3
990.356255E-3
990.337372E-3
990.067291E-3
990.094185E-3
989.891624E-3
989.770889E-3
989.709663E-3
989.539146E-3
989.655876E-3
989.527130E-3
989.449883E-3
989.477921E-3
989.374924E-3
989.451027E-3
989.206696E-3
989.216423E-3
989.012718E-3
