Notes :


2023-11-04 ¿ÀÈÄ 9:17:28
Volts
Ch : LED 2,
741.479874E-3
743.442535E-3
746.499825E-3
750.650597E-3
754.488373E-3
758.509827E-3
762.253189E-3
765.002060E-3
766.890335E-3
767.671394E-3
767.429352E-3
766.477203E-3
765.311623E-3
763.593292E-3
761.777115E-3
759.983826E-3
758.769608E-3
757.745361E-3
757.008362E-3
756.373787E-3
756.171227E-3
756.272507E-3
756.357765E-3
756.433296E-3
756.460190E-3
756.426430E-3
755.948067E-3
755.209351E-3
754.308701E-3
753.383446E-3
752.480507E-3
752.320862E-3
752.171516E-3
752.346039E-3
752.594376E-3
752.802086E-3
753.188324E-3
753.394318E-3
753.627777E-3
753.426933E-3
753.229523E-3
753.033829E-3
752.626991E-3
752.189827E-3
751.535797E-3
751.051712E-3
750.551033E-3
749.953079E-3
749.547386E-3
749.069023E-3
748.691940E-3
748.398972E-3
747.970390E-3
747.749519E-3
747.494888E-3
746.860886E-3
746.821976E-3
746.410561E-3
746.321297E-3
746.080399E-3
745.935631E-3
745.865822E-3
745.721054E-3
745.537376E-3
745.476151E-3
745.149994E-3
745.066452E-3
744.895935E-3
744.693375E-3
744.488525E-3
744.248199E-3
744.121742E-3
743.940353E-3
743.871689E-3
743.777847E-3
743.688011E-3
743.717194E-3
743.558693E-3
743.432236E-3
743.328094E-3
743.066597E-3
743.008232E-3
742.751884E-3
742.519569E-3
742.296410E-3
742.080116E-3
741.926765E-3
741.584015E-3
741.382599E-3
741.134262E-3
740.733147E-3
740.557480E-3
740.497398E-3
740.611267E-3
741.143417E-3
742.512703E-3
745.038986E-3
748.392677E-3
752.526283E-3
756.521988E-3
760.324287E-3
763.440514E-3
765.517044E-3
766.683769E-3
766.824532E-3
766.172791E-3
764.990616E-3
763.575554E-3
761.794853E-3
760.100555E-3
758.638573E-3
757.625771E-3
756.745720E-3
756.400108E-3
756.223869E-3
756.255341E-3
756.561470E-3
756.585503E-3
756.570053E-3
756.456184E-3
756.055641E-3
755.393028E-3
754.450035E-3
753.779411E-3
753.321648E-3
752.719116E-3
752.990341E-3
753.182030E-3
753.548241E-3
753.882980E-3
754.152489E-3
754.333305E-3
754.224014E-3
754.084969E-3
753.713036E-3
753.150558E-3
752.644730E-3
752.005005E-3
751.374435E-3
750.700951E-3
750.066948E-3
749.695587E-3
749.165154E-3
748.708534E-3
748.279381E-3
747.711182E-3
747.378159E-3
747.117805E-3
746.842003E-3
746.712112E-3
746.714973E-3
746.620560E-3
746.430016E-3
746.351624E-3
746.345329E-3
746.191978E-3
746.224594E-3
745.905304E-3
745.841789E-3
745.872116E-3
745.756531E-3
745.799446E-3
745.781708E-3
745.896149E-3
745.934486E-3
745.929909E-3
746.067810E-3
746.050644E-3
745.827484E-3
745.756531E-3
745.500183E-3
745.485306E-3
745.234680E-3
745.112228E-3
745.023537E-3
745.006943E-3
745.046997E-3
744.831848E-3
744.542885E-3
744.340897E-3
743.861961E-3
743.484306E-3
742.714691E-3
742.262077E-3
742.119598E-3
741.899300E-3
742.057800E-3
742.540169E-3
743.948936E-3
746.422005E-3
749.684143E-3
753.465843E-3
757.268143E-3
760.713959E-3
763.403893E-3
765.038681E-3
765.838623E-3
765.719032E-3
764.832687E-3
763.385010E-3
761.656952E-3
759.878540E-3
757.901573E-3
756.635284E-3
755.435371E-3
754.566193E-3
754.096985E-3
753.670120E-3
753.642654E-3
753.503609E-3
753.449249E-3
753.260422E-3
753.091621E-3
752.565193E-3
751.962090E-3
751.240540E-3
750.849152E-3
750.677490E-3
750.703812E-3
750.961304E-3
751.396179E-3
751.897430E-3
752.207565E-3
752.792931E-3
753.065872E-3
752.941132E-3
752.598953E-3
752.267647E-3
751.750374E-3
751.079178E-3
750.427437E-3
749.771690E-3
748.999786E-3
748.173523E-3
747.455978E-3
746.835136E-3
746.400833E-3
745.841789E-3
745.544243E-3
745.279312E-3
744.988060E-3
744.923401E-3
744.687653E-3
744.589233E-3
744.415283E-3
744.148636E-3
744.077682E-3
743.864822E-3
743.881989E-3
743.804741E-3
743.698311E-3
743.722343E-3
743.590164E-3
743.502617E-3
743.582153E-3
743.282890E-3
743.036270E-3
742.791939E-3
742.563629E-3
742.406273E-3
742.164230E-3
742.223740E-3
742.129326E-3
741.972542E-3
741.887283E-3
741.720200E-3
741.710472E-3
741.505051E-3
741.340828E-3
741.296768E-3
740.995216E-3
740.888786E-3
740.397263E-3
740.179253E-3
739.932632E-3
739.510345E-3
739.172745E-3
738.890648E-3
738.789368E-3
738.904381E-3
739.201927E-3
740.296555E-3
742.422295E-3
745.604324E-3
749.402618E-3
753.297615E-3
757.365417E-3
760.719109E-3
762.865448E-3
764.481926E-3
765.035248E-3
764.739990E-3
763.600159E-3
762.074089E-3
760.360909E-3
758.536148E-3
756.990623E-3
755.516624E-3
754.708099E-3
754.182243E-3
753.787994E-3
753.794289E-3
753.871536E-3
754.115868E-3
754.227448E-3
754.158211E-3
754.236031E-3
753.529358E-3
752.653885E-3
751.951790E-3
751.190758E-3
750.700378E-3
750.393105E-3
750.456619E-3
750.681496E-3
750.891495E-3
751.186752E-3
751.440811E-3
751.662254E-3
751.778984E-3
751.577568E-3
751.326370E-3
750.972176E-3
750.387383E-3
750.132179E-3
749.508476E-3
748.950005E-3
748.397255E-3
747.822762E-3
747.357559E-3
746.807098E-3
746.340752E-3
745.951653E-3
745.549965E-3
745.364571E-3
745.020676E-3
744.788361E-3
744.631004E-3
744.511986E-3
744.450760E-3
744.330025E-3
744.144058E-3
744.028473E-3
743.886566E-3
743.802452E-3
743.631363E-3
743.506050E-3
743.282318E-3
743.088341E-3
742.830849E-3
742.869186E-3
742.771912E-3
742.627716E-3
742.406845E-3
742.273521E-3
742.008018E-3
741.798592E-3
741.610909E-3
741.141129E-3
741.016388E-3
740.658760E-3
740.499687E-3
740.422440E-3
740.118027E-3
740.005302E-3
739.861107E-3
739.765549E-3
739.489746E-3
739.189339E-3
739.014244E-3
738.587379E-3
738.225746E-3
737.931633E-3
737.620354E-3
737.458420E-3
737.242699E-3
737.467003E-3
737.805748E-3
738.924408E-3
741.193771E-3
744.269371E-3
748.119736E-3
752.178383E-3
755.901146E-3
759.142113E-3
761.416626E-3
762.807655E-3
763.282585E-3
762.884331E-3
761.965370E-3
760.514259E-3
758.802795E-3
757.062721E-3
755.473137E-3
754.257774E-3
753.141975E-3
752.514839E-3
752.260208E-3
752.124596E-3
752.381516E-3
752.603531E-3
752.819824E-3
753.002930E-3
752.859306E-3
752.491951E-3
751.745224E-3
750.996208E-3
750.390244E-3
750.064659E-3
750.049782E-3
750.431442E-3
750.600815E-3
750.879478E-3
751.183891E-3
751.718330E-3
751.898003E-3
752.009010E-3
751.837349E-3
751.434517E-3
751.120949E-3
750.676918E-3
750.134468E-3
749.427223E-3
748.818398E-3
748.339462E-3
747.769547E-3
747.315216E-3
746.920967E-3
746.241188E-3
746.106720E-3
745.649529E-3
745.412064E-3
745.260429E-3
744.948006E-3
744.783211E-3
744.629288E-3
744.610977E-3
744.487953E-3
744.388962E-3
744.301414E-3
744.268799E-3
744.163513E-3
744.154358E-3
744.048500E-3
744.164658E-3
743.855667E-3
743.627930E-3
743.436241E-3
743.387604E-3
743.300629E-3
743.260574E-3
743.149567E-3
743.152428E-3
742.931557E-3
742.893219E-3
742.551613E-3
742.216301E-3
741.950226E-3
741.755676E-3
741.541100E-3
741.170883E-3
741.005516E-3
741.051292E-3
740.841293E-3
740.691376E-3
740.389824E-3
740.265083E-3
740.024757E-3
739.569855E-3
739.146423E-3
738.788223E-3
738.339615E-3
738.292122E-3
738.244057E-3
738.399124E-3
738.705826E-3
739.655685E-3
741.979980E-3
745.027542E-3
748.867607E-3
752.868462E-3
756.394958E-3
759.310913E-3
761.318207E-3
762.460899E-3
762.609673E-3
761.970520E-3
760.851288E-3
759.139252E-3
757.569122E-3
755.519485E-3
753.960800E-3
752.781487E-3
751.713181E-3
750.988770E-3
750.593948E-3
750.420570E-3
750.498390E-3
750.686073E-3
750.844002E-3
750.572777E-3
750.202560E-3
749.634933E-3
748.979187E-3
748.559189E-3
748.480225E-3
748.401260E-3
748.629570E-3
748.956299E-3
749.438667E-3
749.775124E-3
750.147057E-3
750.267220E-3
750.463486E-3
750.144768E-3
750.016022E-3
749.682426E-3
749.341965E-3
748.734283E-3
748.194122E-3
747.549248E-3
746.919823E-3
746.341896E-3
745.384026E-3
745.060730E-3
744.643593E-3
744.274521E-3
743.922615E-3
743.572998E-3
743.392181E-3
743.133545E-3
742.972755E-3
742.511559E-3
742.393112E-3
742.375946E-3
742.169952E-3
741.993713E-3
741.926765E-3
741.777420E-3
741.714478E-3
741.602325E-3
741.525650E-3
741.405487E-3
741.202927E-3
741.137695E-3
740.993500E-3
740.765190E-3
740.603256E-3
740.598679E-3
740.352631E-3
740.048790E-3
739.923477E-3
739.763832E-3
739.541817E-3
739.428520E-3
739.145851E-3
738.903236E-3
738.533592E-3
738.417435E-3
738.325310E-3
738.103294E-3
737.736511E-3
737.583160E-3
737.185478E-3
736.919975E-3
736.499977E-3
736.240196E-3
735.914040E-3
735.673141E-3
735.696602E-3
735.809898E-3
736.328888E-3
737.924767E-3
740.428162E-3
743.889427E-3
747.807312E-3
751.791000E-3
755.443382E-3
758.311272E-3
760.393524E-3
761.263275E-3
761.302185E-3
760.585785E-3
759.231949E-3
757.731628E-3
755.766678E-3
753.952789E-3
752.579498E-3
751.304626E-3
750.476074E-3
750.063515E-3
749.915314E-3
749.959373E-3
749.899292E-3
750.137901E-3
750.267792E-3
750.199127E-3
750.013161E-3
749.438667E-3
748.826408E-3
748.109436E-3
747.497749E-3
747.397614E-3
747.296333E-3
747.584152E-3
747.764969E-3
748.092270E-3
748.516273E-3
748.697662E-3
748.765182E-3
748.796654E-3
748.567200E-3
748.220444E-3
747.722626E-3
747.343826E-3
746.660614E-3
746.062660E-3
745.385170E-3
744.834137E-3
744.283676E-3
743.783569E-3
743.195915E-3
742.789078E-3
742.331886E-3
742.003441E-3
741.728783E-3
741.363716E-3
740.861320E-3
740.730858E-3
740.721703E-3
740.641022E-3
740.509987E-3
740.437889E-3
740.265656E-3
740.324020E-3
740.356064E-3
740.330315E-3
740.246773E-3
739.943504E-3
739.775848E-3
739.608765E-3
739.498329E-3
739.373589E-3
739.062309E-3
739.093208E-3
738.990784E-3
738.825417E-3
738.746452E-3
738.488388E-3
738.267517E-3
738.026619E-3
737.796021E-3
737.659264E-3
737.318230E-3
737.129402E-3
736.908531E-3
736.751175E-3
736.755180E-3
736.555481E-3
736.437035E-3
736.453056E-3
736.386681E-3
736.152649E-3
735.710335E-3
735.624504E-3
735.269165E-3
735.001945E-3
734.704399E-3
734.462357E-3
734.472084E-3
734.695816E-3
735.291481E-3
736.951447E-3
739.519501E-3
743.119240E-3
747.060013E-3
751.031685E-3
754.837418E-3
757.617187E-3
759.235954E-3
760.295105E-3
760.288239E-3
759.562683E-3
758.044624E-3
756.436157E-3
754.786491E-3
753.162575E-3
751.695442E-3
750.383377E-3
749.605751E-3
749.094772E-3
748.730850E-3
748.765182E-3
748.809814E-3
749.023247E-3
748.936272E-3
749.141121E-3
749.127388E-3
748.539162E-3
747.933769E-3
747.323227E-3
746.855164E-3
746.710968E-3
746.733856E-3
746.894073E-3
747.248840E-3
747.433090E-3
747.797012E-3
747.936630E-3
748.158073E-3
748.103714E-3
747.945786E-3
747.818184E-3
747.628212E-3
747.130394E-3
746.704674E-3
746.163940E-3
745.657539E-3
744.970322E-3
744.416428E-3
743.973541E-3
743.436241E-3
742.860031E-3
742.601967E-3
742.471504E-3
742.223740E-3
741.899872E-3
741.798592E-3
741.585159E-3
741.462135E-3
741.399193E-3
741.079903E-3
741.126251E-3
740.988922E-3
741.014671E-3
741.061592E-3
740.947723E-3
740.892792E-3
741.051865E-3
740.948868E-3
740.895081E-3
740.651321E-3
740.549469E-3
740.376663E-3
740.239906E-3
740.038490E-3
739.839363E-3
739.851952E-3
739.455986E-3
739.175034E-3
739.011955E-3
738.943863E-3
738.852882E-3
738.656044E-3
738.406563E-3
738.336182E-3
738.238335E-3
738.070107E-3
737.848091E-3
737.735367E-3
737.540245E-3
737.265015E-3
737.143707E-3
736.891937E-3
736.553192E-3
736.323738E-3
735.986137E-3
735.736084E-3
735.614777E-3
735.563850E-3
735.623360E-3
735.855675E-3
736.935425E-3
738.967896E-3
742.278099E-3
745.917892E-3
749.638367E-3
753.228378E-3
756.110001E-3
758.170509E-3
759.309196E-3
759.522057E-3
758.972740E-3
757.609177E-3
756.057930E-3
754.349327E-3
752.558899E-3
750.959587E-3
749.594307E-3
748.591805E-3
748.044205E-3
747.445107E-3
747.313499E-3
747.369003E-3
747.481728E-3
747.644234E-3
747.527504E-3
747.362137E-3
746.747017E-3
746.195412E-3
745.742798E-3
745.466995E-3
745.504761E-3
745.719910E-3
746.039200E-3
746.541595E-3
747.089767E-3
747.604179E-3
747.755241E-3
747.914886E-3
747.793579E-3
747.604752E-3
747.398186E-3
746.959305E-3
746.356773E-3
745.821762E-3
745.176888E-3
744.745445E-3
744.094276E-3
743.540955E-3
743.115807E-3
742.421150E-3
742.084122E-3
741.699028E-3
741.339684E-3
741.142273E-3
740.929413E-3
740.586662E-3
740.356636E-3
740.144920E-3
740.051651E-3
739.909172E-3
739.843369E-3
739.775276E-3
739.628792E-3
739.641380E-3
739.373016E-3
739.358711E-3
739.274597E-3
739.144135E-3
739.205360E-3
738.981056E-3
739.050865E-3
738.829422E-3
738.533592E-3
738.467216E-3
738.114166E-3
738.071823E-3
737.779999E-3
737.606621E-3
737.522507E-3
737.169456E-3
736.993790E-3
736.714554E-3
736.463356E-3
736.234474E-3
736.077118E-3
736.042786E-3
735.796738E-3
735.458565E-3
734.997368E-3
734.707260E-3
734.495544E-3
734.105873E-3
733.840370E-3
733.672142E-3
733.512497E-3
733.672142E-3
734.208870E-3
735.915184E-3
738.475800E-3
741.892433E-3
745.700455E-3
749.400902E-3
752.710533E-3
755.441093E-3
757.118225E-3
758.003998E-3
757.761955E-3
756.998634E-3
755.834198E-3
754.066658E-3
752.342033E-3
750.571632E-3
749.176598E-3
748.101425E-3
747.223663E-3
746.627998E-3
746.284103E-3
746.089554E-3
746.187401E-3
746.383095E-3
746.381378E-3
746.327019E-3
746.059799E-3
745.527649E-3
744.788933E-3
744.160080E-3
744.009590E-3
743.902588E-3
744.102859E-3
744.329453E-3
744.913101E-3
745.123100E-3
745.554543E-3
745.762253E-3
745.812607E-3
745.897293E-3
745.750809E-3
745.424652E-3
745.072746E-3
744.407845E-3
743.702316E-3
743.318939E-3
742.772484E-3
742.354202E-3
741.891289E-3
741.447258E-3
741.007233E-3
740.552330E-3
740.372086E-3
739.783859E-3
739.654541E-3
739.485741E-3
739.308357E-3
739.095497E-3
738.934708E-3
738.907242E-3
738.827133E-3
738.784218E-3
738.765335E-3
738.586235E-3
738.551331E-3
738.542747E-3
738.470078E-3
738.459206E-3
738.242340E-3
738.426018E-3
738.120461E-3
737.915611E-3
737.844658E-3
737.555122E-3
737.386894E-3
737.331963E-3
737.108803E-3
736.858177E-3
736.593246E-3
736.476517E-3
736.194420E-3
736.031914E-3
735.926056E-3
735.681725E-3
735.522079E-3
735.403633E-3
735.266304E-3
735.405922E-3
735.055161E-3
734.898376E-3
734.588242E-3
734.251213E-3
734.041786E-3
733.651543E-3
733.418083E-3
733.182907E-3
732.772636E-3
732.880783E-3
732.921982E-3
733.590889E-3
735.080910E-3
737.573433E-3
740.950584E-3
744.800377E-3
748.808098E-3
752.532578E-3
755.088615E-3
757.229233E-3
758.208847E-3
758.195114E-3
757.458115E-3
756.135750E-3
754.633713E-3
752.858734E-3
751.123238E-3
749.704170E-3
748.394394E-3
747.490883E-3
746.802521E-3
746.498680E-3
746.451187E-3
746.532440E-3
746.825981E-3
746.932983E-3
747.006798E-3
746.943855E-3
746.394539E-3
745.780563E-3
745.114517E-3
744.652748E-3
744.636154E-3
744.429016E-3
744.574928E-3
744.746590E-3
745.105934E-3
745.450401E-3
745.586014E-3
745.699310E-3
745.714188E-3
745.547676E-3
745.339394E-3
744.921112E-3
744.532585E-3
744.031906E-3
743.619347E-3
743.091202E-3
742.436600E-3
741.870117E-3
741.138840E-3
740.872192E-3
740.611839E-3
740.205574E-3
740.040207E-3
739.864540E-3
739.707756E-3
739.585304E-3
