Notes :


2023-10-26 ¿ÀÈÄ 10:40:57
Volts
Ch : LED 2,
374.490166E-3
375.163651E-3
377.037048E-3
377.380943E-3
379.167366E-3
379.042053E-3
378.586006E-3
379.111290E-3
378.022957E-3
378.892708E-3
378.095055E-3
377.315140E-3
378.099060E-3
377.827263E-3
379.723549E-3
380.869675E-3
381.048203E-3
382.851791E-3
382.321358E-3
383.514977E-3
383.053207E-3
381.760597E-3
382.066727E-3
381.021309E-3
381.673050E-3
381.188393E-3
380.026245E-3
381.118584E-3
381.104279E-3
382.670975E-3
383.009148E-3
382.240105E-3
384.379578E-3
384.086609E-3
385.782623E-3
385.824966E-3
385.456467E-3
386.653519E-3
386.265564E-3
387.625122E-3
387.530708E-3
386.800003E-3
387.906647E-3
387.318993E-3
388.334084E-3
388.130951E-3
387.490654E-3
388.365555E-3
387.889481E-3
388.949776E-3
388.783264E-3
388.144112E-3
389.463615E-3
388.716888E-3
389.740562E-3
389.492226E-3
388.757515E-3
390.341949E-3
389.305687E-3
390.288734E-3
390.405464E-3
389.597511E-3
391.244888E-3
390.002060E-3
391.122437E-3
390.823746E-3
390.020370E-3
392.028809E-3
390.807152E-3
391.525269E-3
391.193962E-3
390.721893E-3
392.665100E-3
391.592216E-3
392.556381E-3
392.558098E-3
392.253113E-3
394.050980E-3
392.900848E-3
393.610954E-3
393.988609E-3
393.420982E-3
394.999695E-3
393.622971E-3
393.296814E-3
391.715240E-3
388.573837E-3
386.703300E-3
381.188965E-3
377.324867E-3
373.490524E-3
369.618988E-3
369.177246E-3
366.991425E-3
367.402840E-3
368.376732E-3
368.857384E-3
371.731567E-3
371.668053E-3
373.320580E-3
374.170876E-3
373.108292E-3
375.061226E-3
373.817253E-3
374.016380E-3
373.823547E-3
372.616196E-3
373.458481E-3
372.058868E-3
372.756386E-3
373.631859E-3
373.917961E-3
376.588440E-3
376.477432E-3
377.956581E-3
378.786278E-3
378.512192E-3
379.814529E-3
378.232956E-3
378.263283E-3
378.130531E-3
377.242470E-3
378.341675E-3
377.063370E-3
377.652740E-3
378.391457E-3
378.275299E-3
380.080032E-3
379.263496E-3
380.200195E-3
381.139755E-3
380.993271E-3
382.772255E-3
381.893921E-3
382.847214E-3
383.381653E-3
382.958794E-3
384.598732E-3
383.361626E-3
384.243393E-3
384.449959E-3
383.995056E-3
385.613823E-3
384.546089E-3
384.786415E-3
385.380363E-3
384.809875E-3
386.280441E-3
385.155487E-3
385.445595E-3
385.924530E-3
385.420990E-3
386.889839E-3
385.922813E-3
386.268997E-3
386.783981E-3
386.279297E-3
387.950706E-3
386.944771E-3
387.313843E-3
387.593079E-3
387.322998E-3
388.819885E-3
387.724113E-3
388.122368E-3
387.946701E-3
387.494659E-3
389.105988E-3
388.254547E-3
388.419342E-3
388.981819E-3
388.459396E-3
390.307045E-3
389.364052E-3
389.915085E-3
390.700150E-3
390.059280E-3
391.520119E-3
390.775681E-3
391.147041E-3
391.441727E-3
390.791130E-3
391.999054E-3
390.472984E-3
389.304543E-3
387.650299E-3
383.828545E-3
381.258774E-3
375.975037E-3
371.958733E-3
368.656540E-3
365.255356E-3
365.140915E-3
364.401627E-3
365.043068E-3
366.461563E-3
367.095566E-3
370.236969E-3
370.701599E-3
371.864319E-3
372.920609E-3
371.993065E-3
373.527718E-3
372.546959E-3
371.866035E-3
371.946716E-3
370.628357E-3
371.930122E-3
371.530724E-3
372.220802E-3
373.424149E-3
373.776627E-3
376.238251E-3
376.527214E-3
376.757813E-3
377.320862E-3
375.721550E-3
376.582146E-3
375.547028E-3
374.714470E-3
374.969673E-3
373.782921E-3
375.604248E-3
375.164223E-3
375.374222E-3
376.285744E-3
375.964165E-3
378.273582E-3
378.281593E-3
378.537369E-3
379.523849E-3
378.747368E-3
380.608749E-3
380.381012E-3
380.383301E-3
381.203270E-3
380.138397E-3
381.599808E-3
381.270218E-3
381.285095E-3
381.762314E-3
380.806732E-3
382.635498E-3
382.248688E-3
381.967163E-3
382.824326E-3
381.716537E-3
383.331299E-3
383.126450E-3
382.709312E-3
383.477783E-3
382.345963E-3
383.933258E-3
383.729553E-3
383.332443E-3
383.857155E-3
383.189964E-3
384.819603E-3
384.428787E-3
383.854866E-3
384.888268E-3
384.179306E-3
385.781479E-3
385.233879E-3
384.826469E-3
385.253334E-3
384.502029E-3
386.390877E-3
385.886765E-3
385.695076E-3
386.420059E-3
385.993767E-3
387.742424E-3
387.380791E-3
387.050056E-3
387.751579E-3
387.208557E-3
388.659096E-3
388.311195E-3
387.827110E-3
388.291740E-3
387.357903E-3
387.676048E-3
385.386658E-3
381.915092E-3
378.897858E-3
373.976326E-3
370.949936E-3
366.722488E-3
362.589455E-3
361.508560E-3
360.239983E-3
361.595535E-3
362.029266E-3
362.661552E-3
364.930916E-3
365.592384E-3
367.764473E-3
368.959236E-3
368.826485E-3
369.356918E-3
368.634224E-3
369.418716E-3
368.315506E-3
367.438316E-3
367.869186E-3
367.060089E-3
368.778419E-3
369.368362E-3
369.699097E-3
371.504402E-3
371.777916E-3
373.500252E-3
373.666191E-3
372.869682E-3
373.243904E-3
372.026253E-3
372.599030E-3
371.850014E-3
371.052933E-3
371.728706E-3
371.082687E-3
372.579575E-3
372.357559E-3
371.995926E-3
373.695374E-3
373.769188E-3
375.751305E-3
376.113510E-3
375.774765E-3
376.421928E-3
376.205635E-3
377.675056E-3
378.088188E-3
377.473068E-3
378.439522E-3
377.776337E-3
379.007721E-3
378.921890E-3
378.369713E-3
379.170227E-3
378.651237E-3
379.787064E-3
379.547882E-3
378.841209E-3
379.999924E-3
379.518127E-3
380.562973E-3
380.496597E-3
379.528427E-3
380.682564E-3
380.190468E-3
381.250191E-3
381.242752E-3
380.757523E-3
381.769753E-3
381.163788E-3
382.242966E-3
382.283592E-3
381.496239E-3
383.076096E-3
382.265282E-3
383.535576E-3
383.586502E-3
382.605171E-3
384.344673E-3
383.263206E-3
383.964157E-3
383.843994E-3
382.917595E-3
384.779549E-3
383.789635E-3
384.493446E-3
384.531784E-3
383.805084E-3
385.857582E-3
384.662819E-3
385.438156E-3
385.822105E-3
385.354614E-3
387.059784E-3
385.877609E-3
386.787987E-3
386.844063E-3
385.987473E-3
386.858940E-3
383.942986E-3
381.916237E-3
378.321075E-3
373.217010E-3
370.303345E-3
364.800453E-3
361.611557E-3
359.332466E-3
357.259941E-3
358.508492E-3
358.030128E-3
359.687233E-3
360.929489E-3
361.934853E-3
364.877129E-3
364.354134E-3
365.238762E-3
365.605545E-3
364.750671E-3
366.008949E-3
364.275742E-3
364.090347E-3
363.668633E-3
362.751389E-3
364.431953E-3
363.479233E-3
364.679146E-3
366.049004E-3
366.713333E-3
369.451904E-3
368.856239E-3
369.851303E-3
370.370293E-3
369.453049E-3
370.765686E-3
369.025040E-3
369.007874E-3
369.061661E-3
368.530083E-3
370.077324E-3
368.895149E-3
369.828415E-3
370.500755E-3
369.430733E-3
372.112083E-3
371.582222E-3
372.606468E-3
373.166084E-3
373.112869E-3
375.028038E-3
374.158287E-3
374.828339E-3
375.305557E-3
374.979401E-3
376.682281E-3
375.724411E-3
376.169014E-3
376.642227E-3
376.182747E-3
377.736282E-3
376.558685E-3
377.078819E-3
377.391243E-3
376.854515E-3
378.328514E-3
377.482796E-3
377.863884E-3
378.306770E-3
376.560402E-3
378.778267E-3
378.183174E-3
378.796577E-3
379.030609E-3
378.592873E-3
380.213928E-3
379.127884E-3
379.487228E-3
380.050850E-3
379.671478E-3
381.309700E-3
380.366707E-3
380.886269E-3
381.293106E-3
380.784416E-3
382.379150E-3
381.328583E-3
381.836700E-3
382.166290E-3
381.793785E-3
383.141327E-3
382.070160E-3
382.575989E-3
382.701302E-3
382.096481E-3
383.692932E-3
382.523346E-3
382.900429E-3
383.116150E-3
382.603455E-3
384.200478E-3
383.516121E-3
384.077454E-3
384.548950E-3
384.281731E-3
385.937691E-3
385.074806E-3
385.166931E-3
385.501099E-3
384.586143E-3
385.416985E-3
382.737350E-3
380.405045E-3
377.261925E-3
372.311783E-3
369.231606E-3
363.960457E-3
361.140633E-3
359.401131E-3
357.712555E-3
359.152794E-3
358.977127E-3
360.563278E-3
362.532806E-3
362.952232E-3
365.850449E-3
366.069603E-3
366.979408E-3
367.559624E-3
366.802597E-3
368.072891E-3
366.673851E-3
366.348267E-3
366.326523E-3
364.268303E-3
366.252708E-3
366.175461E-3
367.426300E-3
368.801308E-3
369.022179E-3
371.071815E-3
370.796585E-3
371.036339E-3
371.222305E-3
369.814110E-3
370.732498E-3
369.521141E-3
369.344902E-3
369.679070E-3
368.706894E-3
370.456696E-3
370.252991E-3
370.721054E-3
371.757317E-3
370.630646E-3
373.254204E-3
373.405266E-3
373.427010E-3
374.400902E-3
373.691940E-3
375.758743E-3
375.179672E-3
375.593376E-3
376.063156E-3
374.897003E-3
376.716614E-3
376.463699E-3
376.774979E-3
377.285385E-3
375.644875E-3
377.358627E-3
377.224159E-3
377.174377E-3
377.798653E-3
376.731491E-3
378.316498E-3
378.029823E-3
377.941132E-3
378.416061E-3
377.599525E-3
378.908730E-3
378.901863E-3
378.760529E-3
379.159927E-3
378.244400E-3
379.760742E-3
379.365921E-3
379.354477E-3
380.097771E-3
379.120445E-3
381.053925E-3
380.469131E-3
380.522919E-3
381.187820E-3
380.239677E-3
382.024384E-3
381.597519E-3
381.212997E-3
381.789207E-3
380.679703E-3
382.482147E-3
382.102776E-3
381.703949E-3
382.615471E-3
381.446457E-3
383.485794E-3
383.090401E-3
383.034325E-3
383.779335E-3
382.837486E-3
384.692001E-3
384.396744E-3
383.936119E-3
384.477997E-3
383.607101E-3
384.351540E-3
382.387733E-3
379.302406E-3
376.421356E-3
371.427155E-3
368.877983E-3
364.536667E-3
360.750389E-3
359.373093E-3
357.729721E-3
359.073257E-3
359.561348E-3
360.013962E-3
362.387466E-3
363.149071E-3
365.937424E-3
366.487885E-3
366.399765E-3
367.543602E-3
366.910744E-3
367.859459E-3
367.037201E-3
366.283607E-3
366.232109E-3
365.338898E-3
366.775703E-3
366.772270E-3
367.125320E-3
368.814468E-3
369.062805E-3
371.118736E-3
371.313286E-3
370.606613E-3
371.487808E-3
370.595741E-3
371.400833E-3
370.310783E-3
369.506264E-3
370.123100E-3
369.378662E-3
370.686722E-3
370.820618E-3
370.715904E-3
371.853447E-3
371.664047E-3
373.480797E-3
373.642159E-3
373.511124E-3
374.895287E-3
374.501610E-3
376.035118E-3
375.979042E-3
375.655746E-3
376.716042E-3
376.082611E-3
377.403831E-3
377.255630E-3
376.873970E-3
377.245331E-3
376.867104E-3
378.211784E-3
377.914238E-3
377.385521E-3
378.476715E-3
377.695656E-3
378.982544E-3
378.922462E-3
378.161430E-3
379.091263E-3
378.474998E-3
379.737282E-3
379.504967E-3
379.089546E-3
379.686356E-3
379.389954E-3
380.720329E-3
380.700874E-3
380.144691E-3
381.184387E-3
380.500603E-3
381.741142E-3
381.586075E-3
381.047630E-3
382.140541E-3
381.616402E-3
382.868958E-3
382.834625E-3
382.174873E-3
383.106422E-3
382.515907E-3
383.609962E-3
383.452034E-3
382.715034E-3
383.473206E-3
382.843208E-3
384.012222E-3
383.853149E-3
383.011436E-3
384.092331E-3
383.585930E-3
384.865379E-3
384.839630E-3
384.057426E-3
385.212135E-3
384.847641E-3
386.187172E-3
385.934830E-3
385.283089E-3
386.125946E-3
384.794998E-3
384.208488E-3
381.512260E-3
377.049065E-3
374.218941E-3
369.135475E-3
365.853882E-3
362.560272E-3
359.495544E-3
360.168457E-3
359.336472E-3
360.867119E-3
362.208939E-3
362.809753E-3
366.133690E-3
366.245270E-3
367.843437E-3
368.318939E-3
367.013741E-3
369.079399E-3
367.728996E-3
367.963600E-3
367.377090E-3
366.087341E-3
367.469215E-3
366.284752E-3
367.254639E-3
367.652893E-3
367.902946E-3
370.490456E-3
370.278168E-3
371.621704E-3
372.140694E-3
371.611404E-3
373.197556E-3
371.599960E-3
372.119522E-3
371.645164E-3
370.793724E-3
372.346115E-3
371.222305E-3
371.995354E-3
372.120667E-3
372.049713E-3
374.164009E-3
373.431587E-3
374.341965E-3
375.319290E-3
374.973106E-3
377.077103E-3
376.064301E-3
376.980972E-3
377.332306E-3
376.533508E-3
378.825188E-3
377.510834E-3
378.315353E-3
378.465271E-3
378.053856E-3
379.979324E-3
378.697014E-3
379.337883E-3
379.494095E-3
379.050064E-3
380.635071E-3
379.387093E-3
380.133820E-3
380.415916E-3
379.927826E-3
381.420708E-3
380.116653E-3
380.683708E-3
380.932617E-3
379.715538E-3
381.909943E-3
380.985260E-3
381.538010E-3
382.149696E-3
381.756592E-3
383.429146E-3
382.110214E-3
382.689857E-3
383.324432E-3
382.996559E-3
384.545517E-3
383.274078E-3
384.025383E-3
384.239960E-3
383.908653E-3
385.338020E-3
384.034538E-3
384.658241E-3
384.982681E-3
384.364128E-3
385.738564E-3
384.588432E-3
385.160637E-3
385.626984E-3
385.131454E-3
386.787987E-3
385.641289E-3
386.299896E-3
386.952209E-3
386.556816E-3
388.042259E-3
386.933899E-3
387.384224E-3
387.645721E-3
386.798859E-3
387.589645E-3
385.131454E-3
383.284950E-3
380.162430E-3
375.912094E-3
372.856522E-3
368.065453E-3
365.838432E-3
364.118385E-3
362.889862E-3
364.415932E-3
364.146996E-3
365.585518E-3
367.596245E-3
368.886566E-3
371.594238E-3
371.509552E-3
372.746658E-3
373.334312E-3
372.926903E-3
373.991776E-3
372.423363E-3
372.610474E-3
372.342682E-3
371.620560E-3
373.008156E-3
372.100639E-3
373.295975E-3
374.650955E-3
374.115372E-3
376.630211E-3
375.838280E-3
376.195335E-3
376.183319E-3
375.269508E-3
376.189613E-3
374.636650E-3
374.448395E-3
374.674988E-3
374.165154E-3
375.723267E-3
375.133896E-3
375.984192E-3
376.663399E-3
376.492882E-3
378.470421E-3
377.845573E-3
378.664398E-3
379.123878E-3
378.996849E-3
380.732918E-3
379.969025E-3
380.341530E-3
380.879402E-3
380.569839E-3
382.222939E-3
381.202698E-3
381.598091E-3
381.849861E-3
381.274796E-3
382.845497E-3
382.059860E-3
382.200050E-3
382.584572E-3
381.909370E-3
383.234596E-3
382.514763E-3
382.882118E-3
383.380508E-3
382.563400E-3
383.778763E-3
383.034325E-3
383.383369E-3
383.891487E-3
383.236885E-3
384.570694E-3
383.813667E-3
384.172440E-3
384.819031E-3
384.198761E-3
385.593796E-3
384.794426E-3
385.070801E-3
385.737419E-3
385.101700E-3
386.369133E-3
385.527420E-3
385.713959E-3
386.256409E-3
383.771324E-3
386.413765E-3
386.147118E-3
386.490440E-3
387.021446E-3
386.288452E-3
387.978745E-3
387.360764E-3
387.510109E-3
388.102913E-3
387.282944E-3
388.729477E-3
388.228226E-3
388.394737E-3
388.424492E-3
386.575127E-3
386.263275E-3
383.093834E-3
379.479218E-3
376.116943E-3
370.888710E-3
369.082832E-3
365.942001E-3
364.333534E-3
364.514351E-3
363.832283E-3
366.420937E-3
367.258072E-3
368.593597E-3
370.564270E-3
370.396614E-3
373.065948E-3
373.333740E-3
373.422432E-3
374.228096E-3
372.776413E-3
373.982620E-3
373.239899E-3
372.590446E-3
372.768974E-3
371.052361E-3
373.342896E-3
373.738861E-3
374.728203E-3
375.997925E-3
375.426865E-3
377.203560E-3
376.912308E-3
376.676559E-3
376.599312E-3
375.227165E-3
376.291466E-3
375.510979E-3
375.268364E-3
375.932121E-3
374.932480E-3
376.473427E-3
376.366997E-3
376.662827E-3
377.760887E-3
377.210426E-3
379.256058E-3
379.194832E-3
379.380798E-3
380.290604E-3
379.533577E-3
381.239319E-3
381.046486E-3
381.013870E-3
381.756020E-3
380.686569E-3
382.506752E-3
382.318497E-3
382.120514E-3
382.570267E-3
381.459618E-3
383.278656E-3
382.882690E-3
382.714462E-3
383.338737E-3
381.867027E-3
383.827972E-3
383.581924E-3
383.320999E-3
383.936119E-3
382.957649E-3
384.667397E-3
384.369850E-3
383.920670E-3
384.815025E-3
383.660316E-3
385.431290E-3
385.240746E-3
384.693146E-3
385.577202E-3
384.545517E-3
386.343956E-3
386.056709E-3
385.598946E-3
386.214066E-3
385.479927E-3
387.504959E-3
387.010002E-3
386.484718E-3
387.241173E-3
386.618042E-3
388.162422E-3
387.740135E-3
387.126732E-3
387.887192E-3
387.303543E-3
388.818741E-3
388.541794E-3
387.864304E-3
387.991333E-3
387.810516E-3
389.649582E-3
