Notes :


2023-11-10 ¿ÀÈÄ 11:58:18
Volts
Ch : LED 2,
673.562622E-3
673.296547E-3
672.960663E-3
672.373009E-3
671.958160E-3
671.590805E-3
671.144485E-3
670.993423E-3
670.784569E-3
670.876694E-3
671.099281E-3
671.508408E-3
672.651100E-3
674.812889E-3
678.165436E-3
682.522774E-3
687.191963E-3
691.813660E-3
695.821381E-3
698.721313E-3
700.412178E-3
700.762367E-3
700.424767E-3
699.145889E-3
697.613525E-3
696.171570E-3
694.533920E-3
693.248749E-3
692.116356E-3
691.454315E-3
691.337013E-3
691.194534E-3
691.521835E-3
691.903496E-3
692.412758E-3
693.058205E-3
693.194962E-3
693.543434E-3
693.321991E-3
692.541504E-3
691.576767E-3
690.019226E-3
688.675690E-3
687.690926E-3
687.015724E-3
687.048912E-3
687.159348E-3
687.745857E-3
688.473129E-3
688.923454E-3
689.467621E-3
689.569473E-3
689.801788E-3
689.592934E-3
689.141464E-3
688.803291E-3
688.072014E-3
687.514114E-3
687.051201E-3
686.506462E-3
685.983467E-3
685.465050E-3
685.020447E-3
684.564400E-3
684.235954E-3
684.059143E-3
683.784485E-3
683.665466E-3
683.239174E-3
682.949066E-3
682.631493E-3
682.320213E-3
682.162285E-3
681.941414E-3
681.685638E-3
681.650162E-3
681.377792E-3
681.321716E-3
681.163216E-3
680.989265E-3
680.901718E-3
680.653954E-3
680.476570E-3
680.261993E-3
680.035400E-3
679.940987E-3
679.763031E-3
679.634857E-3
679.574203E-3
679.378510E-3
679.317856E-3
679.023743E-3
678.987122E-3
678.737640E-3
678.501892E-3
678.405190E-3
678.141975E-3
678.235245E-3
677.974319E-3
677.748299E-3
677.647018E-3
677.406120E-3
677.291107E-3
677.075958E-3
676.765251E-3
676.863670E-3
676.500893E-3
676.324081E-3
676.159286E-3
675.860023E-3
675.591087E-3
675.143051E-3
674.887276E-3
674.653244E-3
674.494171E-3
674.558830E-3
674.578857E-3
674.917030E-3
675.583076E-3
677.061653E-3
679.752159E-3
683.440018E-3
688.171577E-3
692.677689E-3
696.759224E-3
700.254822E-3
702.359390E-3
703.522110E-3
703.353310E-3
702.333069E-3
700.831032E-3
699.109840E-3
697.427559E-3
695.875740E-3
694.659805E-3
693.815804E-3
693.049049E-3
692.938614E-3
692.905426E-3
693.168640E-3
693.689919E-3
694.300461E-3
694.699287E-3
694.954491E-3
694.670677E-3
694.171715E-3
692.991257E-3
691.649437E-3
690.205193E-3
689.273071E-3
688.676262E-3
688.407898E-3
688.800430E-3
689.415550E-3
690.112495E-3
690.864944E-3
691.235161E-3
691.540146E-3
691.541862E-3
691.294098E-3
691.076088E-3
690.527916E-3
690.025520E-3
689.595222E-3
688.904572E-3
688.538933E-3
687.886047E-3
687.571335E-3
687.113571E-3
686.559105E-3
686.433792E-3
686.089325E-3
685.882187E-3
685.644150E-3
685.459328E-3
685.292816E-3
684.954071E-3
684.744644E-3
684.486580E-3
684.234238E-3
684.061432E-3
683.709526E-3
683.612251E-3
683.433151E-3
683.285522E-3
683.095551E-3
682.854080E-3
682.822037E-3
682.476425E-3
682.357407E-3
682.308197E-3
682.018089E-3
682.074738E-3
681.976891E-3
681.724548E-3
681.770325E-3
681.507111E-3
681.421280E-3
681.175232E-3
681.088257E-3
681.006432E-3
680.950356E-3
680.912590E-3
680.910301E-3
680.685997E-3
680.639648E-3
680.405617E-3
680.237961E-3
680.090332E-3
679.718971E-3
679.426003E-3
679.175949E-3
678.970528E-3
678.631783E-3
678.331375E-3
677.949715E-3
677.439880E-3
677.313423E-3
677.308846E-3
677.149200E-3
677.182388E-3
677.390099E-3
678.230667E-3
679.871178E-3
682.616615E-3
686.421204E-3
690.605736E-3
695.135880E-3
699.044609E-3
701.903915E-3
703.692055E-3
704.163551E-3
703.950691E-3
702.926445E-3
701.375771E-3
699.854279E-3
698.232079E-3
696.960068E-3
695.810509E-3
694.960785E-3
694.599152E-3
694.311333E-3
694.484138E-3
694.925308E-3
695.257187E-3
695.744705E-3
696.072006E-3
696.168709E-3
695.661163E-3
694.656944E-3
693.652153E-3
692.051697E-3
690.966225E-3
690.109634E-3
689.666176E-3
689.880180E-3
690.228653E-3
690.995979E-3
691.833115E-3
692.231941E-3
692.761230E-3
692.716026E-3
692.800140E-3
692.574692E-3
692.007065E-3
691.554451E-3
690.864372E-3
690.321922E-3
689.797783E-3
689.116859E-3
688.663673E-3
688.119507E-3
687.562180E-3
687.032318E-3
686.641502E-3
686.461258E-3
685.942841E-3
685.676765E-3
685.413551E-3
685.108566E-3
685.047340E-3
684.601593E-3
684.487152E-3
684.254265E-3
683.963585E-3
683.809090E-3
683.501244E-3
683.258629E-3
683.133888E-3
682.842636E-3
682.774544E-3
682.399750E-3
682.268143E-3
682.055855E-3
681.806374E-3
681.779480E-3
681.398392E-3
681.345177E-3
681.198120E-3
680.900574E-3
680.772972E-3
680.484009E-3
680.329514E-3
680.199051E-3
679.796791E-3
679.796219E-3
679.487801E-3
679.394531E-3
679.267502E-3
679.145050E-3
679.185104E-3
678.913879E-3
678.870964E-3
678.728485E-3
678.408051E-3
678.285599E-3
678.121948E-3
678.028679E-3
677.715683E-3
677.399826E-3
677.101707E-3
676.587868E-3
676.165009E-3
675.674629E-3
675.379944E-3
675.472069E-3
675.349045E-3
675.589371E-3
676.008224E-3
676.975822E-3
679.138756E-3
682.494736E-3
686.905861E-3
691.377640E-3
695.857430E-3
699.731827E-3
702.282143E-3
703.678894E-3
704.017639E-3
703.386497E-3
702.430344E-3
700.828171E-3
699.217987E-3
697.649002E-3
696.351242E-3
695.517540E-3
694.758797E-3
694.500732E-3
694.520760E-3
694.670677E-3
695.237732E-3
695.790482E-3
696.367264E-3
696.749496E-3
696.843338E-3
696.685982E-3
695.842552E-3
694.608879E-3
693.253326E-3
691.843987E-3
690.842056E-3
690.185165E-3
690.099907E-3
690.460396E-3
690.777397E-3
691.456032E-3
692.091751E-3
692.540932E-3
692.695427E-3
692.621613E-3
692.556953E-3
692.013359E-3
691.631126E-3
691.024017E-3
690.379715E-3
689.808083E-3
689.315987E-3
688.812447E-3
688.283157E-3
687.721252E-3
687.417984E-3
687.064934E-3
686.670113E-3
686.366844E-3
685.891342E-3
685.701942E-3
685.323143E-3
685.170937E-3
684.887123E-3
684.476852E-3
684.463120E-3
684.039688E-3
683.847427E-3
683.576202E-3
683.234596E-3
683.199120E-3
682.964516E-3
682.899857E-3
682.652664E-3
682.407188E-3
682.465553E-3
682.250404E-3
682.022667E-3
681.982613E-3
681.697083E-3
681.675911E-3
681.358910E-3
681.264496E-3
681.167221E-3
680.884552E-3
680.807304E-3
680.580139E-3
680.433083E-3
680.244827E-3
679.926682E-3
679.803085E-3
679.522133E-3
679.397964E-3
679.205132E-3
679.027748E-3
679.016876E-3
678.706741E-3
678.570557E-3
678.353691E-3
678.229523E-3
678.105354E-3
677.787781E-3
677.661324E-3
677.283096E-3
676.934624E-3
676.671410E-3
676.246262E-3
675.905800E-3
675.554466E-3
675.399971E-3
675.516129E-3
675.588799E-3
675.655174E-3
676.219368E-3
677.524567E-3
680.216789E-3
683.853722E-3
688.264847E-3
692.882538E-3
696.898842E-3
700.381851E-3
702.349091E-3
703.360748E-3
703.142738E-3
702.147675E-3
700.861931E-3
699.304390E-3
697.741699E-3
696.204185E-3
694.873810E-3
694.029236E-3
693.300247E-3
693.097115E-3
693.221283E-3
693.490219E-3
694.246101E-3
694.821739E-3
695.144463E-3
695.518112E-3
695.348167E-3
694.856071E-3
693.739128E-3
692.433929E-3
691.134453E-3
690.062141E-3
689.556313E-3
689.302826E-3
689.537430E-3
690.010643E-3
690.542793E-3
691.262627E-3
691.661453E-3
691.833115E-3
691.879463E-3
691.748428E-3
691.500664E-3
690.892982E-3
690.411758E-3
689.931679E-3
689.358902E-3
688.982964E-3
688.399887E-3
687.924385E-3
687.552452E-3
686.973953E-3
686.789703E-3
686.382866E-3
686.232948E-3
686.012650E-3
685.695648E-3
685.576057E-3
685.253334E-3
684.972954E-3
684.691429E-3
684.459686E-3
684.264565E-3
684.053421E-3
683.788490E-3
683.671188E-3
683.395958E-3
683.362770E-3
683.124733E-3
683.096695E-3
683.018875E-3
682.769966E-3
682.884407E-3
682.693291E-3
682.602310E-3
682.447243E-3
682.241821E-3
682.249832E-3
682.017517E-3
681.996346E-3
681.921959E-3
681.710815E-3
681.625557E-3
681.398964E-3
681.289673E-3
681.227303E-3
681.011009E-3
680.880547E-3
680.649376E-3
680.492020E-3
680.390739E-3
680.132675E-3
679.929543E-3
679.605675E-3
679.346466E-3
679.171944E-3
678.747940E-3
678.604889E-3
678.102493E-3
677.806091E-3
677.612114E-3
677.404976E-3
677.337456E-3
677.320290E-3
677.572632E-3
678.172874E-3
679.417992E-3
681.948853E-3
685.353470E-3
689.537430E-3
693.830109E-3
697.658730E-3
700.728035E-3
702.723885E-3
703.672600E-3
703.419113E-3
702.577400E-3
701.211548E-3
699.704361E-3
698.097610E-3
696.564102E-3
695.392227E-3
694.666672E-3
693.953705E-3
693.676186E-3
693.754005E-3
693.916512E-3
694.429779E-3
694.861794E-3
695.130730E-3
695.301819E-3
695.068359E-3
694.523621E-3
693.382072E-3
691.999626E-3
690.843201E-3
689.881325E-3
689.561462E-3
689.457893E-3
689.861870E-3
690.452957E-3
691.042900E-3
691.850853E-3
692.168999E-3
692.445374E-3
692.769814E-3
692.373848E-3
692.087746E-3
691.557312E-3
691.124153E-3
690.553665E-3
689.980888E-3
689.389229E-3
688.854790E-3
688.154984E-3
687.761307E-3
687.210846E-3
686.926460E-3
686.414337E-3
686.214066E-3
685.889626E-3
685.669327E-3
685.400391E-3
685.081673E-3
684.834480E-3
684.631920E-3
684.266853E-3
684.032822E-3
683.817673E-3
683.601379E-3
683.246613E-3
682.901001E-3
682.646370E-3
682.418060E-3
682.318497E-3
682.171440E-3
681.976318E-3
681.851006E-3
681.619263E-3
681.381798E-3
681.271935E-3
680.978966E-3
680.743217E-3
680.449104E-3
680.268288E-3
680.014229E-3
679.806519E-3
679.658890E-3
679.407692E-3
679.220581E-3
679.232597E-3
678.988266E-3
678.813744E-3
678.565407E-3
678.440666E-3
678.371429E-3
678.182602E-3
678.119659E-3
677.979469E-3
677.943420E-3
677.842140E-3
677.423859E-3
677.251625E-3
676.856232E-3
676.517487E-3
676.224518E-3
675.968170E-3
675.702667E-3
675.378799E-3
675.218010E-3
675.182533E-3
675.245476E-3
675.749588E-3
676.828194E-3
679.132462E-3
682.638359E-3
686.804581E-3
691.422844E-3
695.755577E-3
699.355888E-3
701.803780E-3
702.993965E-3
703.398514E-3
702.739906E-3
701.540565E-3
700.151825E-3
698.506737E-3
697.298813E-3
695.988464E-3
695.050049E-3
694.464684E-3
694.254684E-3
694.462395E-3
694.574547E-3
695.094109E-3
695.575333E-3
695.926094E-3
696.351814E-3
696.375847E-3
696.162987E-3
695.436859E-3
694.258690E-3
693.017006E-3
691.647720E-3
690.756798E-3
690.230370E-3
690.007782E-3
690.436363E-3
690.867805E-3
691.457748E-3
692.098045E-3
692.613602E-3
692.771530E-3
692.694855E-3
692.695427E-3
692.439651E-3
691.838837E-3
691.351318E-3
690.791702E-3
690.262413E-3
689.707947E-3
689.168358E-3
688.759232E-3
688.341522E-3
687.825394E-3
687.485504E-3
687.040329E-3
686.783409E-3
686.323929E-3
685.992050E-3
685.669899E-3
685.206413E-3
684.942055E-3
684.562111E-3
684.283447E-3
684.049988E-3
683.988190E-3
683.795357E-3
683.502960E-3
683.266640E-3
683.228874E-3
682.850647E-3
682.829475E-3
682.583427E-3
682.579994E-3
682.395172E-3
682.233238E-3
682.159424E-3
682.071304E-3
681.896782E-3
681.698227E-3
681.476784E-3
681.433868E-3
681.281090E-3
681.047630E-3
680.758667E-3
680.572128E-3
680.318069E-3
680.056000E-3
679.983330E-3
679.704094E-3
679.504395E-3
679.416275E-3
679.228592E-3
678.966522E-3
678.797150E-3
678.571129E-3
678.460121E-3
678.141403E-3
677.833557E-3
677.627563E-3
677.359772E-3
677.073669E-3
676.691437E-3
676.384163E-3
676.152992E-3
675.769043E-3
675.508690E-3
675.335312E-3
675.312424E-3
675.478363E-3
675.614548E-3
676.462555E-3
678.184891E-3
681.118011E-3
685.094261E-3
689.246178E-3
693.639565E-3
697.309685E-3
700.027084E-3
701.811790E-3
702.118492E-3
701.745415E-3
700.701141E-3
699.302101E-3
697.868729E-3
696.398163E-3
695.093536E-3
694.007492E-3
693.123436E-3
692.844772E-3
692.558098E-3
692.739487E-3
693.078804E-3
693.564034E-3
694.046974E-3
694.291878E-3
694.592285E-3
694.283295E-3
693.396950E-3
692.262840E-3
690.704727E-3
689.559174E-3
688.623619E-3
688.181305E-3
688.260841E-3
688.550377E-3
689.172935E-3
689.822388E-3
690.420914E-3
690.702438E-3
690.701294E-3
690.734482E-3
690.551949E-3
690.079880E-3
689.824104E-3
689.265633E-3
688.909149E-3
688.405609E-3
688.025665E-3
687.647438E-3
687.120438E-3
686.836052E-3
686.493874E-3
686.010361E-3
685.878181E-3
685.606956E-3
685.419846E-3
685.168648E-3
684.896278E-3
684.708023E-3
684.481430E-3
684.239388E-3
683.922958E-3
683.780479E-3
683.702087E-3
683.409119E-3
683.316994E-3
683.061218E-3
682.912445E-3
682.779694E-3
682.600021E-3
682.620049E-3
682.417488E-3
682.275581E-3
682.149124E-3
681.942558E-3
681.941414E-3
681.800079E-3
681.552887E-3
681.356621E-3
680.938339E-3
680.921745E-3
680.768967E-3
680.591583E-3
680.510330E-3
680.206490E-3
680.267143E-3
680.133820E-3
679.840279E-3
679.771042E-3
679.567337E-3
679.509544E-3
679.267502E-3
679.078674E-3
678.916168E-3
678.743935E-3
678.365135E-3
677.895355E-3
677.518272E-3
677.240181E-3
676.873398E-3
676.736069E-3
676.520920E-3
676.636505E-3
676.670837E-3
676.813316E-3
677.728271E-3
679.441452E-3
682.339096E-3
686.180878E-3
690.308762E-3
694.527626E-3
697.960281E-3
700.615883E-3
702.330780E-3
702.778244E-3
702.686119E-3
701.723671E-3
700.398445E-3
698.975372E-3
697.493362E-3
696.283150E-3
695.306396E-3
694.487000E-3
694.129372E-3
693.946266E-3
694.295311E-3
694.698715E-3
695.016289E-3
695.505524E-3
695.765877E-3
695.801353E-3
695.409393E-3
694.630623E-3
693.458748E-3
692.093468E-3
691.062355E-3
690.133667E-3
689.661026E-3
689.852142E-3
690.163994E-3
690.831757E-3
691.389656E-3
692.078018E-3
692.484856E-3
692.571259E-3
692.595863E-3
692.481422E-3
692.041397E-3
691.626549E-3
691.007423E-3
690.593147E-3
690.066147E-3
689.544868E-3
688.943481E-3
688.350677E-3
687.790489E-3
687.335587E-3
686.831474E-3
686.594009E-3
686.254692E-3
685.996628E-3
685.771179E-3
685.494232E-3
685.228157E-3
684.876823E-3
684.625626E-3
684.250832E-3
683.957291E-3
683.869171E-3
683.589363E-3
683.488083E-3
683.193970E-3
682.947922E-3
682.981682E-3
682.672691E-3
682.535934E-3
682.359695E-3
682.247543E-3
682.234383E-3
682.040405E-3
681.996346E-3
681.918526E-3
681.860161E-3
681.805801E-3
681.331444E-3
681.197548E-3
680.952644E-3
680.701447E-3
680.654526E-3
680.314064E-3
680.172157E-3
679.932976E-3
679.806519E-3
679.740715E-3
679.471207E-3
679.417992E-3
679.232025E-3
678.916168E-3
678.761101E-3
678.711891E-3
678.667831E-3
678.472137E-3
678.155708E-3
677.795219E-3
677.443314E-3
677.178955E-3
676.906013E-3
676.432228E-3
676.250839E-3
675.931549E-3
676.059723E-3
676.099777E-3
676.252556E-3
676.967812E-3
678.432083E-3
681.221008E-3
684.891129E-3
689.100266E-3
693.561745E-3
697.285652E-3
700.417328E-3
702.385712E-3
703.127861E-3
703.157043E-3
702.412605E-3
701.142311E-3
699.885750E-3
698.313332E-3
697.021294E-3
695.823097E-3
695.056915E-3
694.662094E-3
694.379997E-3
694.689560E-3
694.817162E-3
695.381355E-3
695.783043E-3
696.269417E-3
696.491432E-3
696.298599E-3
695.857430E-3
694.950485E-3
693.630409E-3
692.326355E-3
691.203690E-3
690.461540E-3
690.238953E-3
690.161705E-3
690.697861E-3
691.025734E-3
691.716385E-3
692.094612E-3
692.459679E-3
692.542076E-3
692.364120E-3
692.274857E-3
692.015076E-3
691.543579E-3
691.054344E-3
690.335655E-3
689.993477E-3
689.512253E-3
688.920593E-3
688.479424E-3
