Notes :


2023-11-06 ¿ÀÈÄ 10:50:09
Volts
Ch : LED 2,
352.117538E-3
352.167892E-3
352.102661E-3
352.003670E-3
352.036858E-3
351.975632E-3
351.989365E-3
351.930428E-3
351.901817E-3
351.917839E-3
351.802826E-3
351.893806E-3
351.775932E-3
351.701546E-3
351.582527E-3
351.543617E-3
351.493835E-3
351.476669E-3
351.347923E-3
351.327324E-3
351.343346E-3
351.339912E-3
351.258659E-3
351.137924E-3
351.172256E-3
351.004601E-3
350.867844E-3
350.789452E-3
350.751686E-3
350.748253E-3
350.699615E-3
351.015472E-3
351.121902E-3
351.566505E-3
352.223396E-3
352.993584E-3
353.843880E-3
354.574585E-3
355.250359E-3
355.880356E-3
356.187057E-3
356.389046E-3
356.290054E-3
356.215668E-3
355.925560E-3
355.598831E-3
355.399704E-3
354.977989E-3
354.772568E-3
354.555702E-3
354.322815E-3
354.274178E-3
354.191780E-3
354.215240E-3
354.321098E-3
354.257584E-3
354.226112E-3
354.267311E-3
354.195213E-3
354.044151E-3
353.783226E-3
353.608131E-3
353.567505E-3
353.503418E-3
353.521156E-3
353.338623E-3
353.530312E-3
353.490257E-3
353.510284E-3
353.565788E-3
353.568077E-3
353.598404E-3
353.651619E-3
353.584099E-3
353.615570E-3
353.497124E-3
353.303146E-3
353.175545E-3
353.007317E-3
352.866554E-3
352.732658E-3
352.605057E-3
352.554703E-3
352.551842E-3
352.468872E-3
352.409935E-3
352.368736E-3
352.316666E-3
352.254295E-3
352.189636E-3
352.031136E-3
351.969337E-3
351.957893E-3
351.840591E-3
351.981354E-3
351.952171E-3
351.925850E-3
351.955605E-3
351.845741E-3
351.908684E-3
351.769066E-3
351.711273E-3
351.769638E-3
351.708984E-3
351.759338E-3
351.700974E-3
351.687813E-3
351.758194E-3
351.718140E-3
351.721573E-3
351.629448E-3
351.587677E-3
351.549911E-3
351.547050E-3
351.487541E-3
351.464081E-3
351.414299E-3
351.480675E-3
351.464081E-3
351.393127E-3
351.364517E-3
351.246643E-3
351.357651E-3
351.176834E-3
351.144218E-3
350.981712E-3
351.082420E-3
351.074982E-3
350.924492E-3
350.969124E-3
350.969696E-3
351.018333E-3
351.341629E-3
351.945305E-3
352.731514E-3
353.635025E-3
354.445839E-3
355.149078E-3
355.735588E-3
356.249428E-3
356.467438E-3
356.445694E-3
356.304359E-3
356.049156E-3
355.629158E-3
355.396271E-3
355.048370E-3
354.763412E-3
354.536819E-3
354.420090E-3
354.257584E-3
354.143715E-3
354.202652E-3
354.113960E-3
354.205513E-3
354.149437E-3
354.174042E-3
354.035568E-3
353.850746E-3
353.725433E-3
353.503990E-3
353.464508E-3
353.485107E-3
353.487968E-3
353.623009E-3
353.575516E-3
353.673935E-3
353.810120E-3
353.816986E-3
353.850746E-3
353.806686E-3
353.861618E-3
353.865051E-3
353.601837E-3
353.530884E-3
353.407860E-3
353.209877E-3
353.016472E-3
352.829933E-3
352.770996E-3
352.816772E-3
352.701759E-3
352.544403E-3
352.433395E-3
352.352142E-3
352.190208E-3
352.144432E-3
352.129555E-3
351.976204E-3
351.911545E-3
351.859474E-3
351.728439E-3
351.687813E-3
351.609993E-3
351.714134E-3
351.567078E-3
351.379967E-3
351.420593E-3
351.409721E-3
351.477814E-3
351.306725E-3
351.333618E-3
351.225471E-3
351.130486E-3
351.164246E-3
350.865555E-3
350.863838E-3
350.882149E-3
350.787163E-3
350.818062E-3
350.658989E-3
350.574303E-3
350.638962E-3
350.537109E-3
350.632668E-3
350.431824E-3
350.331116E-3
350.300217E-3
350.140572E-3
350.083923E-3
349.944305E-3
349.937439E-3
349.903107E-3
349.864197E-3
349.822998E-3
349.846458E-3
350.002098E-3
350.324821E-3
350.861549E-3
351.615715E-3
352.420235E-3
353.203011E-3
354.090500E-3
354.649544E-3
355.179977E-3
355.274391E-3
355.337334E-3
355.134201E-3
354.856682E-3
354.505348E-3
354.102516E-3
353.790092E-3
353.557777E-3
353.203583E-3
353.010750E-3
352.706337E-3
352.712631E-3
352.677155E-3
352.596474E-3
352.738953E-3
352.758408E-3
352.582741E-3
352.495766E-3
352.194786E-3
352.058601E-3
351.868629E-3
351.858330E-3
351.889229E-3
351.930428E-3
352.073479E-3
352.090073E-3
352.075768E-3
352.235413E-3
352.175903E-3
352.213097E-3
352.202797E-3
352.101517E-3
352.144432E-3
351.971054E-3
351.963615E-3
351.781082E-3
351.512718E-3
351.473808E-3
351.193428E-3
351.101875E-3
350.915909E-3
350.886154E-3
350.782013E-3
350.635529E-3
350.624084E-3
350.474739E-3
350.463295E-3
350.376892E-3
350.287056E-3
350.098801E-3
350.079346E-3
350.136566E-3
350.161743E-3
350.085640E-3
350.142860E-3
350.051308E-3
350.021553E-3
350.037003E-3
349.875069E-3
349.926567E-3
349.843597E-3
349.809837E-3
349.876213E-3
349.762344E-3
349.819565E-3
349.715424E-3
349.710274E-3
349.717140E-3
349.557495E-3
349.587250E-3
349.500847E-3
349.473381E-3
349.488831E-3
349.406433E-3
349.467087E-3
349.334335E-3
349.147224E-3
349.135780E-3
349.146652E-3
349.090576E-3
348.940659E-3
348.806763E-3
348.807907E-3
348.682022E-3
348.752975E-3
348.710632E-3
348.706055E-3
349.156380E-3
349.641037E-3
350.399780E-3
351.156235E-3
352.039146E-3
352.780724E-3
353.619003E-3
354.309082E-3
354.693031E-3
354.872704E-3
354.850388E-3
354.477882E-3
354.211807E-3
353.898811E-3
353.550339E-3
353.210449E-3
352.882576E-3
352.639389E-3
352.562714E-3
352.385902E-3
352.479744E-3
352.338409E-3
352.513504E-3
352.237701E-3
352.349854E-3
352.459717E-3
352.213669E-3
352.054024E-3
351.916695E-3
351.708412E-3
351.596260E-3
351.582527E-3
351.678085E-3
351.703835E-3
351.686668E-3
351.679230E-3
351.707840E-3
351.759338E-3
351.752472E-3
351.774216E-3
351.743889E-3
351.726723E-3
351.568222E-3
351.307297E-3
351.296997E-3
351.173973E-3
350.918198E-3
350.747108E-3
350.577164E-3
350.477028E-3
350.542831E-3
350.373459E-3
350.303078E-3
350.161743E-3
350.061035E-3
350.054169E-3
350.019836E-3
349.994659E-3
349.880791E-3
349.530029E-3
349.721146E-3
349.704552E-3
349.626732E-3
349.576950E-3
349.571228E-3
349.567223E-3
349.453354E-3
349.444199E-3
349.320030E-3
349.384689E-3
349.402428E-3
349.302864E-3
349.215317E-3
349.176407E-3
349.205589E-3
349.313164E-3
349.154663E-3
349.147797E-3
349.000740E-3
348.937798E-3
349.008179E-3
348.899460E-3
348.892021E-3
348.816490E-3
348.961258E-3
348.811913E-3
348.698616E-3
348.747253E-3
348.673439E-3
348.574448E-3
348.565292E-3
348.456001E-3
348.512077E-3
348.413086E-3
348.286629E-3
348.307800E-3
348.279190E-3
348.368454E-3
348.639679E-3
349.092865E-3
349.790955E-3
350.572014E-3
351.613998E-3
352.420235E-3
353.230476E-3
354.113388E-3
354.594612E-3
355.056953E-3
354.960823E-3
354.804039E-3
354.450989E-3
354.176331E-3
353.759766E-3
353.422737E-3
353.023338E-3
352.848816E-3
352.581024E-3
352.536964E-3
352.451706E-3
352.493477E-3
352.420807E-3
352.448273E-3
352.516937E-3
352.595329E-3
352.467728E-3
352.364731E-3
352.082062E-3
351.896095E-3
351.814842E-3
351.868629E-3
351.862907E-3
351.910973E-3
351.930428E-3
351.961899E-3
352.105522E-3
352.074051E-3
352.091789E-3
352.137566E-3
352.141571E-3
352.017403E-3
351.937866E-3
351.865196E-3
351.735878E-3
351.545334E-3
351.390266E-3
351.323318E-3
351.164818E-3
351.078415E-3
351.010895E-3
350.881004E-3
350.836372E-3
350.662422E-3
350.632668E-3
350.623512E-3
350.362015E-3
350.416946E-3
350.364304E-3
350.347710E-3
350.398064E-3
350.292778E-3
350.289917E-3
350.205231E-3
350.229836E-3
350.069046E-3
350.077057E-3
350.169182E-3
350.146866E-3
350.062752E-3
350.117683E-3
350.053596E-3
350.066757E-3
350.059319E-3
350.025558E-3
350.031281E-3
349.901390E-3
349.919701E-3
349.793816E-3
349.722290E-3
349.667358E-3
349.582672E-3
349.665070E-3
349.599266E-3
349.586105E-3
349.470520E-3
349.491119E-3
349.459076E-3
349.361229E-3
349.210167E-3
349.160385E-3
349.004745E-3
348.834229E-3
348.894310E-3
348.950958E-3
348.838234E-3
348.863411E-3
348.970413E-3
349.163818E-3
349.774361E-3
350.589752E-3
351.502991E-3
352.365303E-3
353.120613E-3
353.937149E-3
354.689598E-3
354.953384E-3
355.106163E-3
354.991722E-3
354.686165E-3
354.398918E-3
353.883362E-3
353.568649E-3
353.141785E-3
352.829933E-3
352.506065E-3
352.265167E-3
352.063751E-3
352.066040E-3
352.206802E-3
352.254295E-3
352.214241E-3
352.185631E-3
352.012253E-3
351.765633E-3
351.524162E-3
351.536179E-3
351.376534E-3
351.306152E-3
351.375389E-3
351.508141E-3
351.497269E-3
351.742744E-3
351.678085E-3
351.773643E-3
351.635742E-3
351.646042E-3
351.695824E-3
351.521873E-3
351.537895E-3
351.339912E-3
351.123047E-3
351.017761E-3
350.799179E-3
350.457001E-3
350.402641E-3
350.337410E-3
350.277328E-3
350.082779E-3
350.002670E-3
349.944878E-3
349.822998E-3
349.785233E-3
349.821854E-3
349.625015E-3
349.539185E-3
349.421883E-3
349.483109E-3
349.349785E-3
349.314308E-3
349.299431E-3
349.281693E-3
349.215317E-3
349.083138E-3
349.112320E-3
349.176407E-3
349.108887E-3
349.033356E-3
348.977852E-3
348.823929E-3
348.905754E-3
348.743820E-3
348.801041E-3
348.716354E-3
348.700333E-3
348.663139E-3
348.640251E-3
348.529816E-3
348.625946E-3
348.429108E-3
348.320389E-3
348.258018E-3
348.312950E-3
348.239136E-3
348.208237E-3
348.149300E-3
348.044586E-3
347.823143E-3
347.842026E-3
347.832870E-3
347.803116E-3
347.723579E-3
347.757339E-3
347.719574E-3
347.935295E-3
348.554420E-3
349.250793E-3
350.077057E-3
350.905037E-3
351.873207E-3
352.783012E-3
353.515434E-3
354.219818E-3
354.500198E-3
354.615211E-3
354.485893E-3
354.108810E-3
353.655052E-3
353.203583E-3
352.869987E-3
352.559853E-3
352.265167E-3
352.033424E-3
351.872635E-3
351.811981E-3
351.820564E-3
351.774216E-3
351.721573E-3
351.833153E-3
351.723289E-3
351.729012E-3
351.575089E-3
351.362801E-3
350.985146E-3
351.009178E-3
351.077271E-3
351.103020E-3
351.254654E-3
351.270103E-3
351.341057E-3
351.384544E-3
351.493263E-3
351.545906E-3
351.504707E-3
351.377106E-3
351.266670E-3
351.108170E-3
351.271248E-3
351.122475E-3
350.961113E-3
350.767708E-3
350.406647E-3
350.186348E-3
350.125122E-3
350.072479E-3
350.074768E-3
350.003815E-3
349.801254E-3
349.610710E-3
349.530029E-3
349.477959E-3
349.404144E-3
349.420738E-3
349.432182E-3
349.331474E-3
349.243355E-3
349.128914E-3
349.004173E-3
348.997307E-3
349.128914E-3
349.079132E-3
349.012756E-3
349.011612E-3
349.047089E-3
348.960114E-3
348.896027E-3
348.842239E-3
348.805618E-3
348.767853E-3
348.696327E-3
348.764992E-3
348.633385E-3
348.587608E-3
348.449707E-3
348.357010E-3
348.270607E-3
348.242569E-3
348.300362E-3
348.354721E-3
348.216820E-3
348.204231E-3
348.156738E-3
348.139000E-3
348.090935E-3
347.987938E-3
348.037148E-3
347.809982E-3
347.771645E-3
347.650337E-3
347.610283E-3
347.556496E-3
347.379684E-3
347.419167E-3
347.522163E-3
347.486115E-3
347.886086E-3
348.344421E-3
349.080276E-3
349.844170E-3
350.827789E-3
351.786232E-3
352.633667E-3
353.629303E-3
354.139709E-3
354.299355E-3
354.402924E-3
354.105377E-3
353.879929E-3
353.429031E-3
353.204727E-3
352.714348E-3
352.407646E-3
352.136993E-3
351.993942E-3
351.818275E-3
351.853180E-3
351.881218E-3
351.968765E-3
352.137566E-3
352.067184E-3
352.165604E-3
352.064323E-3
351.841736E-3
351.719284E-3
351.433182E-3
351.357651E-3
351.221466E-3
351.146507E-3
351.298141E-3
351.297569E-3
351.429749E-3
351.347351E-3
351.458931E-3
351.506996E-3
351.605415E-3
351.569366E-3
351.176262E-3
351.383972E-3
351.286697E-3
351.258087E-3
351.100731E-3
350.946808E-3
350.798607E-3
350.608063E-3
350.519371E-3
350.328255E-3
350.332832E-3
350.277328E-3
350.228691E-3
350.093079E-3
350.192070E-3
350.032997E-3
349.902534E-3
349.924278E-3
349.867630E-3
349.792099E-3
349.714851E-3
349.736023E-3
349.715424E-3
349.687958E-3
349.749756E-3
349.638748E-3
349.608994E-3
349.333763E-3
349.430466E-3
349.522018E-3
349.469948E-3
349.471664E-3
349.385834E-3
349.349213E-3
349.425888E-3
349.287415E-3
349.260521E-3
349.262810E-3
349.257660E-3
349.215889E-3
349.127197E-3
349.090576E-3
348.985291E-3
349.033928E-3
348.942375E-3
348.762131E-3
348.827362E-3
348.858261E-3
348.855400E-3
348.785591E-3
348.647118E-3
348.592186E-3
348.516655E-3
348.414803E-3
348.469734E-3
348.266029E-3
348.332977E-3
348.244858E-3
348.211670E-3
348.222542E-3
348.324394E-3
348.867989E-3
349.377251E-3
350.150299E-3
351.151657E-3
352.041435E-3
353.019333E-3
353.772926E-3
354.216385E-3
354.575729E-3
354.369164E-3
354.385757E-3
354.036713E-3
353.774643E-3
353.468513E-3
353.089142E-3
352.655411E-3
352.393913E-3
352.031708E-3
352.055168E-3
351.862907E-3
351.791382E-3
351.757050E-3
351.831436E-3
351.933289E-3
351.937866E-3
351.773643E-3
351.582527E-3
351.548195E-3
351.323891E-3
351.240921E-3
351.235199E-3
351.342773E-3
351.367950E-3
351.443481E-3
351.504135E-3
351.648331E-3
351.642609E-3
351.734161E-3
351.687813E-3
351.670074E-3
351.577377E-3
351.526451E-3
351.337624E-3
351.286697E-3
351.006317E-3
350.815773E-3
350.619507E-3
350.438690E-3
350.395775E-3
350.222397E-3
350.019836E-3
349.937439E-3
349.942589E-3
349.879074E-3
349.606133E-3
349.559784E-3
349.388123E-3
349.235916E-3
349.213600E-3
349.192429E-3
349.141502E-3
349.295425E-3
349.095726E-3
349.114037E-3
349.078560E-3
348.961258E-3
348.901176E-3
348.788452E-3
348.833084E-3
348.745537E-3
348.722076E-3
348.754692E-3
348.591614E-3
348.603058E-3
348.530960E-3
348.583603E-3
348.549843E-3
348.441124E-3
348.424530E-3
348.409081E-3
348.378181E-3
348.272324E-3
348.164177E-3
348.106956E-3
348.015976E-3
347.991371E-3
348.054886E-3
347.875786E-3
348.089790E-3
347.733879E-3
347.652626E-3
347.563362E-3
347.515297E-3
347.548485E-3
347.423172E-3
347.412872E-3
347.488403E-3
347.702980E-3
348.243713E-3
348.904610E-3
349.697113E-3
350.614929E-3
351.490974E-3
352.396202E-3
353.165245E-3
353.686523E-3
354.107094E-3
354.021263E-3
353.783798E-3
353.531456E-3
353.179550E-3
352.932358E-3
352.490616E-3
352.313232E-3
351.857758E-3
351.544762E-3
351.490402E-3
351.325607E-3
351.366234E-3
351.314163E-3
351.450348E-3
351.432610E-3
351.140213E-3
351.193428E-3
351.016617E-3
350.812912E-3
350.707626E-3
350.565720E-3
350.625229E-3
350.555992E-3
350.593185E-3
350.502777E-3
350.708199E-3
350.830650E-3
350.910759E-3
350.960541E-3
351.013184E-3
350.982285E-3
351.093864E-3
350.942230E-3
350.643539E-3
350.681877E-3
350.447845E-3
350.431824E-3
350.200653E-3
350.010109E-3
349.975204E-3
349.794388E-3
349.725723E-3
349.740028E-3
349.603271E-3
349.455643E-3
349.266243E-3
349.180412E-3
349.059677E-3
349.029922E-3
348.987579E-3
348.881149E-3
348.945236E-3
348.821640E-3
348.843384E-3
348.824501E-3
348.753548E-3
348.822784E-3
348.680878E-3
348.643684E-3
348.723793E-3
348.553276E-3
348.534966E-3
348.505783E-3
348.406792E-3
348.427391E-3
348.438263E-3
348.397064E-3
348.413658E-3
348.359299E-3
348.237419E-3
348.119545E-3
348.248291E-3
348.101807E-3
348.066902E-3
348.125267E-3
348.049736E-3
348.050880E-3
347.895241E-3
347.960472E-3
347.916412E-3
347.919846E-3
347.824860E-3
347.768784E-3
347.657204E-3
347.586823E-3
347.279549E-3
347.452354E-3
347.311020E-3
347.318459E-3
347.278976E-3
347.248650E-3
347.581673E-3
347.992516E-3
348.655701E-3
349.465370E-3
350.299644E-3
351.218033E-3
352.033424E-3
352.933502E-3
353.525162E-3
