Notes :


2023-11-02 ¿ÀÈÄ 6:38:33
Volts
Ch : LED 2,
591.021538E-3
590.907097E-3
590.396118E-3
590.740013E-3
590.254211E-3
590.712547E-3
590.493393E-3
590.214157E-3
590.156937E-3
590.113449E-3
590.580368E-3
590.684509E-3
589.626503E-3
590.768623E-3
590.667343E-3
590.996933E-3
591.138840E-3
590.749741E-3
591.273880E-3
590.754890E-3
590.962029E-3
590.945435E-3
590.439606E-3
590.885353E-3
590.043068E-3
589.973831E-3
589.739799E-3
588.982201E-3
589.698029E-3
589.624786E-3
591.170883E-3
593.120384E-3
595.204353E-3
599.264717E-3
601.766968E-3
605.295181E-3
608.042336E-3
609.561539E-3
611.572838E-3
610.915947E-3
611.027527E-3
610.276222E-3
608.581924E-3
608.062935E-3
606.083107E-3
605.197906E-3
604.191971E-3
602.938843E-3
603.141975E-3
601.930618E-3
601.952362E-3
601.926613E-3
600.230598E-3
601.465988E-3
600.390244E-3
600.307274E-3
600.323868E-3
599.827766E-3
600.762749E-3
600.267792E-3
600.738144E-3
601.758957E-3
601.865387E-3
603.120232E-3
603.037262E-3
603.389168E-3
603.832626E-3
603.509331E-3
604.436874E-3
603.450394E-3
603.228951E-3
602.887917E-3
601.843071E-3
602.158928E-3
600.735283E-3
600.386810E-3
599.916458E-3
599.136543E-3
599.509048E-3
598.028755E-3
597.766113E-3
597.868538E-3
597.322655E-3
598.035622E-3
596.957588E-3
597.029686E-3
597.159576E-3
596.820259E-3
597.472000E-3
596.700668E-3
596.544456E-3
596.864319E-3
596.580505E-3
597.385025E-3
596.733856E-3
596.900368E-3
597.231674E-3
596.811676E-3
597.423935E-3
596.487808E-3
596.474075E-3
596.458054E-3
595.849228E-3
596.187973E-3
595.108795E-3
594.925690E-3
594.709396E-3
593.764114E-3
594.029617E-3
592.947006E-3
592.758179E-3
592.924690E-3
592.922974E-3
594.489098E-3
595.716476E-3
598.281097E-3
601.402473E-3
604.067802E-3
607.701302E-3
609.206200E-3
610.991478E-3
612.059784E-3
611.716461E-3
611.950493E-3
610.388374E-3
609.126663E-3
607.644081E-3
605.829620E-3
605.437660E-3
603.596878E-3
602.748299E-3
602.292252E-3
601.465416E-3
601.773834E-3
600.656319E-3
600.285530E-3
599.884987E-3
599.031830E-3
599.427795E-3
598.462486E-3
598.528290E-3
598.746872E-3
598.703384E-3
600.000572E-3
599.828911E-3
600.531578E-3
601.187325E-3
600.420570E-3
601.850510E-3
601.572418E-3
601.679993E-3
601.332664E-3
600.037193E-3
600.629997E-3
599.740791E-3
599.014664E-3
598.822975E-3
597.401619E-3
597.531509E-3
596.343040E-3
595.782280E-3
595.672417E-3
594.866753E-3
594.990921E-3
594.137764E-3
593.942070E-3
594.051361E-3
593.489456E-3
594.245911E-3
593.690300E-3
593.471718E-3
593.601036E-3
593.100929E-3
593.773270E-3
593.344688E-3
593.425369E-3
593.769264E-3
593.295479E-3
593.823624E-3
593.452263E-3
593.405342E-3
593.835640E-3
592.441750E-3
593.247414E-3
592.732430E-3
592.539024E-3
592.676353E-3
591.697311E-3
592.066383E-3
591.266441E-3
590.804672E-3
590.695381E-3
589.881134E-3
590.332031E-3
589.890862E-3
590.132904E-3
591.420937E-3
592.507553E-3
595.895576E-3
598.571205E-3
601.475143E-3
604.720688E-3
606.451035E-3
608.915520E-3
609.338951E-3
609.355545E-3
609.153557E-3
607.388306E-3
606.667900E-3
604.860306E-3
603.505325E-3
602.438736E-3
600.747299E-3
600.717545E-3
599.992561E-3
599.421501E-3
599.284172E-3
598.380661E-3
598.586082E-3
597.732353E-3
596.733856E-3
596.632004E-3
595.948792E-3
596.431732E-3
596.619987E-3
597.058296E-3
598.150063E-3
598.204422E-3
599.491882E-3
599.858093E-3
600.040627E-3
600.349045E-3
599.932480E-3
600.575638E-3
599.913597E-3
598.998070E-3
598.883057E-3
597.703171E-3
597.701454E-3
596.860313E-3
595.877838E-3
595.529366E-3
594.488525E-3
594.895363E-3
594.130325E-3
593.610191E-3
593.585587E-3
592.854309E-3
593.474579E-3
593.092346E-3
592.734146E-3
592.875481E-3
592.385674E-3
593.100357E-3
592.911530E-3
592.524719E-3
592.934418E-3
592.398834E-3
593.153000E-3
593.118668E-3
592.835999E-3
593.364716E-3
592.892647E-3
593.550110E-3
593.073463E-3
592.646599E-3
592.730713E-3
592.001724E-3
592.331886E-3
591.869545E-3
591.260147E-3
591.227531E-3
590.434456E-3
590.922546E-3
590.584373E-3
590.492821E-3
591.467285E-3
592.587090E-3
595.450974E-3
598.158646E-3
601.124382E-3
604.674339E-3
606.996346E-3
609.726334E-3
610.926819E-3
611.096764E-3
611.400604E-3
609.967804E-3
609.655380E-3
608.053207E-3
606.370354E-3
605.487442E-3
603.657532E-3
603.526497E-3
602.583504E-3
602.037048E-3
601.888847E-3
601.090622E-3
601.464272E-3
600.898933E-3
599.646378E-3
599.569130E-3
598.644447E-3
598.919106E-3
598.873901E-3
598.990059E-3
600.070953E-3
599.859810E-3
601.213646E-3
601.525497E-3
601.750374E-3
602.524567E-3
602.265930E-3
602.677917E-3
602.451897E-3
601.677704E-3
601.697159E-3
600.458908E-3
600.373650E-3
599.665833E-3
598.085976E-3
598.425293E-3
597.359276E-3
597.422791E-3
596.833420E-3
595.938492E-3
595.918465E-3
595.187759E-3
595.581436E-3
595.604324E-3
594.914246E-3
595.405197E-3
594.763756E-3
595.144844E-3
595.274734E-3
594.832420E-3
595.062447E-3
594.592667E-3
594.940567E-3
595.018387E-3
594.689941E-3
595.484734E-3
595.001793E-3
595.444679E-3
595.228386E-3
594.866180E-3
595.553398E-3
594.725418E-3
594.906235E-3
594.631577E-3
593.381310E-3
594.334030E-3
593.524933E-3
593.499756E-3
593.173027E-3
592.535019E-3
592.753601E-3
591.941071E-3
592.143631E-3
592.694092E-3
593.259430E-3
596.071815E-3
598.144913E-3
601.607895E-3
605.227089E-3
608.062935E-3
611.982536E-3
613.327789E-3
614.611244E-3
615.018654E-3
613.936043E-3
613.694000E-3
611.531639E-3
610.311699E-3
609.161568E-3
607.562828E-3
607.216644E-3
605.604744E-3
605.196762E-3
605.177879E-3
604.547310E-3
605.044556E-3
604.107285E-3
604.002571E-3
603.457260E-3
602.172661E-3
602.535439E-3
601.400185E-3
601.114655E-3
601.328087E-3
601.124382E-3
602.617264E-3
602.319717E-3
603.003502E-3
603.775978E-3
603.766823E-3
604.673767E-3
603.923607E-3
603.729057E-3
603.472137E-3
602.692795E-3
602.925110E-3
601.439667E-3
600.856018E-3
600.337601E-3
599.262428E-3
599.646378E-3
598.336029E-3
597.913742E-3
597.620773E-3
597.010231E-3
597.436523E-3
596.395683E-3
596.287537E-3
596.395111E-3
595.992279E-3
596.454048E-3
595.631218E-3
595.838356E-3
595.994568E-3
595.480728E-3
596.167374E-3
595.377731E-3
595.509911E-3
595.452118E-3
594.654465E-3
595.897293E-3
595.153427E-3
595.329094E-3
595.580292E-3
595.087624E-3
595.497322E-3
594.886780E-3
594.635582E-3
594.661903E-3
594.081688E-3
594.435310E-3
593.381882E-3
593.282890E-3
593.265152E-3
592.345619E-3
592.756462E-3
591.586876E-3
591.229820E-3
591.403198E-3
591.134834E-3
592.551041E-3
593.270302E-3
595.632935E-3
598.869324E-3
601.972389E-3
606.191826E-3
608.920670E-3
611.679840E-3
613.691711E-3
613.957214E-3
614.361763E-3
612.977028E-3
611.668968E-3
610.265350E-3
608.226585E-3
607.570839E-3
605.877686E-3
605.113220E-3
604.677200E-3
603.825760E-3
604.302406E-3
603.635216E-3
603.451538E-3
603.156281E-3
602.129745E-3
602.239037E-3
600.825119E-3
600.373650E-3
600.283813E-3
599.965096E-3
600.803375E-3
600.783920E-3
601.454544E-3
601.930046E-3
601.357841E-3
602.987480E-3
602.754021E-3
603.091621E-3
603.061295E-3
602.155495E-3
602.482796E-3
601.268005E-3
600.663757E-3
600.411415E-3
599.105072E-3
599.188042E-3
597.960091E-3
597.208786E-3
597.072601E-3
596.420860E-3
596.570206E-3
595.936203E-3
595.662117E-3
595.852661E-3
595.268440E-3
595.705605E-3
595.122528E-3
594.937706E-3
595.325089E-3
594.669342E-3
595.306778E-3
594.969749E-3
594.796371E-3
595.129967E-3
594.465637E-3
595.136261E-3
594.679642E-3
594.608688E-3
595.032692E-3
594.367790E-3
594.827271E-3
594.312859E-3
593.964386E-3
594.195557E-3
593.443108E-3
593.589592E-3
593.023682E-3
592.353630E-3
592.215157E-3
590.823555E-3
591.542244E-3
590.954590E-3
590.642166E-3
590.550041E-3
589.940071E-3
590.794373E-3
591.370583E-3
592.846870E-3
595.570564E-3
598.100281E-3
602.247620E-3
605.291176E-3
608.205414E-3
610.683060E-3
611.606026E-3
612.880325E-3
612.126160E-3
610.835266E-3
609.522057E-3
607.736778E-3
607.129097E-3
605.494308E-3
603.923607E-3
603.345108E-3
602.063370E-3
602.315712E-3
601.747513E-3
601.365280E-3
601.362419E-3
600.096130E-3
600.119019E-3
599.513054E-3
598.784065E-3
598.785210E-3
598.185539E-3
599.281311E-3
599.629784E-3
600.022888E-3
600.922966E-3
601.127815E-3
602.338600E-3
602.483940E-3
602.130318E-3
602.676201E-3
601.767540E-3
602.432442E-3
601.822472E-3
600.827408E-3
600.645447E-3
599.160576E-3
599.360275E-3
598.386383E-3
597.507477E-3
597.516632E-3
596.395683E-3
596.742439E-3
596.154213E-3
595.440674E-3
595.749664E-3
594.945717E-3
595.551109E-3
595.042419E-3
594.638443E-3
594.811821E-3
594.483376E-3
595.021820E-3
594.696808E-3
594.546890E-3
594.766617E-3
594.353485E-3
595.076180E-3
594.866180E-3
594.057083E-3
594.215584E-3
593.996429E-3
594.701385E-3
594.570351E-3
594.177818E-3
594.388390E-3
593.825340E-3
594.250488E-3
593.769836E-3
592.683220E-3
593.241119E-3
592.345047E-3
592.658043E-3
592.180824E-3
591.395760E-3
591.563988E-3
590.644455E-3
591.005516E-3
590.637589E-3
590.382957E-3
591.222382E-3
591.767693E-3
594.509697E-3
597.492027E-3
599.809456E-3
604.410553E-3
607.592583E-3
611.563110E-3
613.887405E-3
615.017509E-3
615.646935E-3
614.485359E-3
614.114571E-3
612.666893E-3
610.791206E-3
609.677696E-3
607.758522E-3
607.257843E-3
606.297112E-3
605.078316E-3
605.354691E-3
604.801941E-3
605.208206E-3
604.915810E-3
604.458618E-3
604.439735E-3
603.250694E-3
602.882767E-3
602.279663E-3
601.506615E-3
601.979256E-3
601.582146E-3
602.395821E-3
602.696228E-3
602.738571E-3
603.580856E-3
603.420639E-3
604.263496E-3
604.274368E-3
603.675270E-3
603.638077E-3
602.731705E-3
602.750587E-3
602.081108E-3
600.858879E-3
600.463486E-3
599.296761E-3
598.909950E-3
598.410416E-3
597.386169E-3
597.398758E-3
596.527290E-3
596.558189E-3
596.258926E-3
595.438385E-3
595.885849E-3
595.080185E-3
595.174599E-3
595.058441E-3
593.822479E-3
594.927979E-3
594.140053E-3
594.579506E-3
594.555473E-3
593.847656E-3
594.556046E-3
593.763542E-3
594.128036E-3
594.027328E-3
593.423080E-3
594.153786E-3
593.168449E-3
593.177032E-3
593.385887E-3
592.768478E-3
593.486023E-3
592.417717E-3
592.564774E-3
592.337608E-3
591.610336E-3
592.032623E-3
590.805817E-3
590.634155E-3
590.443039E-3
589.706039E-3
590.015030E-3
589.038277E-3
589.006805E-3
588.662338E-3
588.100433E-3
589.197922E-3
589.270592E-3
590.910530E-3
593.460846E-3
596.191978E-3
600.584221E-3
603.551674E-3
607.269859E-3
610.073090E-3
611.557388E-3
613.044548E-3
612.371635E-3
611.315346E-3
610.198975E-3
608.403969E-3
607.438087E-3
605.090332E-3
604.111862E-3
603.095627E-3
601.817894E-3
602.491951E-3
601.310921E-3
601.369858E-3
601.455116E-3
600.947571E-3
601.289749E-3
599.787140E-3
599.453545E-3
599.098778E-3
598.207283E-3
598.774910E-3
598.107719E-3
598.586655E-3
599.446106E-3
599.669838E-3
600.970459E-3
600.725555E-3
601.226234E-3
601.650238E-3
601.007080E-3
601.471710E-3
600.450897E-3
600.087547E-3
599.626350E-3
598.543739E-3
598.526001E-3
597.038269E-3
596.555901E-3
596.187973E-3
595.252991E-3
595.583725E-3
594.532585E-3
594.427299E-3
594.104004E-3
593.651962E-3
594.220161E-3
593.394470E-3
593.330383E-3
593.439102E-3
592.856026E-3
593.629646E-3
592.975044E-3
592.966461E-3
593.150711E-3
592.827415E-3
593.456268E-3
592.588234E-3
592.690086E-3
592.953300E-3
592.501831E-3
593.055153E-3
592.363358E-3
592.322731E-3
592.573357E-3
591.000366E-3
592.084694E-3
591.355133E-3
591.641235E-3
591.376877E-3
590.724564E-3
591.165161E-3
590.165520E-3
589.645386E-3
589.468002E-3
588.412857E-3
588.998795E-3
588.174820E-3
588.210297E-3
588.298416E-3
587.679291E-3
589.508057E-3
590.487099E-3
593.245125E-3
596.417999E-3
599.143982E-3
603.693581E-3
606.399536E-3
608.790779E-3
610.423851E-3
610.411263E-3
610.696220E-3
609.062004E-3
607.825470E-3
606.442451E-3
603.526497E-3
603.452110E-3
601.959229E-3
600.789070E-3
600.239754E-3
599.202347E-3
599.737930E-3
598.816681E-3
598.721123E-3
598.530579E-3
596.303558E-3
597.180748E-3
596.430016E-3
596.156502E-3
596.589661E-3
596.197128E-3
597.322655E-3
597.344971E-3
597.954941E-3
598.815536E-3
597.712326E-3
599.526787E-3
599.543381E-3
599.521065E-3
599.953651E-3
599.111938E-3
599.144554E-3
598.142624E-3
597.518349E-3
597.237968E-3
596.033478E-3
595.897865E-3
594.837570E-3
594.171524E-3
594.047928E-3
593.038559E-3
593.258286E-3
592.545891E-3
592.108154E-3
592.143631E-3
590.377808E-3
591.627502E-3
591.499329E-3
591.256714E-3
591.737938E-3
589.822769E-3
591.260147E-3
591.089058E-3
591.559982E-3
591.739082E-3
591.264153E-3
591.870117E-3
591.369438E-3
591.066742E-3
591.508484E-3
590.844154E-3
591.577148E-3
591.264153E-3
590.808105E-3
591.141701E-3
590.452194E-3
591.067886E-3
590.659904E-3
590.374947E-3
590.413284E-3
589.578438E-3
589.877701E-3
589.387321E-3
589.078331E-3
589.006233E-3
588.046646E-3
588.440323E-3
587.919044E-3
587.267303E-3
587.595749E-3
587.342834E-3
589.030266E-3
590.773201E-3
593.539238E-3
597.228241E-3
600.618553E-3
605.088043E-3
608.031464E-3
610.014153E-3
611.637497E-3
611.393738E-3
611.391449E-3
610.247612E-3
608.559036E-3
607.248116E-3
605.057144E-3
604.398537E-3
603.050423E-3
602.026749E-3
601.550674E-3
600.394821E-3
600.836563E-3
600.532722E-3
600.156212E-3
600.466919E-3
599.506187E-3
599.645233E-3
599.057579E-3
598.330307E-3
598.462486E-3
597.690010E-3
598.517418E-3
598.592377E-3
598.552322E-3
599.412918E-3
599.138260E-3
600.088692E-3
600.402832E-3
600.238037E-3
600.564766E-3
599.743652E-3
600.188255E-3
599.522209E-3
598.549461E-3
598.385811E-3
597.149849E-3
597.142410E-3
596.293831E-3
595.349121E-3
595.199203E-3
594.126892E-3
594.237900E-3
593.652534E-3
593.247986E-3
593.325233E-3
592.476082E-3
593.076324E-3
592.798233E-3
592.133904E-3
592.560196E-3
591.765976E-3
592.412567E-3
592.210579E-3
591.826057E-3
591.923904E-3
591.334534E-3
592.026901E-3
591.713905E-3
591.298485E-3
591.477013E-3
590.689659E-3
591.205215E-3
590.876770E-3
590.464783E-3
590.630150E-3
589.846802E-3
590.261650E-3
589.652252E-3
589.340973E-3
589.258575E-3
588.440895E-3
588.803673E-3
588.141632E-3
587.518501E-3
587.465858E-3
586.477661E-3
586.625290E-3
585.771561E-3
585.376740E-3
585.519218E-3
584.880066E-3
586.014748E-3
586.822701E-3
588.214302E-3
591.745949E-3
594.505692E-3
599.018669E-3
602.177238E-3
604.467773E-3
606.515121E-3
607.025528E-3
607.589149E-3
606.641006E-3
604.938126E-3
603.800583E-3
601.657104E-3
600.883484E-3
599.387169E-3
597.773552E-3
597.132111E-3
595.825195E-3
595.811462E-3
595.594597E-3
595.259857E-3
595.384598E-3
594.395828E-3
594.364357E-3
593.968964E-3
593.023682E-3
592.742157E-3
592.381096E-3
593.275452E-3
593.725204E-3
593.719482E-3
594.720840E-3
594.811821E-3
596.017456E-3
596.380806E-3
596.156502E-3
596.735001E-3
596.086693E-3
596.412849E-3
595.890427E-3
595.025253E-3
594.823837E-3
593.831635E-3
