Notes :


2023-11-06 ¿ÀÈÄ 10:57:19
Volts
Ch : LED 2,
353.359222E-3
353.248215E-3
353.261948E-3
353.362656E-3
353.182411E-3
353.222466E-3
353.056526E-3
352.983284E-3
352.883720E-3
352.779007E-3
352.734375E-3
352.721214E-3
352.742958E-3
352.688026E-3
352.532959E-3
352.618790E-3
352.503777E-3
352.525520E-3
352.473450E-3
352.474594E-3
352.474022E-3
352.375031E-3
352.298927E-3
352.356720E-3
352.277184E-3
352.363014E-3
352.382469E-3
352.181625E-3
352.232552E-3
352.111816E-3
352.190208E-3
352.046585E-3
352.083778E-3
352.049446E-3
352.034569E-3
351.935577E-3
351.970482E-3
351.976204E-3
352.079201E-3
351.943016E-3
351.893234E-3
351.887512E-3
351.819992E-3
351.862335E-3
351.871490E-3
351.798820E-3
351.728439E-3
351.717567E-3
351.712418E-3
351.672935E-3
351.750755E-3
351.640320E-3
351.682091E-3
351.752472E-3
351.592255E-3
351.560783E-3
351.549339E-3
351.547623E-3
351.627731E-3
351.473236E-3
351.496124E-3
351.637459E-3
351.890373E-3
352.399635E-3
352.680016E-3
353.149796E-3
353.509140E-3
353.854179E-3
354.121971E-3
354.210663E-3
354.250145E-3
354.085350E-3
354.021263E-3
353.981209E-3
353.854752E-3
353.676224E-3
353.540611E-3
353.289413E-3
353.163528E-3
352.935791E-3
353.079414E-3
353.039932E-3
353.016472E-3
353.074837E-3
353.022194E-3
353.057098E-3
352.853966E-3
352.730370E-3
352.645683E-3
352.526665E-3
352.576447E-3
352.596474E-3
352.634239E-3
352.584457E-3
352.499199E-3
352.614212E-3
352.590752E-3
352.565002E-3
352.660561E-3
352.651978E-3
352.662849E-3
352.611923E-3
352.599335E-3
352.479744E-3
352.333260E-3
352.326393E-3
352.149010E-3
352.023125E-3
351.969910E-3
351.921272E-3
351.869202E-3
351.770782E-3
351.686668E-3
351.622581E-3
351.445770E-3
351.414871E-3
351.412582E-3
351.376534E-3
351.345634E-3
351.211166E-3
351.227188E-3
351.211739E-3
351.100159E-3
350.981712E-3
350.904465E-3
350.963974E-3
350.955963E-3
350.808334E-3
350.914192E-3
350.862122E-3
350.903320E-3
350.782013E-3
350.732803E-3
350.739670E-3
350.635529E-3
350.702477E-3
350.653839E-3
350.598907E-3
350.644684E-3
350.462151E-3
350.509644E-3
350.549126E-3
350.461006E-3
350.395775E-3
350.301361E-3
350.272179E-3
350.212097E-3
350.189209E-3
350.229836E-3
350.052452E-3
350.089073E-3
350.054741E-3
350.012398E-3
349.996948E-3
349.876785E-3
349.900246E-3
349.862480E-3
349.809265E-3
350.129700E-3
350.336838E-3
350.802612E-3
351.135063E-3
351.543045E-3
351.991653E-3
352.223396E-3
352.494049E-3
352.520943E-3
352.512360E-3
352.524376E-3
352.316093E-3
352.287483E-3
352.127266E-3
351.884651E-3
351.663780E-3
351.473808E-3
351.306152E-3
351.321602E-3
351.238632E-3
351.370811E-3
351.244926E-3
351.338768E-3
351.350212E-3
351.196289E-3
351.194572E-3
351.031494E-3
350.915909E-3
350.803757E-3
350.765419E-3
350.788307E-3
350.748825E-3
350.827789E-3
350.775146E-3
350.763702E-3
350.751686E-3
350.751686E-3
350.734520E-3
350.726509E-3
350.723648E-3
350.720787E-3
350.653267E-3
350.748253E-3
350.559998E-3
350.458145E-3
350.330544E-3
350.216675E-3
350.125694E-3
350.063896E-3
350.102234E-3
350.034142E-3
349.908829E-3
349.892235E-3
349.655342E-3
349.688530E-3
349.758911E-3
349.669075E-3
349.695969E-3
349.546051E-3
349.439049E-3
349.465370E-3
349.389267E-3
349.579239E-3
349.499702E-3
349.408722E-3
349.505424E-3
349.310303E-3
349.380684E-3
349.301147E-3
349.285126E-3
349.267960E-3
349.151802E-3
349.195290E-3
349.227333E-3
349.124336E-3
349.147797E-3
349.110603E-3
349.097443E-3
349.070549E-3
348.973274E-3
349.009895E-3
348.885155E-3
349.027061E-3
348.921204E-3
348.850250E-3
348.952675E-3
348.807907E-3
348.975563E-3
348.844528E-3
348.698616E-3
348.723793E-3
348.628235E-3
348.671722E-3
348.602486E-3
348.559570E-3
348.626518E-3
348.692894E-3
348.705482E-3
348.612785E-3
348.755264E-3
349.136925E-3
349.451637E-3
349.942589E-3
350.290489E-3
350.749397E-3
351.033783E-3
351.269531E-3
351.438332E-3
351.508141E-3
351.417732E-3
351.528740E-3
351.281548E-3
351.184845E-3
351.037788E-3
350.782013E-3
350.665855E-3
350.442696E-3
350.522804E-3
350.403214E-3
350.415802E-3
350.396919E-3
350.403786E-3
350.475883E-3
350.384331E-3
350.351715E-3
350.328827E-3
350.115395E-3
350.023270E-3
349.955177E-3
349.938583E-3
349.997520E-3
349.899673E-3
349.908257E-3
349.899101E-3
349.939156E-3
349.951744E-3
349.903107E-3
349.990654E-3
350.014687E-3
349.960899E-3
349.978065E-3
349.901962E-3
349.841309E-3
349.790382E-3
349.611855E-3
349.614143E-3
349.468803E-3
349.625015E-3
349.443054E-3
349.416161E-3
349.440765E-3
349.305153E-3
349.315453E-3
349.225616E-3
349.177551E-3
349.206161E-3
349.072838E-3
349.213028E-3
349.135780E-3
349.051666E-3
349.072266E-3
349.022484E-3
349.036789E-3
348.958969E-3
348.953247E-3
348.991585E-3
349.088287E-3
349.042511E-3
348.977852E-3
348.936081E-3
349.010468E-3
348.806190E-3
348.842812E-3
348.920059E-3
348.803329E-3
348.739815E-3
348.856544E-3
348.888016E-3
348.802757E-3
348.755836E-3
348.787308E-3
348.710632E-3
348.813057E-3
348.724937E-3
348.601913E-3
348.727798E-3
348.578453E-3
348.730087E-3
348.564720E-3
348.572731E-3
348.563576E-3
348.575020E-3
348.639107E-3
348.500633E-3
348.475456E-3
348.550415E-3
348.465157E-3
348.528099E-3
348.464584E-3
348.470306E-3
348.688316E-3
348.981857E-3
349.491692E-3
349.885941E-3
350.218391E-3
350.776863E-3
350.984001E-3
351.303291E-3
351.417732E-3
351.391411E-3
351.409721E-3
351.266098E-3
351.233482E-3
351.115608E-3
350.929642E-3
350.835228E-3
350.659561E-3
350.638390E-3
350.611496E-3
350.448990E-3
350.521088E-3
350.420380E-3
350.544548E-3
350.531960E-3
350.418091E-3
350.395775E-3
350.310516E-3
350.168610E-3
350.107956E-3
350.097084E-3
350.158882E-3
350.075340E-3
350.097656E-3
350.123405E-3
350.107956E-3
350.212097E-3
350.271606E-3
350.271034E-3
350.252151E-3
350.272179E-3
350.251579E-3
350.160599E-3
350.152016E-3
350.042725E-3
349.965477E-3
349.976921E-3
349.843597E-3
349.778938E-3
349.713707E-3
349.695969E-3
349.692535E-3
349.592972E-3
349.576950E-3
349.524879E-3
349.403572E-3
349.382401E-3
349.309158E-3
349.362373E-3
349.374962E-3
349.243927E-3
349.342918E-3
349.312592E-3
349.343491E-3
349.216461E-3
349.130058E-3
349.234200E-3
349.164391E-3
349.140358E-3
349.081993E-3
349.095154E-3
349.047089E-3
349.023628E-3
349.139786E-3
349.063110E-3
349.046516E-3
349.061966E-3
348.893738E-3
348.912621E-3
348.837662E-3
348.759270E-3
348.764420E-3
348.655701E-3
348.653412E-3
348.674583E-3
348.591042E-3
348.600769E-3
348.554420E-3
348.513794E-3
348.427391E-3
348.375893E-3
348.377609E-3
348.281479E-3
348.259735E-3
348.255730E-3
348.159027E-3
348.197937E-3
348.248291E-3
348.587036E-3
348.902893E-3
349.260521E-3
349.756622E-3
350.114822E-3
350.457001E-3
350.708199E-3
350.817490E-3
350.939941E-3
350.953674E-3
350.907326E-3
350.756836E-3
350.689888E-3
350.559998E-3
350.290489E-3
350.087357E-3
349.950027E-3
349.791527E-3
349.885941E-3
349.836159E-3
349.826431E-3
349.920273E-3
349.867058E-3
349.961472E-3
349.786377E-3
349.652481E-3
349.478531E-3
349.429321E-3
349.430466E-3
349.443626E-3
349.423599E-3
349.416733E-3
349.384689E-3
349.507713E-3
349.405289E-3
349.556351E-3
349.505997E-3
349.501419E-3
349.631310E-3
349.555779E-3
349.584389E-3
349.489975E-3
349.381828E-3
349.421883E-3
349.197578E-3
349.119759E-3
349.062538E-3
348.902893E-3
348.969841E-3
348.934937E-3
348.842239E-3
348.777580E-3
348.589325E-3
348.586464E-3
348.552132E-3
348.613930E-3
348.564720E-3
348.469162E-3
348.474884E-3
348.383904E-3
348.318672E-3
348.344421E-3
348.276329E-3
348.324394E-3
348.295212E-3
348.306656E-3
348.367882E-3
348.270035E-3
348.241997E-3
348.115540E-3
348.114967E-3
348.116684E-3
348.066330E-3
348.120117E-3
348.130417E-3
348.141861E-3
348.137856E-3
348.098373E-3
348.167038E-3
347.981071E-3
348.040581E-3
348.043442E-3
347.936440E-3
347.994804E-3
347.919273E-3
347.887230E-3
347.916412E-3
347.812843E-3
347.945595E-3
347.717285E-3
347.751045E-3
347.684097E-3
347.655487E-3
347.732735E-3
347.624588E-3
347.701836E-3
347.870064E-3
348.171616E-3
348.550415E-3
348.835373E-3
349.266815E-3
349.703979E-3
350.097084E-3
350.539970E-3
350.736237E-3
350.786591E-3
350.915909E-3
350.759125E-3
350.688744E-3
350.529671E-3
350.418091E-3
350.238991E-3
350.087929E-3
350.111961E-3
349.966049E-3
350.013542E-3
350.098228E-3
350.011826E-3
350.072479E-3
350.059319E-3
350.055313E-3
350.070763E-3
350.017548E-3
349.985504E-3
349.739456E-3
349.715996E-3
349.718857E-3
349.662209E-3
349.781799E-3
349.694824E-3
349.649048E-3
349.715996E-3
349.654198E-3
349.756050E-3
349.706268E-3
349.728584E-3
349.788666E-3
349.758339E-3
349.724579E-3
349.606133E-3
349.496841E-3
349.450493E-3
349.340630E-3
349.247360E-3
349.241638E-3
349.183846E-3
349.134636E-3
349.020195E-3
348.944664E-3
348.924065E-3
348.888016E-3
348.885155E-3
348.782158E-3
348.789024E-3
348.723793E-3
348.692322E-3
348.738670E-3
348.741531E-3
348.779869E-3
348.668861E-3
348.699188E-3
348.736382E-3
348.618507E-3
348.696899E-3
348.652840E-3
348.662567E-3
348.600197E-3
348.537827E-3
348.608208E-3
348.602486E-3
348.550415E-3
348.631096E-3
348.462868E-3
348.571014E-3
348.539543E-3
348.599625E-3
348.538971E-3
348.496056E-3
348.534393E-3
348.482895E-3
348.396492E-3
348.460579E-3
348.314667E-3
348.375320E-3
348.326683E-3
348.337555E-3
348.365021E-3
348.246574E-3
348.294067E-3
348.222542E-3
348.251152E-3
348.306084E-3
348.170471E-3
348.216820E-3
348.262596E-3
348.542976E-3
348.880577E-3
349.282837E-3
349.784660E-3
350.261307E-3
350.688171E-3
351.137352E-3
351.387405E-3
351.485252E-3
351.565933E-3
351.550484E-3
351.541328E-3
351.313591E-3
351.291847E-3
351.043510E-3
350.794029E-3
350.839806E-3
350.756264E-3
350.770569E-3
350.787735E-3
350.788879E-3
350.923920E-3
350.935364E-3
350.962830E-3
350.891304E-3
350.830650E-3
350.682449E-3
350.570869E-3
350.498772E-3
350.510788E-3
350.469589E-3
350.542831E-3
350.527382E-3
350.681877E-3
350.658417E-3
350.669861E-3
350.744820E-3
350.710487E-3
350.793457E-3
350.776291E-3
350.717354E-3
350.752258E-3
350.606346E-3
350.552559E-3
350.513649E-3
350.348854E-3
350.365448E-3
350.280190E-3
350.228119E-3
350.054741E-3
350.169754E-3
350.149155E-3
350.004387E-3
350.012970E-3
349.983215E-3
349.904823E-3
349.879074E-3
349.841309E-3
349.875641E-3
349.862480E-3
349.773788E-3
349.790382E-3
349.710846E-3
349.756622E-3
349.702835E-3
349.660492E-3
349.659348E-3
349.674225E-3
349.700546E-3
349.657631E-3
349.674225E-3
349.656487E-3
349.551773E-3
349.635315E-3
349.536896E-3
349.516869E-3
349.571228E-3
349.350929E-3
349.343491E-3
349.350929E-3
349.416161E-3
349.296570E-3
349.234200E-3
349.240494E-3
349.214172E-3
349.079704E-3
349.008751E-3
348.869705E-3
348.966980E-3
348.887444E-3
348.913765E-3
348.865128E-3
348.728371E-3
348.809624E-3
348.961258E-3
349.294281E-3
349.758339E-3
350.267029E-3
350.699615E-3
351.136208E-3
351.523018E-3
351.745605E-3
351.818848E-3
352.004814E-3
351.852036E-3
351.743317E-3
351.668358E-3
351.482391E-3
351.346779E-3
351.119614E-3
350.965118E-3
350.918770E-3
350.746536E-3
350.774574E-3
350.837517E-3
350.792885E-3
350.933647E-3
350.879288E-3
350.791168E-3
350.719643E-3
350.511932E-3
350.419235E-3
350.219536E-3
350.307655E-3
350.268173E-3
350.288200E-3
350.309944E-3
350.241280E-3
350.311661E-3
350.415802E-3
350.441551E-3
350.469017E-3
350.441551E-3
350.514221E-3
350.426674E-3
350.290489E-3
350.281906E-3
350.176620E-3
350.061035E-3
349.927139E-3
349.901390E-3
349.785233E-3
349.652481E-3
349.594688E-3
349.586105E-3
349.570656E-3
349.541473E-3
349.415016E-3
349.450493E-3
349.396706E-3
349.316597E-3
349.368095E-3
349.262810E-3
349.274254E-3
349.188423E-3
349.108315E-3
349.149513E-3
349.146652E-3
349.126625E-3
349.087715E-3
349.067688E-3
349.108887E-3
348.924637E-3
348.985863E-3
348.931503E-3
348.938370E-3
348.880577E-3
348.880005E-3
348.846817E-3
348.770714E-3
348.822784E-3
348.801613E-3
348.768425E-3
348.784447E-3
348.778152E-3
348.794174E-3
348.807907E-3
348.721504E-3
348.658562E-3
348.534966E-3
348.501778E-3
348.405075E-3
348.377037E-3
348.448563E-3
348.452568E-3
348.362732E-3
348.390198E-3
348.405075E-3
348.805046E-3
349.088287E-3
349.639893E-3
350.239563E-3
350.614357E-3
351.093292E-3
351.458931E-3
351.786804E-3
351.956177E-3
351.945877E-3
352.007103E-3
351.926994E-3
351.739883E-3
351.627731E-3
351.493263E-3
351.331329E-3
351.172829E-3
351.100159E-3
351.125908E-3
351.128769E-3
351.217461E-3
351.207161E-3
351.239777E-3
351.330185E-3
351.178551E-3
351.121330E-3
350.969124E-3
350.870132E-3
350.841522E-3
350.783157E-3
350.840378E-3
350.794601E-3
350.788879E-3
350.878716E-3
350.787163E-3
350.810051E-3
350.828934E-3
350.820923E-3
350.831795E-3
350.782013E-3
350.818634E-3
350.802612E-3
350.713348E-3
350.625801E-3
350.527954E-3
350.472450E-3
350.498772E-3
350.286484E-3
350.221252E-3
350.115967E-3
350.112534E-3
350.098801E-3
349.973488E-3
350.025558E-3
349.855614E-3
349.840164E-3
349.755478E-3
349.692535E-3
349.703979E-3
349.608421E-3
349.665070E-3
349.614716E-3
349.587250E-3
349.565506E-3
349.512863E-3
349.560356E-3
349.446487E-3
349.421883E-3
349.361229E-3
349.312019E-3
349.403000E-3
349.258804E-3
349.287415E-3
349.336052E-3
349.314308E-3
349.314308E-3
349.226761E-3
349.210167E-3
349.306297E-3
349.195290E-3
349.123764E-3
349.151230E-3
349.045372E-3
349.175262E-3
349.057388E-3
349.184990E-3
349.011612E-3
349.033928E-3
349.059677E-3
348.913765E-3
348.944664E-3
348.982430E-3
348.894882E-3
348.953819E-3
348.864555E-3
349.011612E-3
349.157524E-3
349.385834E-3
349.931145E-3
350.404930E-3
350.971985E-3
351.444054E-3
351.883507E-3
352.294350E-3
352.575874E-3
352.828217E-3
352.825356E-3
352.775002E-3
352.793312E-3
352.585030E-3
352.379608E-3
352.215385E-3
352.139282E-3
352.098083E-3
352.063751E-3
352.115822E-3
352.103806E-3
352.119827E-3
352.214813E-3
352.225685E-3
352.351570E-3
352.179909E-3
352.083206E-3
351.925278E-3
351.761055E-3
351.757622E-3
351.772499E-3
351.816559E-3
351.865768E-3
351.849174E-3
351.843452E-3
351.893806E-3
351.871490E-3
352.019119E-3
351.908112E-3
351.950455E-3
351.955605E-3
351.941299E-3
351.949310E-3
351.773643E-3
351.759338E-3
351.613998E-3
351.536751E-3
351.512718E-3
351.369667E-3
351.394844E-3
351.374817E-3
351.262093E-3
351.162529E-3
351.193428E-3
351.078987E-3
351.116753E-3
351.008606E-3
351.102448E-3
350.967407E-3
350.930214E-3
350.881004E-3
350.797462E-3
350.883293E-3
350.910759E-3
350.882721E-3
350.842094E-3
350.775719E-3
350.855827E-3
350.789452E-3
350.791168E-3
350.790024E-3
350.730515E-3
350.755692E-3
350.665855E-3
350.727081E-3
350.723076E-3
350.676727E-3
350.672722E-3
350.557709E-3
350.584030E-3
350.561142E-3
350.505066E-3
350.573158E-3
350.473595E-3
350.527382E-3
350.377464E-3
350.292778E-3
350.367165E-3
350.176048E-3
350.300217E-3
