Notes :


2023-10-26 ¿ÀÈÄ 10:46:20
Volts
Ch : LED 2,
347.365952E-3
343.943024E-3
341.956329E-3
340.493774E-3
341.720581E-3
342.087936E-3
344.027710E-3
346.107674E-3
347.822571E-3
350.937080E-3
352.017403E-3
353.719711E-3
355.012894E-3
355.511284E-3
357.112312E-3
356.399345E-3
356.614494E-3
356.858253E-3
356.320381E-3
357.362366E-3
356.807327E-3
357.231903E-3
357.809258E-3
357.484245E-3
358.242989E-3
356.820488E-3
356.252861E-3
355.535889E-3
353.850746E-3
354.439545E-3
353.226471E-3
353.319740E-3
353.371239E-3
352.990150E-3
354.500771E-3
354.134560E-3
354.818916E-3
355.826569E-3
356.215096E-3
357.913971E-3
357.888794E-3
358.755684E-3
359.671211E-3
359.845734E-3
361.408997E-3
360.843658E-3
361.409569E-3
362.053299E-3
361.901093E-3
362.976265E-3
362.009811E-3
362.373734E-3
362.797165E-3
361.176109E-3
362.798882E-3
362.022972E-3
362.383461E-3
362.736511E-3
362.347412E-3
363.273239E-3
362.242126E-3
362.587166E-3
362.730217E-3
362.587166E-3
363.467789E-3
362.697601E-3
362.780571E-3
363.388252E-3
363.002586E-3
364.106369E-3
363.316154E-3
363.910103E-3
364.039421E-3
363.162804E-3
364.680290E-3
364.114380E-3
364.482307E-3
364.733505E-3
364.595032E-3
365.627861E-3
364.936066E-3
365.114594E-3
365.343475E-3
365.270233E-3
366.068459E-3
365.610695E-3
366.130829E-3
366.256142E-3
365.153503E-3
366.932487E-3
366.558266E-3
367.132759E-3
367.514992E-3
367.378807E-3
368.149567E-3
367.054939E-3
365.958595E-3
363.296127E-3
359.035492E-3
354.936790E-3
349.320030E-3
344.704056E-3
340.587616E-3
337.518883E-3
336.877441E-3
336.014557E-3
337.029648E-3
338.455009E-3
340.097809E-3
343.077278E-3
344.385910E-3
346.401787E-3
348.242569E-3
349.297714E-3
350.877571E-3
350.573158E-3
350.961113E-3
351.053238E-3
350.481606E-3
351.164818E-3
350.127411E-3
350.137711E-3
350.630951E-3
351.004028E-3
352.352142E-3
351.770782E-3
351.787376E-3
351.716423E-3
351.096153E-3
351.385117E-3
349.930573E-3
349.756622E-3
349.504852E-3
349.066544E-3
349.935150E-3
349.329185E-3
350.177765E-3
350.668144E-3
350.819778E-3
352.341843E-3
352.250290E-3
353.359795E-3
354.188347E-3
354.388046E-3
356.071472E-3
355.764771E-3
356.421089E-3
357.075691E-3
356.307793E-3
358.006668E-3
357.595253E-3
357.928848E-3
358.316231E-3
356.981277E-3
358.493614E-3
358.241272E-3
358.347702E-3
358.428383E-3
358.012390E-3
358.953667E-3
358.206940E-3
358.489609E-3
358.640671E-3
357.669067E-3
359.084702E-3
358.545113E-3
358.840370E-3
359.044075E-3
358.820343E-3
359.912109E-3
359.298134E-3
359.758759E-3
360.031700E-3
359.822845E-3
360.777855E-3
360.402489E-3
360.507774E-3
360.940933E-3
360.559273E-3
361.763191E-3
361.224747E-3
361.289406E-3
361.707115E-3
361.550903E-3
362.595749E-3
362.080765E-3
362.302208E-3
362.603188E-3
362.372017E-3
363.545609E-3
363.141632E-3
363.403702E-3
363.891220E-3
363.800812E-3
365.060806E-3
364.522934E-3
364.759827E-3
364.758682E-3
363.361931E-3
362.030411E-3
357.839584E-3
353.476524E-3
348.793602E-3
342.327118E-3
339.899254E-3
336.740685E-3
335.177994E-3
335.072136E-3
335.260391E-3
337.514877E-3
338.943100E-3
340.929794E-3
342.941093E-3
344.913483E-3
347.333908E-3
348.228836E-3
349.204445E-3
350.347710E-3
349.519730E-3
350.715637E-3
350.101089E-3
349.899673E-3
350.207520E-3
349.970627E-3
351.236916E-3
351.268387E-3
351.872063E-3
352.302933E-3
351.432610E-3
352.131271E-3
351.172829E-3
350.478172E-3
350.160599E-3
348.982430E-3
349.622154E-3
348.950958E-3
349.044228E-3
349.622154E-3
349.377251E-3
350.795174E-3
351.130486E-3
351.818848E-3
352.900887E-3
352.872849E-3
354.630661E-3
355.093575E-3
355.642891E-3
356.376457E-3
356.110954E-3
357.527161E-3
357.546043E-3
357.738876E-3
358.381462E-3
357.756615E-3
358.818626E-3
358.491325E-3
358.490181E-3
358.888435E-3
358.046150E-3
358.842659E-3
358.584023E-3
358.506203E-3
358.921623E-3
358.291626E-3
359.006310E-3
358.740234E-3
358.741379E-3
359.094429E-3
358.404350E-3
359.500694E-3
359.418297E-3
359.512711E-3
359.964752E-3
358.032417E-3
360.007095E-3
360.122108E-3
360.250854E-3
360.837936E-3
360.020256E-3
361.203003E-3
361.059380E-3
361.144066E-3
361.399841E-3
360.952377E-3
362.024689E-3
361.780930E-3
362.120819E-3
362.658691E-3
361.989784E-3
363.125610E-3
363.106155E-3
363.177109E-3
363.618851E-3
363.284683E-3
364.532089E-3
364.212227E-3
364.195633E-3
363.940430E-3
362.137985E-3
360.806465E-3
357.251930E-3
352.690887E-3
348.326111E-3
343.121910E-3
340.552139E-3
338.278198E-3
337.056541E-3
337.767220E-3
338.052177E-3
340.748405E-3
342.477036E-3
344.558716E-3
346.798897E-3
348.001099E-3
350.621223E-3
351.380539E-3
351.906967E-3
352.762985E-3
352.336121E-3
353.431892E-3
353.309441E-3
353.138924E-3
353.493690E-3
353.286552E-3
354.715347E-3
354.535675E-3
354.254723E-3
354.028702E-3
352.676010E-3
352.784729E-3
351.751900E-3
350.886154E-3
350.614357E-3
349.340057E-3
350.243568E-3
350.114822E-3
350.187492E-3
351.099014E-3
351.005745E-3
352.766418E-3
353.308868E-3
353.641319E-3
354.500771E-3
354.691887E-3
356.500053E-3
356.762123E-3
356.825638E-3
357.512283E-3
357.194138E-3
358.674431E-3
358.530807E-3
358.300781E-3
358.850098E-3
358.374023E-3
359.481239E-3
359.070396E-3
358.548546E-3
358.895302E-3
358.331108E-3
359.290695E-3
358.851242E-3
358.621216E-3
358.949089E-3
358.406639E-3
359.502983E-3
359.193420E-3
359.008026E-3
359.504700E-3
359.156227E-3
360.017967E-3
359.909821E-3
359.689522E-3
360.138130E-3
359.831429E-3
360.899162E-3
360.895157E-3
360.357285E-3
361.023331E-3
360.649681E-3
361.790657E-3
361.633873E-3
361.375237E-3
361.870193E-3
361.652756E-3
362.656975E-3
362.314224E-3
362.246704E-3
363.012886E-3
362.865257E-3
363.760757E-3
363.579941E-3
363.422585E-3
364.155006E-3
364.111519E-3
364.935493E-3
364.606476E-3
362.936783E-3
360.910606E-3
356.954384E-3
353.260803E-3
347.997665E-3
342.479324E-3
338.650703E-3
335.068130E-3
334.025574E-3
333.125496E-3
333.405304E-3
334.911919E-3
336.228561E-3
339.092445E-3
340.788460E-3
342.309380E-3
344.276047E-3
345.030212E-3
346.624374E-3
346.793175E-3
346.450996E-3
346.679306E-3
345.936012E-3
346.377754E-3
345.982361E-3
345.616722E-3
346.099663E-3
346.512794E-3
347.904396E-3
348.173904E-3
347.628021E-3
347.509575E-3
346.814346E-3
346.917915E-3
346.386337E-3
345.657921E-3
345.770073E-3
345.204163E-3
345.997238E-3
346.038437E-3
345.912552E-3
346.947098E-3
346.975708E-3
348.350716E-3
348.904037E-3
349.241066E-3
349.934006E-3
350.256157E-3
351.638603E-3
352.043152E-3
352.146149E-3
352.938080E-3
352.711487E-3
353.619576E-3
354.032707E-3
353.493118E-3
354.029846E-3
353.388405E-3
354.057884E-3
354.100800E-3
353.431320E-3
353.875351E-3
353.512573E-3
354.230690E-3
354.073334E-3
353.407860E-3
354.241562E-3
353.989792E-3
354.534531E-3
354.522514E-3
354.286766E-3
354.685593E-3
354.525375E-3
355.309296E-3
355.193710E-3
354.881287E-3
355.855751E-3
355.677223E-3
356.470871E-3
356.509209E-3
356.001663E-3
356.949234E-3
356.672287E-3
357.408714E-3
357.488251E-3
357.091141E-3
357.654762E-3
357.200432E-3
357.825851E-3
357.851601E-3
357.526588E-3
358.507919E-3
358.166885E-3
359.108734E-3
359.153938E-3
358.822632E-3
359.740448E-3
359.792519E-3
360.613060E-3
360.650826E-3
359.312439E-3
359.798813E-3
358.128548E-3
356.147003E-3
352.324677E-3
347.147369E-3
343.238640E-3
337.915421E-3
334.532547E-3
332.018852E-3
330.039597E-3
330.928230E-3
331.098747E-3
333.120346E-3
334.993172E-3
335.420609E-3
339.088440E-3
340.264320E-3
342.404938E-3
343.485832E-3
343.393135E-3
344.857979E-3
344.007683E-3
344.333267E-3
344.170761E-3
343.002319E-3
344.342422E-3
343.804550E-3
344.948387E-3
345.823288E-3
345.105171E-3
346.918488E-3
346.041870E-3
346.270752E-3
345.734024E-3
344.898033E-3
345.513725E-3
344.269180E-3
344.561005E-3
344.209671E-3
344.200516E-3
345.616722E-3
345.402145E-3
346.393776E-3
346.963120E-3
346.247864E-3
348.836517E-3
348.958969E-3
349.931145E-3
350.596619E-3
350.763702E-3
352.234268E-3
352.000809E-3
352.668571E-3
352.967262E-3
352.627373E-3
353.868484E-3
353.091431E-3
353.479958E-3
353.566933E-3
353.295135E-3
354.396629E-3
353.559494E-3
353.950310E-3
354.242706E-3
353.897667E-3
354.887581E-3
354.027557E-3
354.261017E-3
354.710770E-3
354.210091E-3
355.199432E-3
354.690742E-3
355.383682E-3
355.454063E-3
355.168533E-3
356.545830E-3
355.863762E-3
356.264877E-3
356.553268E-3
356.362152E-3
357.715416E-3
357.155228E-3
357.516289E-3
357.914543E-3
357.633591E-3
358.790016E-3
357.885361E-3
358.384323E-3
358.554840E-3
358.335114E-3
359.310150E-3
358.720779E-3
359.153938E-3
359.523010E-3
359.424019E-3
360.459709E-3
359.896660E-3
360.407639E-3
360.743523E-3
360.609055E-3
361.706543E-3
361.030197E-3
361.095428E-3
360.908318E-3
359.443474E-3
357.939720E-3
353.545189E-3
349.297142E-3
344.171906E-3
339.210320E-3
336.679459E-3
333.218193E-3
332.335281E-3
332.596207E-3
333.177567E-3
335.717010E-3
336.979294E-3
339.350510E-3
341.555786E-3
342.948532E-3
345.109749E-3
345.068550E-3
346.049309E-3
346.565437E-3
346.159744E-3
346.959686E-3
345.781517E-3
345.887375E-3
346.180916E-3
346.306229E-3
347.556496E-3
347.126770E-3
347.636604E-3
347.546196E-3
346.800041E-3
346.858406E-3
345.482826E-3
344.909477E-3
344.102669E-3
342.501640E-3
344.142151E-3
343.782806E-3
344.296074E-3
345.170403E-3
345.562935E-3
346.946526E-3
346.901321E-3
347.705269E-3
348.861122E-3
349.286842E-3
350.974274E-3
350.782013E-3
351.533890E-3
351.910400E-3
352.126694E-3
353.093147E-3
352.664566E-3
353.022194E-3
353.288841E-3
352.900887E-3
353.903961E-3
353.398705E-3
353.347206E-3
353.532600E-3
353.316879E-3
354.219818E-3
353.390694E-3
353.550339E-3
353.709412E-3
353.704834E-3
354.608917E-3
354.174042E-3
354.263878E-3
354.677010E-3
354.504776E-3
355.593109E-3
355.024338E-3
355.393982E-3
355.684662E-3
354.801178E-3
356.469727E-3
356.172752E-3
356.651115E-3
357.028198E-3
356.735229E-3
357.898521E-3
357.414436E-3
357.728004E-3
357.326889E-3
357.080269E-3
358.318520E-3
357.793808E-3
357.974625E-3
358.355713E-3
358.097076E-3
359.244347E-3
358.852959E-3
359.255791E-3
359.800529E-3
359.397125E-3
360.769272E-3
360.300064E-3
360.496330E-3
360.687447E-3
359.901810E-3
359.435463E-3
356.599045E-3
353.153801E-3
348.720932E-3
343.048668E-3
339.189720E-3
334.484482E-3
331.644630E-3
330.290222E-3
329.479980E-3
331.066704E-3
331.755638E-3
333.372116E-3
335.846901E-3
336.195946E-3
339.373398E-3
340.252876E-3
341.396141E-3
342.296791E-3
340.650558E-3
342.307091E-3
342.076492E-3
341.578674E-3
341.596985E-3
340.842819E-3
341.988945E-3
341.839027E-3
342.760277E-3
343.549919E-3
343.483543E-3
344.967842E-3
344.619942E-3
344.165611E-3
344.088936E-3
342.989731E-3
343.639755E-3
342.695045E-3
342.887878E-3
343.175697E-3
342.691612E-3
344.003677E-3
344.213676E-3
344.658852E-3
345.575523E-3
345.705414E-3
347.361946E-3
347.657204E-3
348.428535E-3
349.298286E-3
349.025917E-3
350.322533E-3
350.310516E-3
350.627518E-3
351.418304E-3
350.243568E-3
351.628304E-3
351.424026E-3
351.687241E-3
351.996231E-3
350.844955E-3
352.009964E-3
351.674652E-3
351.832581E-3
352.142715E-3
351.581955E-3
352.781868E-3
352.522659E-3
352.436256E-3
352.934074E-3
352.106094E-3
353.145790E-3
353.109169E-3
353.145790E-3
353.860474E-3
353.331757E-3
354.238129E-3
354.063606E-3
354.333115E-3
354.825783E-3
354.312515E-3
355.431175E-3
355.403709E-3
355.452919E-3
355.964470E-3
355.373383E-3
356.455994E-3
356.374168E-3
356.257439E-3
356.486320E-3
355.829430E-3
356.913185E-3
356.871986E-3
356.933784E-3
357.514000E-3
356.946945E-3
358.197784E-3
357.987213E-3
358.273315E-3
358.915901E-3
358.428955E-3
359.666634E-3
359.469795E-3
359.173393E-3
358.909607E-3
356.248856E-3
354.482460E-3
349.916840E-3
344.867134E-3
340.287781E-3
334.911919E-3
332.517242E-3
330.198669E-3
329.055977E-3
329.765511E-3
329.867935E-3
332.432556E-3
334.109688E-3
335.754204E-3
337.917137E-3
338.845253E-3
341.016197E-3
341.428757E-3
341.797256E-3
342.309952E-3
341.528893E-3
342.117691E-3
341.436195E-3
340.730667E-3
341.324615E-3
341.085434E-3
342.768288E-3
343.488121E-3
343.676376E-3
344.750977E-3
344.296646E-3
345.195580E-3
344.791031E-3
343.986511E-3
344.023705E-3
343.417168E-3
344.326401E-3
344.039726E-3
343.623734E-3
344.249153E-3
344.559860E-3
346.113968E-3
346.591187E-3
346.725655E-3
347.934151E-3
348.130417E-3
349.830437E-3
350.054169E-3
350.334549E-3
351.296425E-3
351.315880E-3
352.460861E-3
352.462578E-3
352.359009E-3
352.860260E-3
352.615356E-3
353.562927E-3
353.424454E-3
353.026199E-3
353.569221E-3
353.221321E-3
354.001808E-3
354.011536E-3
353.572655E-3
354.060745E-3
353.791237E-3
354.762268E-3
354.524803E-3
354.203796E-3
354.896164E-3
354.500771E-3
355.497551E-3
355.771065E-3
355.482674E-3
355.922127E-3
355.920410E-3
356.715775E-3
356.592178E-3
356.541252E-3
357.287979E-3
357.053947E-3
358.093071E-3
358.161163E-3
357.982063E-3
358.501053E-3
358.177185E-3
359.133911E-3
358.912468E-3
358.039284E-3
358.806038E-3
358.777428E-3
359.720421E-3
359.673500E-3
358.875275E-3
359.935570E-3
359.900665E-3
360.844803E-3
361.047935E-3
361.026764E-3
361.651611E-3
361.434746E-3
362.382317E-3
362.535667E-3
362.140846E-3
362.509918E-3
361.396408E-3
360.108376E-3
356.653976E-3
351.722717E-3
347.827721E-3
342.804909E-3
339.566231E-3
336.191368E-3
334.331131E-3
333.993530E-3
334.453583E-3
336.693764E-3
338.191223E-3
339.833450E-3
342.383766E-3
343.927574E-3
346.120834E-3
347.248650E-3
347.660065E-3
348.703766E-3
348.122978E-3
348.572731E-3
348.298073E-3
347.515297E-3
347.896957E-3
347.749901E-3
349.002457E-3
349.332047E-3
349.151802E-3
349.797821E-3
349.242210E-3
349.527740E-3
348.782730E-3
346.940231E-3
347.289848E-3
346.273613E-3
346.774864E-3
346.468735E-3
346.114540E-3
347.030067E-3
347.018051E-3
348.315811E-3
348.760986E-3
349.004745E-3
350.352287E-3
350.550270E-3
351.871490E-3
352.331543E-3
352.344131E-3
353.306007E-3
353.342628E-3
354.299927E-3
354.448128E-3
353.985786E-3
354.805756E-3
354.440689E-3
355.024338E-3
355.076408E-3
354.446411E-3
355.008316E-3
354.602623E-3
354.907608E-3
354.805756E-3
354.243279E-3
355.285835E-3
354.822350E-3
355.357933E-3
355.286980E-3
354.789162E-3
355.892372E-3
355.107307E-3
355.774498E-3
355.756760E-3
355.121613E-3
356.502914E-3
355.971336E-3
356.490898E-3
356.740952E-3
356.299210E-3
357.833862E-3
357.350349E-3
357.996941E-3
358.069611E-3
357.653618E-3
358.935356E-3
358.281326E-3
358.736801E-3
358.617210E-3
358.358002E-3
359.750748E-3
359.078407E-3
359.551620E-3
359.632874E-3
359.246635E-3
360.540962E-3
360.256577E-3
360.758972E-3
361.196136E-3
359.886932E-3
361.667061E-3
361.117744E-3
360.902023E-3
359.340477E-3
356.157875E-3
353.323174E-3
347.887802E-3
343.091583E-3
338.912201E-3
334.669304E-3
333.566093E-3
331.544495E-3
331.707001E-3
332.728386E-3
