Notes :


2023-11-06 ¿ÀÈÄ 10:21:56
Volts
Ch : LED 2,
436.120605E-3
436.207581E-3
436.098289E-3
436.022186E-3
436.026192E-3
435.968971E-3
435.976982E-3
435.893440E-3
435.878563E-3
435.803032E-3
435.744667E-3
435.781860E-3
435.669708E-3
435.674858E-3
435.714912E-3
435.591888E-3
435.606194E-3
435.475731E-3
435.453987E-3
435.528374E-3
435.396767E-3
435.363007E-3
435.251999E-3
435.209084E-3
435.162163E-3
435.022545E-3
434.918404E-3
434.874344E-3
434.722137E-3
434.739304E-3
434.620857E-3
434.561920E-3
434.527016E-3
434.531021E-3
434.546471E-3
434.567642E-3
435.021400E-3
435.635376E-3
436.498260E-3
437.421227E-3
438.249779E-3
439.220238E-3
439.912033E-3
440.390968E-3
440.548897E-3
440.358353E-3
440.115738E-3
439.689445E-3
439.308929E-3
438.846016E-3
438.355064E-3
438.009453E-3
437.648964E-3
437.426949E-3
437.299919E-3
437.168884E-3
437.147713E-3
437.136841E-3
437.101364E-3
437.089348E-3
436.911392E-3
436.812973E-3
436.491966E-3
436.294556E-3
436.181259E-3
436.107445E-3
436.121750E-3
436.130905E-3
436.232758E-3
436.273384E-3
436.323738E-3
436.429596E-3
436.396980E-3
436.388397E-3
436.330032E-3
436.181259E-3
436.174393E-3
436.083412E-3
436.013603E-3
435.922623E-3
435.734940E-3
435.676003E-3
435.444260E-3
435.354424E-3
435.355568E-3
435.265160E-3
435.157585E-3
434.997368E-3
434.924698E-3
434.912109E-3
434.767914E-3
434.585381E-3
434.420013E-3
434.369659E-3
434.348488E-3
434.196281E-3
434.105873E-3
433.923912E-3
433.890724E-3
433.792877E-3
433.697891E-3
433.668709E-3
433.495331E-3
433.392334E-3
433.387756E-3
433.284760E-3
433.300209E-3
433.252144E-3
433.197212E-3
433.202934E-3
433.054161E-3
433.225822E-3
433.128548E-3
433.137703E-3
433.053017E-3
432.917404E-3
432.964325E-3
432.771492E-3
432.707405E-3
432.599831E-3
432.364655E-3
432.259369E-3
432.091713E-3
432.082558E-3
432.029915E-3
432.053947E-3
432.346344E-3
432.899094E-3
433.639526E-3
434.572792E-3
435.536957E-3
436.482239E-3
437.313080E-3
437.994003E-3
438.426018E-3
438.400841E-3
438.424873E-3
438.170815E-3
437.705612E-3
437.355423E-3
436.868477E-3
436.543465E-3
436.188698E-3
435.982132E-3
435.841942E-3
435.691452E-3
435.609055E-3
435.628510E-3
435.696602E-3
435.815620E-3
435.534668E-3
435.534668E-3
435.375023E-3
435.154152E-3
434.968185E-3
434.705544E-3
434.663200E-3
434.654045E-3
434.642029E-3
434.751320E-3
434.746170E-3
434.876633E-3
434.936142E-3
434.985352E-3
435.104942E-3
435.017395E-3
435.132408E-3
435.113525E-3
435.054016E-3
434.951019E-3
434.644318E-3
434.589386E-3
434.521294E-3
434.428596E-3
434.329605E-3
434.151649E-3
434.167099E-3
434.008026E-3
433.915901E-3
433.852386E-3
433.644676E-3
433.675575E-3
433.518219E-3
433.442688E-3
433.451271E-3
433.307076E-3
433.423233E-3
433.416367E-3
433.285904E-3
433.337975E-3
433.219528E-3
433.201790E-3
433.165741E-3
433.000374E-3
433.054161E-3
432.831573E-3
433.006668E-3
432.990646E-3
432.980347E-3
432.982063E-3
432.882500E-3
432.877350E-3
432.908821E-3
432.860756E-3
432.964897E-3
432.852745E-3
432.825851E-3
432.753754E-3
432.675934E-3
432.656479E-3
432.563210E-3
432.500267E-3
432.435036E-3
432.270813E-3
432.309723E-3
432.284546E-3
432.338333E-3
432.479668E-3
432.923126E-3
433.761406E-3
434.706688E-3
435.640526E-3
436.678505E-3
437.476730E-3
438.315582E-3
438.731575E-3
438.982773E-3
438.961029E-3
438.641167E-3
438.288689E-3
437.907028E-3
437.503624E-3
437.178612E-3
436.720848E-3
436.534309E-3
436.270523E-3
436.107445E-3
436.061096E-3
435.997009E-3
436.022186E-3
435.975838E-3
435.958099E-3
435.836792E-3
435.632515E-3
435.500336E-3
435.232544E-3
435.159874E-3
435.099792E-3
435.032272E-3
435.142136E-3
435.233688E-3
435.281181E-3
435.352707E-3
435.413933E-3
435.613060E-3
435.619354E-3
435.681725E-3
435.721779E-3
435.607910E-3
435.597610E-3
435.539246E-3
435.546684E-3
435.451126E-3
435.202217E-3
435.210800E-3
435.010529E-3
434.937859E-3
434.842873E-3
434.674644E-3
434.692955E-3
434.567642E-3
434.480667E-3
434.415436E-3
434.296417E-3
434.245491E-3
434.155083E-3
434.127045E-3
434.069824E-3
433.907890E-3
433.957672E-3
433.776855E-3
433.762550E-3
433.754539E-3
433.689308E-3
433.765984E-3
433.708763E-3
433.720207E-3
433.576012E-3
433.546829E-3
433.543396E-3
433.463860E-3
433.482170E-3
433.463860E-3
433.339119E-3
433.261299E-3
433.178329E-3
433.110809E-3
433.065605E-3
432.834435E-3
432.840729E-3
432.737160E-3
432.615852E-3
432.594681E-3
432.453918E-3
432.460213E-3
432.592964E-3
432.990646E-3
433.749962E-3
434.622002E-3
435.527229E-3
436.365509E-3
437.235260E-3
437.818336E-3
438.168526E-3
438.180542E-3
438.084412E-3
437.872696E-3
437.405777E-3
436.998940E-3
436.663055E-3
436.144066E-3
435.856247E-3
435.522079E-3
435.290337E-3
435.145569E-3
435.025978E-3
435.012245E-3
434.972191E-3
434.818840E-3
434.857750E-3
434.710121E-3
434.462357E-3
434.283829E-3
434.127617E-3
434.132195E-3
433.947372E-3
434.061241E-3
434.149361E-3
434.220314E-3
434.325027E-3
434.429169E-3
434.498405E-3
434.617424E-3
434.658051E-3
434.665489E-3
434.603119E-3
434.508133E-3
434.446335E-3
434.284401E-3
434.211159E-3
434.045792E-3
433.879852E-3
433.838081E-3
433.717918E-3
433.607483E-3
433.447266E-3
433.416939E-3
433.371162E-3
433.187485E-3
433.214378E-3
433.066177E-3
433.026123E-3
432.967758E-3
432.901955E-3
432.975197E-3
432.825851E-3
432.785797E-3
432.790375E-3
432.643318E-3
432.641602E-3
432.591248E-3
432.555199E-3
432.592392E-3
432.505989E-3
432.548904E-3
432.493401E-3
432.479668E-3
432.497978E-3
432.377815E-3
432.467079E-3
432.428169E-3
432.287979E-3
432.254219E-3
432.053375E-3
431.997871E-3
431.922913E-3
431.823921E-3
431.755257E-3
431.598473E-3
431.556129E-3
431.522942E-3
431.489182E-3
431.709480E-3
432.239342E-3
433.152580E-3
434.052086E-3
434.999084E-3
436.035919E-3
436.800385E-3
437.437248E-3
437.796593E-3
437.897873E-3
437.815475E-3
437.517357E-3
437.228966E-3
436.795235E-3
436.442184E-3
436.092567E-3
435.711479E-3
435.523224E-3
435.342979E-3
435.296631E-3
435.280037E-3
435.267448E-3
435.329819E-3
435.305214E-3
435.224533E-3
435.171318E-3
434.890366E-3
434.769058E-3
434.617424E-3
434.512711E-3
434.455490E-3
434.386826E-3
434.409142E-3
434.497261E-3
434.462929E-3
434.670639E-3
434.708977E-3
434.828568E-3
434.880638E-3
434.870911E-3
434.947014E-3
434.920692E-3
434.987640E-3
434.943008E-3
434.715271E-3
434.712982E-3
434.464073E-3
434.474945E-3
434.394264E-3
434.305000E-3
434.300423E-3
434.056664E-3
434.007454E-3
433.923340E-3
433.736801E-3
433.730507E-3
433.576584E-3
433.530807E-3
433.396912E-3
433.316803E-3
433.314514E-3
433.166885E-3
433.182335E-3
433.143425E-3
433.032990E-3
433.098793E-3
432.985497E-3
433.017540E-3
432.981491E-3
432.942009E-3
432.948303E-3
432.913971E-3
432.954025E-3
433.004951E-3
433.016396E-3
433.066177E-3
432.990074E-3
432.998085E-3
432.867622E-3
432.822418E-3
432.812691E-3
432.677078E-3
432.698822E-3
432.560349E-3
432.380104E-3
432.501984E-3
432.401848E-3
432.399559E-3
432.408714E-3
432.586098E-3
433.177185E-3
434.014893E-3
434.942436E-3
435.948944E-3
436.915398E-3
437.751961E-3
438.352203E-3
438.769341E-3
438.885498E-3
438.771629E-3
438.609695E-3
438.304138E-3
437.963676E-3
437.525368E-3
437.152863E-3
436.850739E-3
436.604118E-3
436.375237E-3
436.316872E-3
436.283684E-3
436.419868E-3
436.342049E-3
436.408424E-3
436.353493E-3
436.319733E-3
436.115456E-3
435.848808E-3
435.733795E-3
435.600471E-3
435.494041E-3
435.626221E-3
435.532951E-3
435.708618E-3
435.748100E-3
435.803604E-3
435.973549E-3
435.972404E-3
436.108017E-3
436.187553E-3
435.978127E-3
435.990715E-3
435.879707E-3
435.817909E-3
435.753250E-3
435.622215E-3
435.491753E-3
435.443687E-3
435.397339E-3
435.235405E-3
435.081482E-3
435.040855E-3
434.965897E-3
434.866905E-3
434.732437E-3
434.516716E-3
434.600830E-3
434.515572E-3
434.444618E-3
434.283829E-3
434.140778E-3
434.145927E-3
434.040070E-3
433.918190E-3
433.987999E-3
433.827209E-3
433.794022E-3
433.801460E-3
433.888435E-3
433.824921E-3
433.727074E-3
433.738518E-3
433.636093E-3
433.669853E-3
433.661270E-3
433.557701E-3
433.646393E-3
433.546829E-3
433.442688E-3
433.448410E-3
433.313942E-3
433.244133E-3
433.034706E-3
433.055305E-3
433.025551E-3
432.946014E-3
433.044434E-3
433.242416E-3
433.863258E-3
434.631157E-3
435.542679E-3
436.553192E-3
437.406349E-3
438.123894E-3
438.571930E-3
438.802528E-3
438.781929E-3
438.499832E-3
438.156509E-3
437.770844E-3
437.266159E-3
436.961746E-3
436.541176E-3
436.256790E-3
436.069107E-3
435.846519E-3
435.774994E-3
435.630798E-3
435.700035E-3
435.747528E-3
435.554123E-3
435.453987E-3
435.234261E-3
434.970474E-3
434.794235E-3
434.564781E-3
434.527588E-3
434.556770E-3
434.585953E-3
434.692955E-3
434.694099E-3
434.852028E-3
434.852028E-3
434.905815E-3
435.005379E-3
434.902382E-3
434.848595E-3
434.723282E-3
434.601974E-3
434.441185E-3
434.241486E-3
434.159088E-3
434.077263E-3
433.941650E-3
433.870697E-3
433.674431E-3
433.657265E-3
433.481026E-3
433.416939E-3
433.339119E-3
433.247566E-3
433.250427E-3
433.141136E-3
433.084488E-3
433.052444E-3
432.890511E-3
432.968903E-3
432.824707E-3
432.690239E-3
432.706833E-3
432.619858E-3
432.673073E-3
432.590675E-3
432.581520E-3
432.604408E-3
432.489395E-3
432.530594E-3
432.610130E-3
432.526588E-3
432.542610E-3
432.476234E-3
432.495689E-3
432.457352E-3
432.378387E-3
432.347488E-3
432.114601E-3
432.191849E-3
432.025337E-3
431.972122E-3
432.052803E-3
431.866837E-3
431.928635E-3
431.953239E-3
432.328033E-3
432.996941E-3
433.764839E-3
434.820557E-3
435.730934E-3
436.632729E-3
437.462425E-3
437.891579E-3
438.201141E-3
438.209152E-3
438.034058E-3
437.849236E-3
437.371445E-3
437.034988E-3
436.614418E-3
436.335182E-3
436.016464E-3
435.741234E-3
435.724640E-3
435.677147E-3
435.666275E-3
435.745239E-3
435.709763E-3
435.782433E-3
435.690880E-3
435.465431E-3
435.321808E-3
435.064316E-3
434.872055E-3
434.837723E-3
434.772491E-3
434.905815E-3
434.801674E-3
434.949875E-3
435.008240E-3
435.000801E-3
435.159874E-3
435.145569E-3
435.264587E-3
435.247421E-3
435.194778E-3
435.212517E-3
435.030556E-3
435.017967E-3
434.857750E-3
434.740448E-3
434.689522E-3
434.552193E-3
434.524155E-3
434.416008E-3
434.322739E-3
434.272957E-3
434.104729E-3
433.990860E-3
433.969116E-3
433.860970E-3
433.866692E-3
433.705330E-3
433.717346E-3
433.615494E-3
433.511925E-3
433.507919E-3
433.386612E-3
433.410645E-3
433.322525E-3
433.158875E-3
433.217239E-3
433.162880E-3
433.190918E-3
433.226967E-3
433.206940E-3
433.259583E-3
433.163452E-3
433.179474E-3
433.292198E-3
433.138847E-3
433.250427E-3
433.132553E-3
433.053017E-3
433.041573E-3
432.891083E-3
432.889366E-3
432.756042E-3
432.720566E-3
432.709122E-3
432.638741E-3
432.666206E-3
432.606125E-3
432.934570E-3
433.552551E-3
434.327316E-3
435.353279E-3
436.365509E-3
437.353706E-3
438.283539E-3
438.882065E-3
439.331818E-3
439.397621E-3
439.348412E-3
439.045143E-3
438.689232E-3
438.414574E-3
437.983131E-3
437.716484E-3
437.456131E-3
437.186623E-3
437.128258E-3
437.063599E-3
437.071037E-3
437.167168E-3
437.239838E-3
437.272453E-3
437.254715E-3
437.141418E-3
436.939430E-3
436.658478E-3
436.599541E-3
436.429596E-3
436.408997E-3
436.429596E-3
436.414146E-3
436.506271E-3
436.505127E-3
436.723709E-3
436.815262E-3
436.880493E-3
436.956024E-3
436.928558E-3
436.936569E-3
436.950302E-3
436.849594E-3
436.849022E-3
436.681366E-3
436.621857E-3
436.538315E-3
436.317444E-3
436.249352E-3
436.185837E-3
436.102867E-3
435.977554E-3
435.760689E-3
435.837936E-3
435.716629E-3
435.611916E-3
435.456276E-3
435.368729E-3
435.416222E-3
435.225677E-3
435.125542E-3
435.089493E-3
434.987068E-3
434.998512E-3
434.910965E-3
434.868050E-3
434.862900E-3
434.832001E-3
434.908676E-3
434.831429E-3
434.823418E-3
434.701538E-3
434.589958E-3
434.616280E-3
434.546471E-3
434.524727E-3
434.574509E-3
434.366226E-3
434.420586E-3
434.243202E-3
434.139633E-3
434.017181E-3
433.828354E-3
433.768845E-3
433.573723E-3
433.580589E-3
433.628082E-3
433.546829E-3
433.555984E-3
433.485603E-3
433.870697E-3
434.540749E-3
435.367584E-3
436.354065E-3
437.381172E-3
438.219452E-3
439.026833E-3
439.341545E-3
439.576149E-3
439.482880E-3
439.244270E-3
438.858604E-3
438.448906E-3
438.131905E-3
437.709618E-3
437.296486E-3
437.159157E-3
436.872482E-3
436.848450E-3
436.760330E-3
436.843300E-3
436.850739E-3
436.748886E-3
436.768913E-3
436.564064E-3
436.286545E-3
436.161804E-3
435.961533E-3
435.906601E-3
435.790443E-3
435.856247E-3
435.885429E-3
435.998726E-3
436.166954E-3
436.246490E-3
436.296844E-3
436.356354E-3
436.333466E-3
436.438751E-3
436.334038E-3
436.245918E-3
436.119461E-3
435.903168E-3
435.978127E-3
435.758972E-3
435.574722E-3
435.456848E-3
435.320663E-3
435.207939E-3
435.087776E-3
434.961891E-3
434.839439E-3
434.698105E-3
434.670067E-3
434.510422E-3
434.494400E-3
434.349632E-3
434.195709E-3
434.154510E-3
434.042358E-3
433.991432E-3
434.004021E-3
433.804893E-3
433.843803E-3
433.743668E-3
433.593178E-3
433.604622E-3
433.527946E-3
433.549690E-3
433.526802E-3
433.468437E-3
433.421516E-3
433.277321E-3
433.313370E-3
433.279037E-3
433.259583E-3
433.315086E-3
433.129692E-3
433.089066E-3
432.935143E-3
432.867050E-3
432.835007E-3
432.653618E-3
432.739449E-3
432.538033E-3
432.488251E-3
432.550621E-3
432.551765E-3
432.959175E-3
433.657837E-3
434.517860E-3
435.597610E-3
436.388397E-3
437.384605E-3
438.088417E-3
438.645744E-3
438.982773E-3
438.899803E-3
438.848877E-3
438.523293E-3
438.201714E-3
437.943649E-3
437.514496E-3
437.212372E-3
436.875916E-3
436.714554E-3
436.602974E-3
436.554909E-3
436.668777E-3
436.644745E-3
436.605835E-3
436.646461E-3
436.462784E-3
436.364365E-3
436.106300E-3
435.919189E-3
435.789871E-3
435.581589E-3
435.687447E-3
435.708618E-3
435.757256E-3
435.912323E-3
435.975838E-3
436.062241E-3
436.154938E-3
436.173820E-3
436.219025E-3
436.111450E-3
436.130333E-3
436.062241E-3
435.915756E-3
435.819626E-3
435.630226E-3
435.594749E-3
435.419655E-3
435.289192E-3
435.249710E-3
435.169601E-3
435.120964E-3
434.925842E-3
434.832001E-3
434.848595E-3
434.684372E-3
434.622574E-3
434.529877E-3
434.456062E-3
434.485245E-3
434.355354E-3
434.337044E-3
434.344482E-3
434.142494E-3
434.173965E-3
434.034348E-3
434.070969E-3
433.930779E-3
433.880424E-3
433.853531E-3
433.786011E-3
433.751106E-3
433.759117E-3
433.676720E-3
433.755684E-3
433.600616E-3
433.609200E-3
433.555984E-3
433.546829E-3
433.587456E-3
433.448410E-3
433.435249E-3
433.315659E-3
433.213234E-3
433.098793E-3
433.108521E-3
433.139420E-3
433.078194E-3
432.857323E-3
432.871628E-3
432.755470E-3
432.773781E-3
433.097076E-3
433.530235E-3
434.289551E-3
435.213661E-3
436.232185E-3
437.190628E-3
438.059807E-3
438.853455E-3
439.169884E-3
439.451408E-3
439.455986E-3
439.158440E-3
438.878059E-3
