Notes :


2023-11-10 ¿ÀÈÄ 10:24:49
Volts
Ch : LED 2,
216.689873E-3
216.946220E-3
217.700386E-3
218.918610E-3
220.624924E-3
222.596169E-3
224.948502E-3
227.108002E-3
229.071808E-3
230.794716E-3
231.519127E-3
231.730270E-3
231.381798E-3
230.771828E-3
229.928398E-3
228.890419E-3
227.875328E-3
226.935196E-3
226.043701E-3
225.543022E-3
225.050354E-3
224.806023E-3
224.664688E-3
224.604034E-3
224.662971E-3
224.705887E-3
224.793434E-3
224.716759E-3
224.543381E-3
224.162292E-3
223.629570E-3
223.354912E-3
222.954369E-3
222.756386E-3
222.824478E-3
222.633934E-3
222.726631E-3
222.810173E-3
222.968102E-3
223.041344E-3
223.043633E-3
223.060226E-3
222.910881E-3
222.771835E-3
222.605324E-3
222.442818E-3
222.225952E-3
221.843147E-3
221.652603E-3
221.250343E-3
220.964241E-3
220.711327E-3
220.460701E-3
220.188904E-3
219.968605E-3
219.724274E-3
219.554329E-3
219.340897E-3
219.259071E-3
219.085121E-3
218.974686E-3
219.034767E-3
218.879700E-3
218.864822E-3
218.796730E-3
218.637657E-3
218.508911E-3
218.329239E-3
218.196487E-3
218.208504E-3
218.058586E-3
218.087196E-3
217.985344E-3
217.901230E-3
217.866325E-3
217.762756E-3
217.822266E-3
217.793655E-3
217.724419E-3
217.643166E-3
217.483521E-3
217.482376E-3
217.401123E-3
217.230034E-3
217.187119E-3
217.145920E-3
217.156219E-3
217.037201E-3
216.934204E-3
216.907883E-3
216.792870E-3
216.661263E-3
216.529655E-3
216.399193E-3
216.232109E-3
216.043282E-3
216.027832E-3
215.957451E-3
215.802956E-3
215.889359E-3
216.282463E-3
217.067528E-3
218.376732E-3
220.167160E-3
222.302055E-3
224.501610E-3
226.593018E-3
228.371429E-3
229.505539E-3
230.007935E-3
229.858589E-3
229.443169E-3
228.563118E-3
227.610970E-3
226.589584E-3
225.525284E-3
224.667549E-3
223.952866E-3
223.346329E-3
223.033333E-3
222.783279E-3
222.789574E-3
222.806740E-3
222.896576E-3
222.909737E-3
222.847939E-3
222.795296E-3
222.403908E-3
222.074890E-3
221.651459E-3
221.345329E-3
221.248055E-3
221.217728E-3
221.324158E-3
221.383667E-3
221.504402E-3
221.772766E-3
221.958160E-3
222.078323E-3
222.127533E-3
221.987915E-3
221.982765E-3
221.767044E-3
221.587944E-3
221.310425E-3
220.948792E-3
220.642662E-3
220.212936E-3
220.057297E-3
219.790077E-3
219.585800E-3
219.473076E-3
219.280815E-3
219.128609E-3
219.015884E-3
218.809319E-3
218.530655E-3
218.507195E-3
218.444252E-3
218.389320E-3
218.330956E-3
218.298912E-3
218.282318E-3
218.150139E-3
218.124962E-3
218.010521E-3
218.000793E-3
217.930984E-3
217.920113E-3
217.900658E-3
217.866325E-3
217.941284E-3
217.876053E-3
217.921257E-3
217.943573E-3
217.794228E-3
217.824554E-3
217.694664E-3
217.710114E-3
217.655182E-3
217.670059E-3
217.594528E-3
217.533302E-3
217.469215E-3
217.460632E-3
217.445183E-3
217.405701E-3
217.216301E-3
217.051506E-3
216.891289E-3
216.708755E-3
216.667557E-3
216.522789E-3
216.467857E-3
216.493607E-3
216.669273E-3
217.241478E-3
218.215370E-3
219.798660E-3
221.733856E-3
223.800087E-3
225.894928E-3
227.737999E-3
229.175949E-3
230.019379E-3
230.336380E-3
230.176735E-3
229.544449E-3
228.616905E-3
227.715683E-3
226.775551E-3
225.938416E-3
225.046921E-3
224.360275E-3
223.988914E-3
223.619270E-3
223.476791E-3
223.326302E-3
223.422432E-3
223.509407E-3
223.496819E-3
223.337746E-3
223.039055E-3
222.548103E-3
222.195053E-3
222.043419E-3
222.000504E-3
222.012520E-3
222.176170E-3
222.375870E-3
222.586441E-3
222.855377E-3
222.996712E-3
223.130608E-3
223.191833E-3
223.075104E-3
222.961235E-3
222.791862E-3
222.461128E-3
222.203064E-3
221.962166E-3
221.582794E-3
221.218872E-3
220.955658E-3
220.740509E-3
220.392609E-3
220.296478E-3
220.067024E-3
219.895935E-3
219.653893E-3
219.433594E-3
219.267082E-3
219.158363E-3
219.041061E-3
218.956375E-3
218.907166E-3
218.860817E-3
218.847084E-3
218.757248E-3
218.770409E-3
218.663406E-3
218.722916E-3
218.570137E-3
218.559837E-3
218.565559E-3
218.381310E-3
218.431091E-3
218.300629E-3
218.343544E-3
218.401337E-3
218.377876E-3
218.460846E-3
218.296051E-3
218.206787E-3
218.176460E-3
218.097496E-3
218.068886E-3
217.992210E-3
217.961311E-3
217.871475E-3
217.798805E-3
217.871475E-3
217.733574E-3
217.551613E-3
217.494392E-3
217.311859E-3
217.196274E-3
217.106438E-3
217.060661E-3
216.944504E-3
217.033195E-3
217.352486E-3
218.084908E-3
219.406700E-3
221.318436E-3
223.313141E-3
225.575638E-3
227.767181E-3
229.645729E-3
231.008148E-3
231.676483E-3
231.963158E-3
231.507111E-3
230.732346E-3
230.017090E-3
228.988838E-3
228.176308E-3
227.320862E-3
226.677132E-3
226.147842E-3
225.742722E-3
225.512123E-3
225.539017E-3
225.525284E-3
225.609970E-3
225.593948E-3
225.646591E-3
225.532150E-3
225.179672E-3
224.769974E-3
224.308777E-3
223.783493E-3
223.477936E-3
223.357201E-3
223.180962E-3
223.106003E-3
223.181534E-3
223.311996E-3
223.324013E-3
223.534584E-3
223.611259E-3
223.575211E-3
223.511124E-3
223.331451E-3
223.184967E-3
222.858238E-3
222.537231E-3
222.105789E-3
221.775055E-3
221.463776E-3
221.213722E-3
221.002579E-3
220.759392E-3
220.528793E-3
220.372581E-3
220.200920E-3
219.973183E-3
219.845009E-3
219.734001E-3
219.570923E-3
219.368362E-3
219.358063E-3
219.257355E-3
219.052505E-3
218.987846E-3
219.086838E-3
219.021606E-3
218.847084E-3
218.746376E-3
218.793869E-3
218.691444E-3
218.691444E-3
218.546104E-3
218.445969E-3
218.347549E-3
218.292618E-3
218.306351E-3
218.231392E-3
218.307495E-3
218.242836E-3
218.228531E-3
218.190193E-3
218.140411E-3
218.100929E-3
218.000221E-3
217.856598E-3
217.754745E-3
217.650604E-3
217.448044E-3
217.380524E-3
217.311287E-3
217.217445E-3
217.105865E-3
216.866112E-3
216.841507E-3
216.707039E-3
216.746521E-3
216.810608E-3
217.196274E-3
218.056297E-3
219.351768E-3
221.157646E-3
223.338318E-3
225.486374E-3
227.604675E-3
229.343605E-3
230.486298E-3
230.978394E-3
230.946350E-3
230.478859E-3
229.629135E-3
228.667259E-3
227.659035E-3
226.639938E-3
225.942421E-3
225.318146E-3
224.848366E-3
224.670410E-3
224.424934E-3
224.388313E-3
224.434090E-3
224.459267E-3
224.446678E-3
224.321938E-3
224.063301E-3
223.473930E-3
222.951508E-3
222.516060E-3
222.023392E-3
221.931839E-3
221.737862E-3
221.743584E-3
221.788788E-3
221.843147E-3
222.039413E-3
222.188759E-3
222.175026E-3
222.216225E-3
221.967888E-3
221.902084E-3
221.745872E-3
221.562767E-3
221.311569E-3
220.943069E-3
220.566559E-3
220.259857E-3
220.081329E-3
219.675636E-3
219.406700E-3
219.258499E-3
218.970680E-3
218.833923E-3
218.630791E-3
218.536377E-3
218.496895E-3
218.360710E-3
218.201637E-3
218.021393E-3
217.862892E-3
217.902374E-3
217.716980E-3
217.696953E-3
217.608833E-3
217.586517E-3
217.529297E-3
217.478371E-3
217.450905E-3
217.543030E-3
217.386818E-3
217.471504E-3
217.355347E-3
217.330170E-3
217.354774E-3
217.245483E-3
217.262650E-3
217.164230E-3
217.195702E-3
217.114449E-3
217.065811E-3
217.072105E-3
216.976547E-3
216.943932E-3
216.810036E-3
216.748238E-3
216.644669E-3
216.517639E-3
216.368866E-3
216.117096E-3
216.049004E-3
215.978622E-3
215.920258E-3
215.888214E-3
215.927124E-3
216.174889E-3
216.791153E-3
217.920113E-3
219.397545E-3
221.547318E-3
223.604965E-3
225.606537E-3
227.265358E-3
228.422928E-3
229.009438E-3
229.024315E-3
228.606033E-3
227.842712E-3
227.051353E-3
226.095772E-3
225.081825E-3
224.372864E-3
223.678207E-3
223.217583E-3
222.911453E-3
222.681999E-3
222.707176E-3
222.742081E-3
222.813606E-3
222.759247E-3
222.491455E-3
222.212791E-3
221.745872E-3
221.332169E-3
221.047783E-3
220.925331E-3
220.938492E-3
220.911598E-3
221.201134E-3
221.451759E-3
221.610832E-3
221.813393E-3
222.009087E-3
221.938133E-3
221.958733E-3
221.852303E-3
221.685219E-3
221.492958E-3
221.149063E-3
220.927048E-3
220.580864E-3
220.458984E-3
220.020103E-3
219.668198E-3
219.530869E-3
219.284821E-3
219.145203E-3
218.909454E-3
218.853378E-3
218.721771E-3
218.531799E-3
218.570137E-3
218.424225E-3
218.420219E-3
218.301201E-3
218.152428E-3
218.136978E-3
218.063736E-3
218.099785E-3
218.091774E-3
217.960167E-3
218.018532E-3
217.976189E-3
217.929840E-3
217.898369E-3
217.822838E-3
217.793655E-3
217.777061E-3
217.771912E-3
217.695236E-3
217.696381E-3
217.636299E-3
217.637444E-3
217.643166E-3
217.640877E-3
217.606544E-3
217.508698E-3
217.488670E-3
217.326736E-3
217.191696E-3
216.995430E-3
216.870689E-3
216.679573E-3
216.688728E-3
216.503334E-3
216.505051E-3
216.480446E-3
216.527939E-3
216.828346E-3
217.401695E-3
218.431664E-3
220.097351E-3
222.047424E-3
224.109650E-3
226.250839E-3
228.073883E-3
229.466057E-3
230.312347E-3
230.504036E-3
230.127525E-3
229.434586E-3
228.622055E-3
227.665901E-3
226.832199E-3
226.040840E-3
225.275230E-3
224.847794E-3
224.570847E-3
224.449539E-3
224.385452E-3
224.343681E-3
224.542236E-3
224.457550E-3
224.443817E-3
224.162292E-3
223.702812E-3
223.216438E-3
222.651100E-3
222.364998E-3
222.145271E-3
221.969032E-3
222.094345E-3
222.150993E-3
222.350693E-3
222.550964E-3
222.597313E-3
222.594452E-3
222.488594E-3
222.411919E-3
222.382164E-3
222.190475E-3
222.031975E-3
221.824265E-3
221.503830E-3
221.199417E-3
220.834923E-3
220.436096E-3
220.158005E-3
219.869041E-3
219.643593E-3
219.365501E-3
219.268227E-3
219.062233E-3
218.999290E-3
218.989563E-3
218.722916E-3
218.707466E-3
218.552399E-3
218.478012E-3
218.384171E-3
218.197060E-3
218.210793E-3
218.079185E-3
218.062019E-3
218.130684E-3
217.947006E-3
217.967033E-3
217.824554E-3
217.902374E-3
217.796516E-3
217.810249E-3
217.761040E-3
217.587662E-3
217.532158E-3
217.467499E-3
217.330170E-3
217.400551E-3
217.353630E-3
217.396545E-3
217.372513E-3
217.262650E-3
217.234039E-3
217.291260E-3
217.122459E-3
217.080688E-3
216.880417E-3
216.782570E-3
216.570854E-3
216.371727E-3
216.384315E-3
216.194916E-3
216.372871E-3
216.239548E-3
216.156578E-3
216.347122E-3
216.939354E-3
218.028259E-3
219.590378E-3
221.518135E-3
223.614693E-3
225.793076E-3
227.818680E-3
229.314423E-3
230.288887E-3
230.595589E-3
230.332375E-3
229.753304E-3
228.956223E-3
227.999496E-3
227.084541E-3
226.308632E-3
225.620270E-3
225.146484E-3
224.802589E-3
224.664688E-3
224.694443E-3
224.706459E-3
224.851799E-3
224.942780E-3
224.949074E-3
224.732208E-3
224.379158E-3
223.786926E-3
223.219872E-3
222.713470E-3
222.386742E-3
222.027397E-3
221.824265E-3
221.818542E-3
221.809387E-3
221.928406E-3
222.039986E-3
222.176170E-3
222.156715E-3
222.211647E-3
222.030258E-3
221.892929E-3
221.690941E-3
221.464920E-3
221.155357E-3
220.778275E-3
220.573425E-3
220.204353E-3
219.893646E-3
219.586372E-3
219.388390E-3
219.239044E-3
219.015312E-3
218.770981E-3
218.638229E-3
218.430519E-3
218.302917E-3
218.243408E-3
218.045998E-3
217.952156E-3
217.861176E-3
217.857742E-3
217.734718E-3
217.623711E-3
217.634010E-3
217.478943E-3
217.443466E-3
217.392540E-3
217.386818E-3
217.326164E-3
217.206001E-3
217.070389E-3
216.996002E-3
216.935349E-3
216.950798E-3
216.873550E-3
216.775131E-3
216.687012E-3
216.588020E-3
216.474724E-3
216.442108E-3
216.394615E-3
216.287613E-3
216.119385E-3
216.077042E-3
216.014099E-3
215.879631E-3
215.874481E-3
215.802956E-3
215.666199E-3
215.516281E-3
215.285683E-3
215.158653E-3
215.051079E-3
214.890862E-3
214.792442E-3
214.758110E-3
214.772987E-3
214.787865E-3
215.372086E-3
216.568565E-3
218.084335E-3
219.979477E-3
222.031403E-3
224.191475E-3
226.039696E-3
227.422714E-3
228.230095E-3
228.416061E-3
228.104210E-3
227.441597E-3
226.667404E-3
225.806808E-3
224.868965E-3
224.125671E-3
223.473930E-3
223.006439E-3
222.627640E-3
222.343826E-3
222.370720E-3
222.413635E-3
222.611618E-3
222.653389E-3
222.696304E-3
222.603607E-3
222.156715E-3
221.756744E-3
221.174812E-3
220.696449E-3
220.390892E-3
220.204353E-3
220.105934E-3
220.187187E-3
220.162582E-3
220.464134E-3
220.487022E-3
220.578575E-3
220.639801E-3
220.586586E-3
220.493317E-3
220.227242E-3
220.124245E-3
219.898224E-3
219.439888E-3
219.225883E-3
218.873405E-3
218.649673E-3
218.359566E-3
218.158150E-3
218.100929E-3
217.882347E-3
217.716408E-3
217.695236E-3
217.372513E-3
217.226601E-3
217.134476E-3
216.946793E-3
216.945076E-3
216.756248E-3
216.660690E-3
216.645813E-3
216.563416E-3
216.573715E-3
216.535950E-3
216.525650E-3
216.366005E-3
216.265869E-3
216.337967E-3
216.207504E-3
216.230965E-3
216.151428E-3
216.100502E-3
216.122818E-3
216.027832E-3
216.086197E-3
215.927696E-3
215.914536E-3
216.062164E-3
215.877914E-3
215.826988E-3
215.766335E-3
215.634155E-3
215.626717E-3
215.461349E-3
215.480804E-3
215.392113E-3
215.349197E-3
215.273094E-3
215.091133E-3
214.892578E-3
214.728928E-3
214.723778E-3
214.631653E-3
214.628792E-3
214.513206E-3
214.373589E-3
214.887428E-3
215.878487E-3
217.283249E-3
219.122887E-3
221.174812E-3
223.100281E-3
224.905586E-3
226.231956E-3
227.189255E-3
227.338028E-3
227.070808E-3
226.551819E-3
225.708961E-3
224.795723E-3
223.930550E-3
223.270798E-3
222.592735E-3
222.057152E-3
221.700096E-3
221.442032E-3
221.348190E-3
221.421432E-3
221.411705E-3
221.495247E-3
221.365356E-3
221.089554E-3
220.773125E-3
220.346260E-3
220.048714E-3
219.780350E-3
219.645309E-3
219.668770E-3
219.690514E-3
219.972038E-3
220.156860E-3
220.341682E-3
220.496750E-3
220.484734E-3
220.477867E-3
220.493889E-3
220.399475E-3
220.180321E-3
220.033836E-3
219.776917E-3
219.392395E-3
219.087982E-3
218.839645E-3
218.450546E-3
218.201637E-3
218.009949E-3
217.766762E-3
217.762184E-3
217.591667E-3
217.446899E-3
217.325020E-3
217.199707E-3
217.086983E-3
216.969681E-3
216.898155E-3
216.754532E-3
216.527367E-3
216.537094E-3
216.497040E-3
216.526794E-3
216.503906E-3
216.455841E-3
216.434097E-3
216.300774E-3
216.309357E-3
216.168594E-3
216.134834E-3
216.042137E-3
215.974045E-3
215.983200E-3
216.016388E-3
215.877342E-3
215.888786E-3
215.915108E-3
215.931129E-3
215.810966E-3
215.711975E-3
215.706825E-3
215.552330E-3
215.560341E-3
215.518570E-3
215.505981E-3
215.378952E-3
215.213013E-3
214.992142E-3
214.853096E-3
214.779854E-3
214.735222E-3
214.632225E-3
214.587021E-3
214.552689E-3
214.890289E-3
215.790939E-3
216.971970E-3
218.769836E-3
220.675850E-3
222.774124E-3
224.907303E-3
226.678848E-3
228.074455E-3
228.558540E-3
228.674126E-3
228.306770E-3
227.536583E-3
226.762962E-3
225.874901E-3
225.001144E-3
224.261856E-3
223.666763E-3
223.380089E-3
223.152351E-3
222.971535E-3
223.118019E-3
223.175240E-3
223.258209E-3
223.307419E-3
223.288536E-3
223.232460E-3
222.735214E-3
222.145271E-3
221.495819E-3
220.978546E-3
220.598602E-3
220.314217E-3
220.231819E-3
220.314789E-3
220.385170E-3
220.437241E-3
220.448685E-3
220.591736E-3
220.537376E-3
220.545959E-3
220.430374E-3
220.240974E-3
220.049286E-3
219.729996E-3
219.475937E-3
219.180107E-3
218.918037E-3
218.550682E-3
218.332100E-3
218.039703E-3
217.819977E-3
217.513275E-3
217.326164E-3
217.187691E-3
216.901016E-3
216.888428E-3
216.736794E-3
216.696167E-3
216.679573E-3
