Notes :


2023-11-10 ¿ÀÈÄ 10:10:35
Volts
Ch : LED 2,
312.378502E-3
312.256050E-3
312.063217E-3
312.121582E-3
311.908722E-3
311.929321E-3
311.812592E-3
311.642647E-3
311.584854E-3
311.423492E-3
311.412048E-3
311.281013E-3
311.154556E-3
311.099052E-3
310.889626E-3
310.972595E-3
310.927391E-3
310.834122E-3
310.866737E-3
310.703087E-3
310.721397E-3
310.692787E-3
310.596657E-3
310.604095E-3
310.498810E-3
310.522842E-3
310.344887E-3
310.213280E-3
310.240746E-3
310.120583E-3
310.090256E-3
310.092545E-3
310.116577E-3
310.271072E-3
310.565758E-3
311.389732E-3
312.615967E-3
314.439011E-3
316.680908E-3
319.026947E-3
321.565247E-3
323.705292E-3
325.183868E-3
326.070786E-3
325.994682E-3
325.523186E-3
324.452019E-3
323.266411E-3
322.223282E-3
320.908356E-3
320.000267E-3
319.325066E-3
318.683624E-3
318.418121E-3
318.255043E-3
318.150902E-3
318.180656E-3
318.249893E-3
318.469620E-3
318.352890E-3
318.389511E-3
318.159485E-3
317.724609E-3
317.317772E-3
316.655159E-3
316.456604E-3
316.156769E-3
315.898132E-3
316.059494E-3
316.102982E-3
316.506958E-3
316.805649E-3
317.051697E-3
317.263985E-3
317.171288E-3
317.221642E-3
316.986465E-3
316.749001E-3
316.628265E-3
316.246605E-3
316.001129E-3
315.851212E-3
315.527916E-3
315.389442E-3
314.982605E-3
314.788628E-3
314.368629E-3
314.056206E-3
313.969803E-3
313.683701E-3
313.661957E-3
313.546371E-3
313.403320E-3
313.476562E-3
313.302040E-3
313.346100E-3
313.267708E-3
313.161850E-3
313.264275E-3
313.017654E-3
313.037109E-3
313.167000E-3
313.009644E-3
313.124084E-3
313.087463E-3
313.069725E-3
312.961006E-3
312.819099E-3
312.883759E-3
312.717819E-3
312.724113E-3
312.681198E-3
312.603378E-3
312.705231E-3
312.533569E-3
312.615967E-3
312.598228E-3
312.640572E-3
312.701225E-3
312.490654E-3
312.475204E-3
312.454033E-3
312.345314E-3
312.511253E-3
312.324142E-3
312.288666E-3
312.190247E-3
312.163353E-3
312.220573E-3
312.136459E-3
312.054634E-3
311.987114E-3
311.854935E-3
311.752510E-3
311.518478E-3
311.519051E-3
311.572838E-3
311.576843E-3
311.886978E-3
312.420845E-3
313.595009E-3
315.238380E-3
317.409325E-3
319.745636E-3
322.016716E-3
324.157906E-3
325.666237E-3
326.395226E-3
326.558876E-3
325.959206E-3
324.975586E-3
323.924446E-3
322.665596E-3
321.679687E-3
320.610809E-3
319.851494E-3
319.384575E-3
318.902206E-3
318.931961E-3
318.842697E-3
319.046402E-3
319.201469E-3
319.307327E-3
319.517326E-3
319.322205E-3
319.010353E-3
318.572044E-3
318.073654E-3
317.790413E-3
317.322922E-3
317.225075E-3
317.376137E-3
317.466545E-3
317.869377E-3
318.084526E-3
318.536568E-3
318.733406E-3
318.741989E-3
318.708801E-3
318.463898E-3
318.220711E-3
317.994690E-3
317.773819E-3
317.643356E-3
317.336655E-3
317.092896E-3
316.878891E-3
316.644287E-3
316.426277E-3
316.076660E-3
315.848923E-3
315.764236E-3
315.600586E-3
315.540504E-3
315.399170E-3
315.356255E-3
315.317917E-3
315.200043E-3
315.250969E-3
315.108490E-3
314.971733E-3
314.964867E-3
314.875031E-3
314.887047E-3
314.780617E-3
314.759445E-3
314.789200E-3
314.598083E-3
314.777756E-3
314.596939E-3
314.513969E-3
314.590645E-3
314.418411E-3
314.534569E-3
314.421844E-3
314.335442E-3
314.378357E-3
314.321136E-3
314.347458E-3
314.153481E-3
314.323425E-3
314.310837E-3
314.136314E-3
314.137459E-3
314.032173E-3
314.052773E-3
313.956070E-3
313.769531E-3
313.766670E-3
313.522911E-3
313.358688E-3
313.392448E-3
313.088608E-3
313.019943E-3
312.962151E-3
313.043404E-3
313.220787E-3
313.593292E-3
314.299393E-3
315.526772E-3
317.288017E-3
319.421768E-3
321.691132E-3
324.026871E-3
325.858498E-3
327.348518E-3
328.076363E-3
327.999687E-3
327.524757E-3
326.532555E-3
325.381851E-3
324.285507E-3
323.178864E-3
322.336578E-3
321.518326E-3
321.089172E-3
320.874023E-3
320.562172E-3
320.745850E-3
320.889473E-3
320.924377E-3
321.088028E-3
321.060562E-3
321.069717E-3
320.654297E-3
320.186234E-3
319.691849E-3
319.069290E-3
318.713951E-3
318.435287E-3
318.342018E-3
318.489647E-3
318.525696E-3
318.740845E-3
318.875313E-3
319.052696E-3
319.164848E-3
319.038963E-3
318.956566E-3
318.740273E-3
318.594933E-3
318.357468E-3
318.067360E-3
317.876816E-3
317.649078E-3
317.445374E-3
317.150116E-3
316.628265E-3
316.475487E-3
316.238594E-3
316.048622E-3
315.998840E-3
315.709877E-3
315.684700E-3
315.496445E-3
315.511322E-3
315.542793E-3
315.208054E-3
315.240669E-3
315.124512E-3
315.002632E-3
314.946556E-3
314.848709E-3
314.917946E-3
314.789772E-3
314.812088E-3
314.796066E-3
314.612961E-3
314.628410E-3
314.604378E-3
314.533997E-3
314.508820E-3
314.361763E-3
314.488220E-3
314.382362E-3
314.265633E-3
314.256477E-3
314.069366E-3
314.041328E-3
314.045906E-3
313.962364E-3
313.970947E-3
313.879967E-3
313.912582E-3
313.860512E-3
313.754082E-3
313.678551E-3
313.527489E-3
313.539505E-3
313.513756E-3
313.463974E-3
313.342667E-3
313.257980E-3
313.205910E-3
313.094330E-3
312.991333E-3
312.879181E-3
312.624550E-3
312.650299E-3
312.780190E-3
312.979889E-3
313.891411E-3
314.997482E-3
316.817665E-3
318.946266E-3
321.207047E-3
323.600006E-3
325.457382E-3
326.937675E-3
327.571106E-3
327.602577E-3
327.132225E-3
326.220131E-3
325.207329E-3
323.976517E-3
322.863007E-3
321.960640E-3
321.252251E-3
320.947266E-3
320.548439E-3
320.381927E-3
320.403099E-3
320.393944E-3
320.603943E-3
320.726395E-3
320.732117E-3
320.628548E-3
320.302963E-3
320.031166E-3
319.426346E-3
318.843269E-3
318.537712E-3
318.130302E-3
318.020439E-3
318.011284E-3
318.074226E-3
318.384361E-3
318.418121E-3
318.574333E-3
318.626404E-3
318.552589E-3
318.510246E-3
318.299675E-3
318.164635E-3
317.995834E-3
317.748642E-3
317.605591E-3
317.165565E-3
316.868591E-3
316.607094E-3
316.294670E-3
316.167641E-3
315.917587E-3
315.826607E-3
315.575409E-3
315.447807E-3
315.414047E-3
315.223503E-3
315.149117E-3
315.039825E-3
314.830399E-3
314.907074E-3
314.755440E-3
314.818954E-3
314.724541E-3
314.551735E-3
314.648437E-3
314.478493E-3
314.624405E-3
314.590645E-3
314.523125E-3
314.584351E-3
314.381790E-3
314.409256E-3
314.339447E-3
314.198112E-3
314.283943E-3
314.165497E-3
314.196396E-3
314.097404E-3
314.071655E-3
314.175797E-3
314.034462E-3
314.186096E-3
314.019585E-3
313.899994E-3
314.002419E-3
313.710594E-3
313.877106E-3
313.775253E-3
313.714600E-3
313.656235E-3
313.588142E-3
313.640785E-3
313.659668E-3
313.556099E-3
313.458252E-3
313.277435E-3
313.168144E-3
313.023376E-3
312.872314E-3
312.951279E-3
312.833405E-3
312.980461E-3
313.157845E-3
313.588715E-3
314.600372E-3
315.887833E-3
317.752075E-3
320.000267E-3
322.102547E-3
324.236870E-3
325.678253E-3
326.657295E-3
326.934814E-3
326.505661E-3
325.782967E-3
324.623108E-3
323.543930E-3
322.383499E-3
321.474266E-3
320.778465E-3
320.064354E-3
319.777679E-3
319.599724E-3
319.485283E-3
319.664955E-3
319.690704E-3
319.944763E-3
320.053482E-3
319.908714E-3
319.713593E-3
319.211197E-3
318.820953E-3
318.471909E-3
318.120003E-3
318.160629E-3
318.159485E-3
318.362045E-3
318.620110E-3
318.884468E-3
319.318771E-3
319.386292E-3
319.469833E-3
319.373131E-3
319.176292E-3
319.111633E-3
318.768311E-3
318.582916E-3
318.272209E-3
317.970657E-3
317.811012E-3
317.607880E-3
317.305183E-3
317.132950E-3
316.878891E-3
316.719246E-3
316.468048E-3
316.429138E-3
316.289520E-3
316.230011E-3
316.182518E-3
315.937042E-3
315.952492E-3
315.905571E-3
315.795135E-3
315.887833E-3
315.652657E-3
315.719032E-3
315.668678E-3
315.517044E-3
315.669823E-3
315.463257E-3
315.433502E-3
315.446091E-3
315.257263E-3
315.368271E-3
315.256119E-3
315.239525E-3
315.246964E-3
315.118790E-3
315.115929E-3
315.026093E-3
314.966583E-3
314.972305E-3
314.884186E-3
314.929962E-3
314.750290E-3
314.840698E-3
314.872742E-3
314.774895E-3
314.837837E-3
314.605522E-3
314.499092E-3
314.509964E-3
314.279938E-3
314.138603E-3
314.042473E-3
313.949776E-3
313.819313E-3
313.712883E-3
313.813591E-3
313.689423E-3
313.899994E-3
314.221573E-3
314.858437E-3
316.292381E-3
317.938042E-3
320.042038E-3
322.346878E-3
324.401665E-3
326.353455E-3
327.503014E-3
328.070641E-3
327.921867E-3
327.337074E-3
326.542282E-3
325.284576E-3
324.285507E-3
323.220634E-3
322.389221E-3
321.913719E-3
321.376991E-3
321.168709E-3
321.101189E-3
321.057701E-3
321.165276E-3
321.246529E-3
321.423912E-3
321.359253E-3
321.233368E-3
321.037674E-3
320.401955E-3
319.903564E-3
319.367409E-3
318.970871E-3
318.787193E-3
318.634987E-3
318.693352E-3
318.841553E-3
318.972588E-3
319.157410E-3
319.133377E-3
319.270134E-3
319.224930E-3
319.117928E-3
319.018364E-3
318.869019E-3
318.760300E-3
318.477631E-3
318.121147E-3
317.946625E-3
317.508888E-3
317.262268E-3
317.025948E-3
316.694069E-3
316.554451E-3
316.293526E-3
316.217995E-3
316.198540E-3
315.886116E-3
315.930748E-3
315.794563E-3
315.745926E-3
315.590286E-3
315.371704E-3
315.342522E-3
315.261269E-3
315.224075E-3
315.157127E-3
315.073586E-3
315.056419E-3
314.937973E-3
314.950562E-3
314.870453E-3
314.750290E-3
314.836121E-3
314.731979E-3
314.673615E-3
314.730263E-3
314.579201E-3
314.553452E-3
314.388657E-3
314.380074E-3
314.318275E-3
314.166641E-3
314.313698E-3
314.167213E-3
314.107132E-3
314.084244E-3
314.023590E-3
314.096832E-3
313.990402E-3
313.916016E-3
313.881111E-3
313.803864E-3
313.712311E-3
313.514900E-3
313.640785E-3
313.719749E-3
313.464546E-3
313.382149E-3
313.196754E-3
313.049126E-3
313.058281E-3
312.898636E-3
312.990761E-3
312.929535E-3
313.219643E-3
313.994408E-3
314.873886E-3
316.489792E-3
318.380928E-3
320.559883E-3
322.869873E-3
324.713516E-3
326.363182E-3
327.182007E-3
327.390289E-3
327.105331E-3
326.245880E-3
325.304031E-3
324.122429E-3
323.042679E-3
322.213554E-3
321.395874E-3
320.967865E-3
320.671463E-3
320.507812E-3
320.643997E-3
320.637703E-3
320.834541E-3
320.913506E-3
320.928955E-3
321.027946E-3
320.622826E-3
320.382500E-3
319.783974E-3
319.236946E-3
318.867302E-3
318.395805E-3
318.355751E-3
318.137741E-3
318.218422E-3
318.387794E-3
318.537140E-3
318.681908E-3
318.690491E-3
318.687057E-3
318.713951E-3
318.545151E-3
318.480492E-3
318.198395E-3
318.059921E-3
317.736053E-3
317.403603E-3
317.169571E-3
316.843414E-3
316.521835E-3
316.391945E-3
316.082954E-3
316.050339E-3
315.834045E-3
315.695572E-3
315.682411E-3
315.365982E-3
315.365410E-3
315.157700E-3
315.025520E-3
314.963150E-3
314.926529E-3
314.884758E-3
314.841843E-3
314.727974E-3
314.714241E-3
314.595222E-3
314.677048E-3
314.511681E-3
314.513397E-3
314.524841E-3
314.439583E-3
314.462471E-3
314.492226E-3
314.504814E-3
314.439011E-3
314.314842E-3
314.361763E-3
314.253044E-3
314.215279E-3
314.223862E-3
314.091682E-3
314.002419E-3
313.938332E-3
313.884544E-3
313.948059E-3
313.836479E-3
313.930893E-3
313.726616E-3
313.859367E-3
313.859367E-3
313.623047E-3
313.737488E-3
313.632202E-3
313.526917E-3
313.587570E-3
313.307762E-3
313.302040E-3
313.130951E-3
313.100052E-3
312.997627E-3
312.932968E-3
313.046265E-3
313.169289E-3
313.185883E-3
313.602448E-3
314.161491E-3
315.514755E-3
317.328072E-3
319.425774E-3
321.631050E-3
323.554230E-3
325.159836E-3
325.976372E-3
326.217842E-3
325.901413E-3
325.049973E-3
324.136162E-3
323.053551E-3
322.058487E-3
321.201324E-3
320.343018E-3
319.919586E-3
319.597435E-3
319.434357E-3
319.465256E-3
319.409180E-3
319.699860E-3
319.685555E-3
319.774246E-3
319.837761E-3
319.509888E-3
319.251251E-3
318.768311E-3
318.324280E-3
318.077087E-3
317.911148E-3
317.971802E-3
318.133163E-3
318.363762E-3
318.683624E-3
318.826103E-3
319.084740E-3
319.079590E-3
318.982887E-3
318.931961E-3
318.624687E-3
318.618393E-3
318.281937E-3
318.027306E-3
317.848778E-3
317.483139E-3
317.247963E-3
317.066002E-3
316.841698E-3
316.770172E-3
316.444588E-3
316.482353E-3
316.210556E-3
316.132164E-3
316.131592E-3
315.950775E-3
315.871239E-3
315.770531E-3
315.723610E-3
315.705299E-3
315.519333E-3
315.510750E-3
315.425491E-3
315.395164E-3
315.412903E-3
315.242958E-3
315.358543E-3
315.269852E-3
315.087891E-3
315.119362E-3
314.909363E-3
315.130234E-3
315.016937E-3
315.056419E-3
315.039825E-3
314.864731E-3
314.940262E-3
314.820099E-3
314.710236E-3
314.903069E-3
314.613533E-3
314.734268E-3
314.693642E-3
314.666176E-3
314.719391E-3
314.632988E-3
314.543724E-3
314.421844E-3
314.373207E-3
314.242744E-3
314.063644E-3
314.138603E-3
313.938904E-3
313.813591E-3
313.732910E-3
313.590431E-3
313.529205E-3
313.559532E-3
313.609314E-3
313.954353E-3
314.464188E-3
315.665817E-3
317.112350E-3
318.998337E-3
321.215057E-3
323.196030E-3
325.025368E-3
326.236725E-3
326.899910E-3
326.989174E-3
326.396942E-3
325.747490E-3
324.695778E-3
323.668671E-3
322.919655E-3
322.086525E-3
321.521759E-3
321.058273E-3
320.813942E-3
320.795059E-3
320.722389E-3
320.831680E-3
320.811081E-3
320.986176E-3
321.075439E-3
320.825386E-3
320.618820E-3
320.153618E-3
319.665527E-3
319.214630E-3
318.669319E-3
318.478203E-3
318.260765E-3
318.230438E-3
318.463326E-3
318.478775E-3
318.713379E-3
318.806648E-3
318.815231E-3
318.952560E-3
318.752289E-3
318.779755E-3
318.557739E-3
318.376923E-3
318.224716E-3
317.904282E-3
317.682266E-3
317.372131E-3
317.120934E-3
316.852570E-3
316.454315E-3
316.415405E-3
316.204262E-3
316.022873E-3
315.971375E-3
315.779686E-3
315.832329E-3
315.736771E-3
315.548515E-3
315.495872E-3
315.365982E-3
315.265274E-3
315.261841E-3
315.241241E-3
315.206337E-3
315.044975E-3
315.038681E-3
315.046120E-3
314.957428E-3
314.999771E-3
314.812088E-3
314.846420E-3
314.796638E-3
314.809227E-3
314.829826E-3
314.615822E-3
314.688492E-3
314.556313E-3
314.565468E-3
314.504814E-3
314.322281E-3
314.332008E-3
314.299965E-3
314.229584E-3
314.278221E-3
314.103699E-3
314.269066E-3
314.216995E-3
314.091110E-3
314.117432E-3
313.902855E-3
313.990402E-3
313.899422E-3
313.786697E-3
313.885117E-3
313.596725E-3
313.582993E-3
313.546944E-3
313.350677E-3
313.289452E-3
313.120079E-3
313.204765E-3
313.190460E-3
313.323784E-3
313.859940E-3
314.587212E-3
316.039467E-3
317.825317E-3
319.937897E-3
322.106552E-3
323.916435E-3
325.402451E-3
326.245880E-3
326.490211E-3
326.328278E-3
325.504875E-3
324.697495E-3
323.586845E-3
322.636414E-3
321.810722E-3
321.154976E-3
320.690346E-3
320.353889E-3
320.190811E-3
320.177650E-3
320.100975E-3
320.208549E-3
320.270348E-3
320.384789E-3
320.412254E-3
320.247459E-3
319.936752E-3
319.448662E-3
318.887901E-3
318.474770E-3
317.939758E-3
317.894554E-3
317.774963E-3
317.732048E-3
317.864227E-3
317.959213E-3
318.108559E-3
318.327141E-3
318.293953E-3
318.378067E-3
318.133163E-3
318.019867E-3
317.852783E-3
317.619896E-3
317.365837E-3
316.983032E-3
316.866875E-3
316.480064E-3
316.304970E-3
316.223717E-3
315.871239E-3
315.757942E-3
315.531349E-3
315.447235E-3
315.379715E-3
315.162849E-3
315.216064E-3
315.055275E-3
314.848709E-3
314.995766E-3
314.844704E-3
314.857864E-3
314.786911E-3
314.670753E-3
