Notes :


2023-11-13 ¿ÀÀü 12:49:35
Volts
Ch : LED 2,
933.591843E-3
933.662796E-3
933.627319E-3
933.440208E-3
933.583832E-3
933.468246E-3
933.459091E-3
933.019638E-3
932.575035E-3
932.165909E-3
931.735611E-3
931.630325E-3
931.527901E-3
931.520462E-3
931.713295E-3
931.721306E-3
932.034874E-3
931.906128E-3
932.062912E-3
932.128143E-3
932.028580E-3
932.379341E-3
931.838608E-3
931.599998E-3
931.427193E-3
931.004906E-3
930.668449E-3
930.389786E-3
930.021858E-3
929.834747E-3
929.568100E-3
929.349518E-3
929.108620E-3
928.907204E-3
928.684616E-3
928.398514E-3
928.472900E-3
927.818298E-3
927.857208E-3
927.786255E-3
927.626610E-3
927.525902E-3
927.484131E-3
927.293587E-3
927.250099E-3
927.161407E-3
926.822662E-3
926.897621E-3
926.854706E-3
926.700211E-3
926.616096E-3
926.731682E-3
926.629257E-3
926.644135E-3
926.585770E-3
926.300240E-3
926.338005E-3
926.311111E-3
926.229858E-3
926.288795E-3
926.088524E-3
925.827026E-3
925.638199E-3
925.526619E-3
925.293732E-3
925.015068E-3
924.852562E-3
924.683762E-3
924.623680E-3
924.573326E-3
924.563026E-3
924.976730E-3
925.927734E-3
927.402878E-3
929.199028E-3
931.196022E-3
933.082581E-3
934.490776E-3
935.379982E-3
935.974503E-3
936.219406E-3
936.371613E-3
936.191940E-3
936.063194E-3
935.974503E-3
935.585976E-3
935.388565E-3
934.955978E-3
934.703636E-3
934.335709E-3
934.184647E-3
934.268761E-3
934.269905E-3
934.189224E-3
934.307671E-3
934.142876E-3
934.159470E-3
933.824730E-3
933.605003E-3
933.083153E-3
932.484055E-3
932.316971E-3
931.974220E-3
931.846619E-3
931.919289E-3
931.948471E-3
932.005692E-3
932.563591E-3
932.518387E-3
932.158470E-3
932.280350E-3
932.399368E-3
932.348442E-3
932.113838E-3
932.037735E-3
931.696701E-3
931.678391E-3
931.252098E-3
931.052399E-3
930.758858E-3
930.471611E-3
930.408669E-3
930.232430E-3
929.870224E-3
929.704857E-3
929.667091E-3
929.413605E-3
929.280853E-3
929.114342E-3
928.926659E-3
928.823662E-3
928.812218E-3
928.623962E-3
928.579903E-3
928.505516E-3
928.345299E-3
928.316116E-3
928.131294E-3
928.125000E-3
928.064346E-3
927.918434E-3
927.400017E-3
927.648926E-3
927.807999E-3
927.784538E-3
927.722740E-3
927.806282E-3
927.679253E-3
927.696419E-3
927.657509E-3
927.117348E-3
927.325630E-3
927.175713E-3
926.799774E-3
926.700211E-3
926.490784E-3
926.192665E-3
925.982094E-3
925.746918E-3
925.475693E-3
925.320625E-3
925.200462E-3
925.079727E-3
925.051117E-3
925.130653E-3
925.116920E-3
925.692558E-3
926.776314E-3
928.138161E-3
930.286217E-3
932.225418E-3
933.983231E-3
935.110474E-3
935.865784E-3
936.434555E-3
936.581612E-3
936.487770E-3
935.980225E-3
935.836601E-3
935.671806E-3
935.077286E-3
934.833527E-3
934.475327E-3
934.167480E-3
933.930016E-3
933.627892E-3
933.899117E-3
933.765793E-3
933.654785E-3
933.651924E-3
933.542061E-3
933.271408E-3
932.941818E-3
932.361603E-3
932.138443E-3
931.627464E-3
931.601715E-3
931.447792E-3
931.378555E-3
931.668091E-3
931.661224E-3
931.934166E-3
932.392502E-3
932.219124E-3
932.244301E-3
932.042885E-3
931.998825E-3
931.761932E-3
931.482697E-3
931.225777E-3
930.764580E-3
930.822372E-3
930.346870E-3
929.882240E-3
929.616737E-3
929.319191E-3
929.251671E-3
928.962135E-3
928.917503E-3
928.669167E-3
928.748703E-3
928.420830E-3
928.119850E-3
928.100967E-3
927.891541E-3
927.698708E-3
927.578545E-3
927.375984E-3
927.256393E-3
927.178001E-3
926.976013E-3
926.973152E-3
926.830673E-3
926.747131E-3
926.675034E-3
926.511955E-3
926.446724E-3
926.344872E-3
926.436424E-3
926.236725E-3
926.054764E-3
926.031876E-3
925.960350E-3
925.766373E-3
925.682259E-3
925.560951E-3
925.328636E-3
925.117493E-3
924.960709E-3
924.658012E-3
924.276352E-3
924.054909E-3
923.774529E-3
923.511887E-3
923.462105E-3
923.202896E-3
923.193741E-3
923.505020E-3
924.333000E-3
925.600433E-3
927.163696E-3
929.335213E-3
931.292152E-3
933.051682E-3
933.625603E-3
934.066772E-3
934.417534E-3
934.463882E-3
934.496498E-3
934.337425E-3
933.971786E-3
933.869934E-3
933.213615E-3
933.012199E-3
932.888031E-3
932.528114E-3
932.455444E-3
932.446289E-3
932.234001E-3
932.293510E-3
932.232857E-3
932.542992E-3
932.262039E-3
931.947899E-3
931.745338E-3
931.093597E-3
930.710793E-3
930.368614E-3
930.033875E-3
929.977798E-3
929.960632E-3
930.057335E-3
930.134010E-3
930.117989E-3
930.331421E-3
930.360603E-3
930.480194E-3
930.081940E-3
930.327988E-3
930.293083E-3
929.902840E-3
929.719162E-3
929.402161E-3
929.144096E-3
928.903770E-3
928.539276E-3
928.082657E-3
927.916145E-3
927.749062E-3
927.634621E-3
927.271843E-3
927.222061E-3
926.986885E-3
926.860428E-3
926.671028E-3
926.724815E-3
926.492500E-3
926.100540E-3
926.013565E-3
925.924301E-3
925.787544E-3
925.654221E-3
925.609016E-3
925.482559E-3
925.498009E-3
925.238800E-3
925.171280E-3
925.166130E-3
925.025940E-3
924.878311E-3
924.739838E-3
924.768448E-3
924.641418E-3
925.136375E-3
924.759865E-3
924.534988E-3
924.447441E-3
924.293518E-3
924.151039E-3
924.200821E-3
923.993683E-3
923.998260E-3
924.077797E-3
923.859215E-3
923.518753E-3
923.203468E-3
923.128510E-3
922.864723E-3
922.661018E-3
922.745705E-3
922.243881E-3
922.158051E-3
922.151756E-3
922.597504E-3
923.469543E-3
924.862289E-3
926.842117E-3
928.875160E-3
931.156540E-3
932.469749E-3
933.151245E-3
933.722878E-3
933.885956E-3
934.003258E-3
934.113693E-3
933.932877E-3
933.856201E-3
933.215904E-3
933.126068E-3
932.917786E-3
932.862854E-3
932.622528E-3
932.637405E-3
932.412529E-3
932.369614E-3
932.316399E-3
932.611084E-3
932.445717E-3
932.340431E-3
932.302094E-3
931.914139E-3
931.675529E-3
931.253242E-3
930.935097E-3
930.543709E-3
930.010414E-3
930.103683E-3
930.095100E-3
930.039597E-3
930.199814E-3
930.317116E-3
930.381203E-3
930.428123E-3
930.536270E-3
930.916786E-3
930.510521E-3
930.315971E-3
930.063629E-3
929.754066E-3
929.598999E-3
929.310608E-3
929.132652E-3
928.838539E-3
928.618240E-3
928.356743E-3
928.172493E-3
927.972794E-3
927.834320E-3
927.500725E-3
927.466393E-3
926.852417E-3
927.113342E-3
926.912498E-3
926.856995E-3
926.508522E-3
926.221848E-3
925.995255E-3
925.926018E-3
925.862503E-3
925.851059E-3
925.595284E-3
925.499153E-3
925.481987E-3
925.284576E-3
925.274849E-3
925.165558E-3
925.187302E-3
925.047684E-3
925.013924E-3
925.016212E-3
924.736404E-3
924.715805E-3
924.471474E-3
924.405670E-3
924.319839E-3
924.189377E-3
924.180222E-3
924.320984E-3
924.101257E-3
923.852348E-3
923.713875E-3
923.583984E-3
923.385429E-3
923.246384E-3
922.995758E-3
922.704506E-3
922.955704E-3
922.551727E-3
922.227287E-3
922.141457E-3
922.043610E-3
922.065926E-3
922.153473E-3
922.696495E-3
924.000549E-3
925.747490E-3
928.039742E-3
929.974365E-3
931.672096E-3
932.702637E-3
933.365822E-3
933.828735E-3
933.456230E-3
933.612442E-3
933.682823E-3
933.520317E-3
933.342361E-3
932.946968E-3
932.599640E-3
932.246590E-3
931.915855E-3
931.736183E-3
931.609726E-3
931.643486E-3
931.678963E-3
931.613159E-3
931.575394E-3
931.504440E-3
931.308174E-3
931.191444E-3
930.762291E-3
930.247307E-3
929.960060E-3
929.608154E-3
929.476547E-3
929.259109E-3
929.519463E-3
929.550934E-3
929.598999E-3
929.933739E-3
929.897690E-3
930.001831E-3
929.896545E-3
929.835892E-3
929.722595E-3
929.414177E-3
929.114342E-3
928.714371E-3
928.589058E-3
928.222275E-3
927.889824E-3
927.675819E-3
927.265549E-3
926.997185E-3
926.772308E-3
926.489639E-3
926.366043E-3
926.085091E-3
926.030731E-3
925.802994E-3
925.487137E-3
925.528336E-3
925.218773E-3
925.079727E-3
925.005913E-3
924.769592E-3
924.563599E-3
924.453735E-3
924.242020E-3
924.081802E-3
923.877525E-3
923.862076E-3
923.682404E-3
923.702431E-3
923.492432E-3
923.292160E-3
923.196602E-3
923.082161E-3
922.998619E-3
923.003769E-3
922.868156E-3
922.803497E-3
923.121071E-3
922.708511E-3
922.416115E-3
922.257042E-3
922.236443E-3
922.012711E-3
921.833038E-3
921.557808E-3
921.323204E-3
921.017075E-3
920.716095E-3
920.534134E-3
920.456886E-3
920.140457E-3
920.162201E-3
920.183945E-3
920.694351E-3
921.774673E-3
923.757362E-3
925.469398E-3
927.457237E-3
928.964424E-3
930.164909E-3
930.875015E-3
931.419182E-3
931.589699E-3
931.650925E-3
931.690407E-3
931.372833E-3
931.357956E-3
931.046677E-3
930.762291E-3
930.511093E-3
930.292511E-3
930.270767E-3
930.043602E-3
929.829025E-3
929.847336E-3
929.747772E-3
929.890823E-3
929.715729E-3
929.572105E-3
929.474258E-3
929.416466E-3
928.886032E-3
928.441429E-3
927.944183E-3
927.699280E-3
927.499580E-3
927.496719E-3
927.449799E-3
927.527618E-3
928.225708E-3
927.941322E-3
927.807426E-3
927.840042E-3
927.874947E-3
927.852631E-3
927.647781E-3
927.532768E-3
927.371979E-3
926.969147E-3
926.812935E-3
926.367187E-3
926.225281E-3
925.902557E-3
925.526619E-3
925.372696E-3
925.019646E-3
924.782753E-3
924.209976E-3
924.185371E-3
924.132156E-3
923.939896E-3
923.877525E-3
923.676109E-3
923.670959E-3
923.458672E-3
923.341942E-3
922.998047E-3
922.887039E-3
922.671890E-3
922.630119E-3
922.502518E-3
922.394371E-3
922.388077E-3
922.305679E-3
922.212982E-3
921.964645E-3
921.921158E-3
921.838760E-3
921.685982E-3
921.722031E-3
921.586990E-3
921.434784E-3
921.056557E-3
921.067429E-3
921.146965E-3
920.989609E-3
920.892906E-3
920.793915E-3
920.705223E-3
920.658302E-3
920.494080E-3
919.947052E-3
919.931602E-3
919.746780E-3
919.832039E-3
919.434357E-3
919.331360E-3
919.159126E-3
919.008636E-3
918.734550E-3
918.197823E-3
918.697929E-3
919.190025E-3
920.392799E-3
922.109413E-3
924.022865E-3
926.334572E-3
928.324699E-3
929.474258E-3
930.808067E-3
931.055832E-3
931.210899E-3
931.301308E-3
931.095886E-3
931.150246E-3
930.825806E-3
930.627251E-3
930.383492E-3
930.302811E-3
929.866219E-3
929.687119E-3
929.359818E-3
929.322624E-3
929.212761E-3
929.275703E-3
929.403877E-3
929.370689E-3
929.310036E-3
929.125786E-3
929.084587E-3
928.629112E-3
928.257751E-3
927.881241E-3
927.512169E-3
926.996613E-3
927.083588E-3
927.210045E-3
927.357101E-3
927.392006E-3
927.532768E-3
927.572250E-3
927.748489E-3
927.770233E-3
927.870369E-3
927.703285E-3
927.516174E-3
927.266121E-3
927.124786E-3
926.815796E-3
926.610374E-3
926.222992E-3
925.958633E-3
926.170921E-3
925.567245E-3
925.342941E-3
925.052261E-3
924.999619E-3
924.681473E-3
924.552155E-3
924.446869E-3
924.185944E-3
923.766518E-3
923.823738E-3
923.626900E-3
923.460388E-3
923.401451E-3
923.278427E-3
923.150826E-3
922.992325E-3
923.147964E-3
923.054123E-3
923.071289E-3
922.847557E-3
922.770882E-3
922.797203E-3
922.651863E-3
922.754860E-3
922.571182E-3
922.376060E-3
922.381783E-3
922.204399E-3
922.321701E-3
922.286224E-3
922.092247E-3
922.179794E-3
921.978951E-3
922.196960E-3
921.960068E-3
921.708298E-3
921.722603E-3
921.477699E-3
921.422195E-3
921.105766E-3
921.065712E-3
920.917511E-3
920.810509E-3
920.663452E-3
920.429420E-3
920.132446E-3
920.051765E-3
920.063782E-3
920.095253E-3
920.306396E-3
920.904350E-3
922.530556E-3
924.090385E-3
926.111984E-3
928.261185E-3
929.988098E-3
931.348228E-3
932.068062E-3
932.483482E-3
932.732391E-3
932.727814E-3
932.617950E-3
932.208824E-3
931.941605E-3
931.323051E-3
930.535698E-3
930.072212E-3
929.637337E-3
929.389000E-3
929.213333E-3
929.156685E-3
929.022217E-3
928.964996E-3
928.840828E-3
928.852844E-3
928.596497E-3
928.603935E-3
927.984238E-3
927.723312E-3
927.294159E-3
927.125931E-3
927.109337E-3
927.060699E-3
927.125359E-3
927.195740E-3
927.629471E-3
927.642632E-3
927.774811E-3
927.805710E-3
927.786255E-3
927.629471E-3
927.571678E-3
927.297020E-3
927.203751E-3
926.773453E-3
926.551437E-3
926.350021E-3
926.070213E-3
925.631905E-3
925.464249E-3
925.127220E-3
924.837112E-3
924.625397E-3
924.205399E-3
924.108696E-3
923.728180E-3
923.749352E-3
923.488998E-3
923.419762E-3
923.309326E-3
922.998047E-3
922.891617E-3
922.765732E-3
922.655869E-3
922.404099E-3
922.206688E-3
922.164917E-3
922.028732E-3
921.857071E-3
921.712875E-3
921.582413E-3
921.724319E-3
921.413612E-3
921.366692E-3
921.201897E-3
921.081161E-3
921.070290E-3
920.894051E-3
920.775604E-3
920.691490E-3
920.661163E-3
920.662308E-3
920.485497E-3
920.230293E-3
920.107269E-3
919.883537E-3
919.683838E-3
919.253540E-3
919.229507E-3
918.986320E-3
918.803215E-3
918.647003E-3
918.565178E-3
918.586349E-3
918.815231E-3
919.743347E-3
921.352386E-3
922.969437E-3
925.113487E-3
927.232361E-3
928.762436E-3
929.894257E-3
930.335426E-3
930.829239E-3
930.929947E-3
930.749702E-3
930.754852E-3
930.448151E-3
930.405807E-3
930.056190E-3
929.651642E-3
929.435921E-3
928.967857E-3
928.731537E-3
928.594208E-3
928.333282E-3
928.474045E-3
928.316116E-3
928.419685E-3
928.298378E-3
928.156471E-3
927.951050E-3
927.569962E-3
927.551651E-3
926.948547E-3
926.485062E-3
926.366043E-3
926.303101E-3
926.287079E-3
926.386642E-3
926.457596E-3
926.632690E-3
926.809502E-3
926.866150E-3
927.004051E-3
926.982880E-3
926.907349E-3
926.750565E-3
926.468468E-3
925.861359E-3
925.764084E-3
925.641632E-3
925.214195E-3
924.977303E-3
924.744415E-3
924.414825E-3
924.266052E-3
923.856926E-3
923.828888E-3
923.569107E-3
923.299599E-3
923.203468E-3
922.944260E-3
922.737694E-3
922.612381E-3
922.463608E-3
922.416115E-3
921.728325E-3
921.788406E-3
921.772385E-3
921.695137E-3
921.723747E-3
921.556091E-3
921.445656E-3
921.461678E-3
921.261978E-3
920.948410E-3
921.021652E-3
920.957565E-3
921.017075E-3
920.843124E-3
920.747566E-3
920.660591E-3
920.720100E-3
920.631409E-3
920.746422E-3
920.598793E-3
920.368195E-3
920.178795E-3
920.107269E-3
920.014572E-3
919.953918E-3
919.701576E-3
919.457245E-3
919.711876E-3
919.356537E-3
918.924522E-3
918.663025E-3
918.514252E-3
918.300819E-3
918.210411E-3
918.561745E-3
918.807220E-3
919.961929E-3
921.508026E-3
923.492432E-3
925.802994E-3
927.675247E-3
929.009628E-3
929.825020E-3
930.510521E-3
930.626678E-3
930.549431E-3
930.550575E-3
930.403519E-3
930.061913E-3
929.910851E-3
929.562378E-3
929.142952E-3
929.017067E-3
928.604507E-3
928.486633E-3
928.252602E-3
928.282356E-3
928.261185E-3
928.133583E-3
928.252029E-3
928.173065E-3
928.510094E-3
928.071213E-3
927.499580E-3
927.200890E-3
926.712799E-3
926.499367E-3
926.331139E-3
926.284218E-3
926.368332E-3
926.369476E-3
926.552010E-3
926.649284E-3
926.803207E-3
926.746559E-3
926.786613E-3
926.738548E-3
926.694489E-3
926.558876E-3
926.549149E-3
925.999260E-3
925.773811E-3
925.499725E-3
925.156975E-3
924.794769E-3
924.613953E-3
924.271202E-3
924.155045E-3
923.824883E-3
923.682404E-3
923.429489E-3
923.361969E-3
923.105621E-3
922.876740E-3
922.790337E-3
922.853279E-3
922.569466E-3
922.458458E-3
922.196388E-3
922.199249E-3
922.013855E-3
921.991539E-3
921.906853E-3
921.727753E-3
921.700287E-3
921.521187E-3
921.514893E-3
921.387291E-3
921.223640E-3
921.196747E-3
921.017647E-3
920.848846E-3
920.836830E-3
920.436287E-3
920.649147E-3
920.409966E-3
920.454025E-3
920.318413E-3
920.295525E-3
