Notes :


2023-11-13 ¿ÀÀü 12:08:25
Volts
Ch : LED 2,
1.009364E+0
1.010956E+0
1.013288E+0
1.015497E+0
1.017668E+0
1.019597E+0
1.020825E+0
1.022086E+0
1.022273E+0
1.022233E+0
1.022003E+0
1.021534E+0
1.020917E+0
1.020332E+0
1.019765E+0
1.019508E+0
1.019036E+0
1.018749E+0
1.018502E+0
1.018353E+0
1.018439E+0
1.018542E+0
1.018536E+0
1.018601E+0
1.018480E+0
1.018403E+0
1.017969E+0
1.017525E+0
1.016664E+0
1.016075E+0
1.015579E+0
1.015104E+0
1.015071E+0
1.015100E+0
1.015049E+0
1.015300E+0
1.015280E+0
1.015372E+0
1.015303E+0
1.015403E+0
1.015232E+0
1.014906E+0
1.014706E+0
1.014511E+0
1.014271E+0
1.014007E+0
1.013485E+0
1.013319E+0
1.012882E+0
1.012440E+0
1.012266E+0
1.011932E+0
1.011710E+0
1.011388E+0
1.011069E+0
1.010788E+0
1.010405E+0
1.010245E+0
1.009949E+0
1.009828E+0
1.009464E+0
1.009078E+0
1.008980E+0
1.008887E+0
1.008667E+0
1.008531E+0
1.008418E+0
1.008225E+0
1.008030E+0
1.007886E+0
1.007791E+0
1.007679E+0
1.007674E+0
1.007632E+0
1.007528E+0
1.007496E+0
1.007276E+0
1.007411E+0
1.007350E+0
1.007266E+0
1.007364E+0
1.007316E+0
1.007271E+0
1.007160E+0
1.006763E+0
1.006796E+0
1.006420E+0
1.006213E+0
1.005887E+0
1.005470E+0
1.005271E+0
1.004893E+0
1.005016E+0
1.005007E+0
1.004692E+0
1.004739E+0
1.005062E+0
1.006092E+0
1.007704E+0
1.009588E+0
1.011810E+0
1.014004E+0
1.015714E+0
1.017238E+0
1.018109E+0
1.018809E+0
1.018997E+0
1.018903E+0
1.018447E+0
1.017858E+0
1.017462E+0
1.016844E+0
1.016383E+0
1.016305E+0
1.016344E+0
1.016511E+0
1.016726E+0
1.017040E+0
1.017315E+0
1.017355E+0
1.017799E+0
1.017886E+0
1.018021E+0
1.018040E+0
1.017712E+0
1.017499E+0
1.016916E+0
1.016953E+0
1.016614E+0
1.016437E+0
1.016734E+0
1.016779E+0
1.016840E+0
1.016931E+0
1.017076E+0
1.017332E+0
1.017511E+0
1.017500E+0
1.017379E+0
1.017042E+0
1.017019E+0
1.016611E+0
1.016261E+0
1.015966E+0
1.015625E+0
1.015447E+0
1.014954E+0
1.014646E+0
1.014360E+0
1.014149E+0
1.014102E+0
1.013634E+0
1.013559E+0
1.013487E+0
1.013203E+0
1.013295E+0
1.013106E+0
1.012940E+0
1.012883E+0
1.012581E+0
1.012503E+0
1.012296E+0
1.012167E+0
1.011963E+0
1.011786E+0
1.011818E+0
1.011418E+0
1.011242E+0
1.011028E+0
1.010627E+0
1.010701E+0
1.010215E+0
1.010078E+0
1.009857E+0
1.009654E+0
1.009418E+0
1.009082E+0
1.008875E+0
1.008665E+0
1.008400E+0
1.008325E+0
1.008211E+0
1.008023E+0
1.007827E+0
1.007465E+0
1.007425E+0
1.007134E+0
1.006949E+0
1.006868E+0
1.006706E+0
1.006714E+0
1.006444E+0
1.006584E+0
1.006988E+0
1.007857E+0
1.009375E+0
1.011196E+0
1.013200E+0
1.015107E+0
1.016869E+0
1.018361E+0
1.019299E+0
1.019824E+0
1.020046E+0
1.019867E+0
1.019546E+0
1.019063E+0
1.018579E+0
1.018137E+0
1.017490E+0
1.017265E+0
1.016955E+0
1.016671E+0
1.016425E+0
1.016228E+0
1.016132E+0
1.015993E+0
1.015800E+0
1.015524E+0
1.015037E+0
1.014392E+0
1.013621E+0
1.012915E+0
1.012290E+0
1.011863E+0
1.011817E+0
1.011776E+0
1.011802E+0
1.012079E+0
1.012157E+0
1.012363E+0
1.012409E+0
1.012348E+0
1.012016E+0
1.011650E+0
1.011407E+0
1.011027E+0
1.010679E+0
1.010417E+0
1.010022E+0
1.009812E+0
1.009631E+0
1.009468E+0
1.009276E+0
1.008977E+0
1.008927E+0
1.008774E+0
1.008790E+0
1.008741E+0
1.008549E+0
1.008621E+0
1.008281E+0
1.008182E+0
1.008059E+0
1.007756E+0
1.007688E+0
1.007413E+0
1.007364E+0
1.007329E+0
1.007005E+0
1.007128E+0
1.006914E+0
1.006751E+0
1.006740E+0
1.006403E+0
1.006491E+0
1.006166E+0
1.006064E+0
1.006068E+0
1.005836E+0
1.005679E+0
1.005571E+0
1.005558E+0
1.005567E+0
1.005180E+0
1.005147E+0
1.004720E+0
1.004450E+0
1.004151E+0
1.003905E+0
1.003779E+0
1.003491E+0
1.003526E+0
1.003515E+0
1.003449E+0
1.003548E+0
1.003644E+0
1.004128E+0
1.005241E+0
1.006756E+0
1.008877E+0
1.011096E+0
1.013459E+0
1.015375E+0
1.016758E+0
1.018152E+0
1.018654E+0
1.018854E+0
1.018668E+0
1.018153E+0
1.017868E+0
1.017146E+0
1.016598E+0
1.016154E+0
1.015552E+0
1.015320E+0
1.014956E+0
1.014812E+0
1.014952E+0
1.014766E+0
1.014871E+0
1.014901E+0
1.014879E+0
1.014542E+0
1.014102E+0
1.013579E+0
1.012969E+0
1.012204E+0
1.011763E+0
1.011349E+0
1.011296E+0
1.011382E+0
1.011447E+0
1.011593E+0
1.011807E+0
1.012013E+0
1.012102E+0
1.012113E+0
1.012188E+0
1.012016E+0
1.012016E+0
1.011741E+0
1.011541E+0
1.011332E+0
1.010976E+0
1.010781E+0
1.010445E+0
1.010216E+0
1.009972E+0
1.009732E+0
1.009626E+0
1.009475E+0
1.009022E+0
1.008892E+0
1.008541E+0
1.008463E+0
1.008048E+0
1.007729E+0
1.007533E+0
1.007222E+0
1.007311E+0
1.006875E+0
1.006800E+0
1.006965E+0
1.006654E+0
1.006858E+0
1.006795E+0
1.006575E+0
1.006499E+0
1.006215E+0
1.006112E+0
1.005890E+0
1.005723E+0
1.005733E+0
1.005494E+0
1.005581E+0
1.005444E+0
1.005517E+0
1.005482E+0
1.005299E+0
1.005228E+0
1.005076E+0
1.004926E+0
1.005009E+0
1.004746E+0
1.004621E+0
1.004546E+0
1.004309E+0
1.004254E+0
1.004038E+0
1.004011E+0
1.003884E+0
1.003907E+0
1.004216E+0
1.004643E+0
1.005898E+0
1.007597E+0
1.009788E+0
1.012127E+0
1.014316E+0
1.016198E+0
1.017671E+0
1.018690E+0
1.019245E+0
1.019022E+0
1.018829E+0
1.018387E+0
1.017681E+0
1.017092E+0
1.016415E+0
1.015940E+0
1.015546E+0
1.015128E+0
1.014985E+0
1.014818E+0
1.014843E+0
1.014934E+0
1.014903E+0
1.014970E+0
1.014841E+0
1.014511E+0
1.014104E+0
1.013628E+0
1.013042E+0
1.012272E+0
1.012246E+0
1.011896E+0
1.011710E+0
1.011823E+0
1.012001E+0
1.012116E+0
1.012307E+0
1.012303E+0
1.012501E+0
1.012437E+0
1.012461E+0
1.012355E+0
1.012195E+0
1.012109E+0
1.011914E+0
1.011974E+0
1.011716E+0
1.011438E+0
1.011445E+0
1.011023E+0
1.010839E+0
1.010645E+0
1.010488E+0
1.010443E+0
1.010279E+0
1.010112E+0
1.009834E+0
1.009534E+0
1.009254E+0
1.008957E+0
1.008655E+0
1.008484E+0
1.008342E+0
1.008163E+0
1.007912E+0
1.007848E+0
1.007470E+0
1.007229E+0
1.007193E+0
1.006824E+0
1.006669E+0
1.006543E+0
1.006329E+0
1.006383E+0
1.006230E+0
1.006151E+0
1.006141E+0
1.005805E+0
1.005768E+0
1.005608E+0
1.005556E+0
1.005489E+0
1.005287E+0
1.005270E+0
1.005099E+0
1.004870E+0
1.004579E+0
1.004528E+0
1.004573E+0
1.004448E+0
1.004465E+0
1.004549E+0
1.004616E+0
1.005016E+0
1.005856E+0
1.007441E+0
1.009323E+0
1.011238E+0
1.013381E+0
1.015192E+0
1.016494E+0
1.017545E+0
1.017959E+0
1.018154E+0
1.017829E+0
1.017428E+0
1.016824E+0
1.016053E+0
1.015364E+0
1.014531E+0
1.013853E+0
1.013338E+0
1.012905E+0
1.012868E+0
1.012592E+0
1.012656E+0
1.012682E+0
1.012522E+0
1.012431E+0
1.011788E+0
1.011159E+0
1.010664E+0
1.010087E+0
1.009903E+0
1.009601E+0
1.009672E+0
1.009834E+0
1.009937E+0
1.010307E+0
1.010584E+0
1.010629E+0
1.010734E+0
1.010702E+0
1.010596E+0
1.010281E+0
1.010223E+0
1.010121E+0
1.009826E+0
1.009700E+0
1.009349E+0
1.009307E+0
1.009116E+0
1.008622E+0
1.008619E+0
1.008379E+0
1.008195E+0
1.008056E+0
1.007791E+0
1.007743E+0
1.007665E+0
1.007514E+0
1.007511E+0
1.007379E+0
1.007141E+0
1.006851E+0
1.006468E+0
1.006264E+0
1.005972E+0
1.005938E+0
1.005692E+0
1.005573E+0
1.005429E+0
1.005208E+0
1.005103E+0
1.005023E+0
1.005173E+0
1.005021E+0
1.004891E+0
1.004797E+0
1.004771E+0
1.004529E+0
1.004644E+0
1.004386E+0
1.004347E+0
1.004220E+0
1.004216E+0
1.004104E+0
1.003889E+0
1.003763E+0
1.003574E+0
1.003349E+0
1.003075E+0
1.002767E+0
1.002555E+0
1.002270E+0
1.002201E+0
1.002462E+0
1.002999E+0
1.004151E+0
1.005872E+0
1.007893E+0
1.010302E+0
1.012410E+0
1.014426E+0
1.015948E+0
1.016908E+0
1.017634E+0
1.017467E+0
1.017332E+0
1.016918E+0
1.016272E+0
1.015512E+0
1.014743E+0
1.014342E+0
1.013763E+0
1.013451E+0
1.013608E+0
1.013221E+0
1.013359E+0
1.013509E+0
1.013600E+0
1.013703E+0
1.013647E+0
1.013511E+0
1.013173E+0
1.012729E+0
1.012079E+0
1.011357E+0
1.010945E+0
1.010640E+0
1.010575E+0
1.010589E+0
1.010441E+0
1.010658E+0
1.010764E+0
1.010974E+0
1.011123E+0
1.010930E+0
1.011027E+0
1.010803E+0
1.010625E+0
1.010565E+0
1.010198E+0
1.009979E+0
1.009679E+0
1.009703E+0
1.009505E+0
1.009182E+0
1.009103E+0
1.008818E+0
1.008605E+0
1.008518E+0
1.008258E+0
1.008049E+0
1.007774E+0
1.007703E+0
1.007371E+0
1.007095E+0
1.007028E+0
1.006845E+0
1.006641E+0
1.006608E+0
1.006292E+0
1.006273E+0
1.005978E+0
1.005868E+0
1.005682E+0
1.005561E+0
1.005461E+0
1.005508E+0
1.005509E+0
1.005390E+0
1.005266E+0
1.005330E+0
1.005124E+0
1.005172E+0
1.005145E+0
1.004878E+0
1.004992E+0
1.004862E+0
1.004794E+0
1.004741E+0
1.004597E+0
1.004610E+0
1.004616E+0
1.004395E+0
1.004438E+0
1.004190E+0
1.004273E+0
1.004079E+0
1.003893E+0
1.004093E+0
1.003946E+0
1.004630E+0
1.005738E+0
1.007591E+0
1.009657E+0
1.011808E+0
1.014190E+0
1.015905E+0
1.017338E+0
1.018352E+0
1.018712E+0
1.018892E+0
1.018466E+0
1.018045E+0
1.017275E+0
1.016481E+0
1.015809E+0
1.015188E+0
1.014668E+0
1.014548E+0
1.014199E+0
1.014207E+0
1.014058E+0
1.013961E+0
1.013873E+0
1.013646E+0
1.013510E+0
1.013115E+0
1.012851E+0
1.012348E+0
1.011545E+0
1.011268E+0
1.010687E+0
1.010362E+0
1.010512E+0
1.010494E+0
1.010808E+0
1.010850E+0
1.010988E+0
1.011211E+0
1.011196E+0
1.011476E+0
1.011409E+0
1.011230E+0
1.011404E+0
1.011182E+0
1.011124E+0
1.010759E+0
1.010526E+0
1.010262E+0
1.009922E+0
1.009698E+0
1.009462E+0
1.009232E+0
1.009214E+0
1.008961E+0
1.008936E+0
1.008859E+0
1.008722E+0
1.008650E+0
1.008234E+0
1.008333E+0
1.007989E+0
1.007695E+0
1.007652E+0
1.007415E+0
1.007526E+0
1.007412E+0
1.007425E+0
1.007350E+0
1.007197E+0
1.007170E+0
1.007096E+0
1.006819E+0
1.006811E+0
1.006415E+0
1.006363E+0
1.006215E+0
1.005919E+0
1.005923E+0
1.005799E+0
1.005707E+0
1.005532E+0
1.005270E+0
1.005402E+0
1.005108E+0
1.004757E+0
1.004398E+0
1.004125E+0
1.004093E+0
1.003681E+0
1.003510E+0
1.003429E+0
1.003431E+0
1.004121E+0
1.004969E+0
1.006801E+0
1.008804E+0
1.010835E+0
1.013124E+0
1.014801E+0
1.016306E+0
1.016990E+0
1.017193E+0
1.017316E+0
1.016849E+0
1.016301E+0
1.015516E+0
1.014876E+0
1.014276E+0
1.013540E+0
1.013145E+0
1.012982E+0
1.012634E+0
1.012728E+0
1.012642E+0
1.012537E+0
1.012675E+0
1.012463E+0
1.012253E+0
1.011731E+0
1.011134E+0
1.010439E+0
1.009783E+0
1.009604E+0
1.009323E+0
1.009431E+0
1.009585E+0
1.009864E+0
1.010181E+0
1.010516E+0
1.010728E+0
1.010897E+0
1.010752E+0
1.010532E+0
1.010317E+0
1.010033E+0
1.009827E+0
1.009547E+0
1.009475E+0
1.009142E+0
1.009066E+0
1.008789E+0
1.008674E+0
1.008517E+0
1.008208E+0
1.008143E+0
1.007894E+0
1.007699E+0
1.007628E+0
1.007304E+0
1.007196E+0
1.007033E+0
1.006725E+0
1.006673E+0
1.006391E+0
1.006290E+0
1.006058E+0
1.005876E+0
1.005791E+0
1.005528E+0
1.005358E+0
1.005206E+0
1.004984E+0
1.004806E+0
1.004586E+0
1.004317E+0
1.004150E+0
1.003813E+0
1.003750E+0
1.003548E+0
1.003704E+0
1.003606E+0
1.003642E+0
1.003729E+0
1.003425E+0
1.003376E+0
1.003316E+0
1.003071E+0
1.003017E+0
1.002810E+0
1.002667E+0
1.002683E+0
1.002385E+0
1.002297E+0
1.001966E+0
1.001877E+0
1.001866E+0
1.001892E+0
1.002355E+0
1.003170E+0
1.004772E+0
1.006799E+0
1.009048E+0
1.011506E+0
1.013651E+0
1.015509E+0
1.016662E+0
1.017335E+0
1.017602E+0
1.017342E+0
1.016896E+0
1.016379E+0
1.015643E+0
1.015156E+0
1.014474E+0
1.014041E+0
1.013815E+0
1.013481E+0
1.013543E+0
1.013366E+0
1.013513E+0
1.013574E+0
1.013481E+0
1.013626E+0
1.013392E+0
1.013113E+0
1.012636E+0
1.011876E+0
1.011385E+0
1.010734E+0
1.010381E+0
1.010161E+0
1.010074E+0
1.010222E+0
1.010295E+0
1.010537E+0
1.010910E+0
1.010928E+0
1.011132E+0
1.011096E+0
1.011091E+0
1.010950E+0
1.010683E+0
1.010638E+0
1.010261E+0
1.010090E+0
1.009865E+0
1.009404E+0
1.009269E+0
1.009043E+0
1.008864E+0
1.008574E+0
1.008334E+0
1.008326E+0
1.008008E+0
1.007897E+0
1.007647E+0
1.007383E+0
1.007217E+0
1.006823E+0
1.006677E+0
1.006530E+0
1.006334E+0
1.006272E+0
1.006058E+0
1.005853E+0
1.005723E+0
1.005499E+0
1.005458E+0
1.005376E+0
1.005208E+0
1.005248E+0
1.005216E+0
1.005142E+0
1.005026E+0
1.005015E+0
1.004903E+0
1.004660E+0
1.004701E+0
1.004393E+0
1.004514E+0
1.004494E+0
1.004437E+0
1.004410E+0
1.004397E+0
1.004199E+0
1.003944E+0
1.003753E+0
1.003508E+0
1.003271E+0
1.003073E+0
1.002959E+0
1.002802E+0
1.002792E+0
1.002775E+0
1.002931E+0
1.003330E+0
1.004013E+0
1.005461E+0
1.007205E+0
1.009464E+0
1.011716E+0
1.013698E+0
1.015562E+0
1.016905E+0
1.017750E+0
1.018155E+0
1.017931E+0
1.017587E+0
1.017103E+0
1.016400E+0
1.015678E+0
1.014929E+0
1.014520E+0
1.014133E+0
1.013942E+0
1.013937E+0
1.013896E+0
1.013992E+0
1.013984E+0
1.013974E+0
1.013925E+0
1.013810E+0
1.013660E+0
1.012946E+0
1.012187E+0
1.011479E+0
1.010834E+0
1.010604E+0
1.010466E+0
1.010499E+0
1.010853E+0
1.010950E+0
1.011158E+0
1.011235E+0
1.011312E+0
1.011369E+0
1.011179E+0
1.011132E+0
1.010969E+0
1.010773E+0
1.010540E+0
1.010232E+0
1.010216E+0
1.009973E+0
1.009747E+0
1.009632E+0
1.009463E+0
1.009436E+0
1.009205E+0
1.008959E+0
1.008719E+0
1.008406E+0
1.008175E+0
1.007891E+0
1.007667E+0
1.007403E+0
1.007053E+0
1.007016E+0
1.006678E+0
1.006419E+0
1.006388E+0
1.006063E+0
1.006106E+0
1.005805E+0
1.005592E+0
