Notes :


2023-10-22 ¿ÀÀü 9:51:37
Volts
Ch : LED 2,
230.691719E-3
228.469849E-3
230.176735E-3
231.084251E-3
229.325294E-3
233.564758E-3
230.089760E-3
231.277084E-3
232.014084E-3
230.148697E-3
233.843422E-3
230.252266E-3
232.359695E-3
233.013725E-3
230.533218E-3
234.171867E-3
230.586433E-3
233.183098E-3
232.756805E-3
230.500603E-3
234.544945E-3
230.608749E-3
232.173729E-3
232.674980E-3
229.784203E-3
234.379578E-3
230.738640E-3
231.684494E-3
232.054138E-3
229.872894E-3
234.325790E-3
231.063080E-3
233.274078E-3
233.196831E-3
231.225586E-3
235.367203E-3
231.846428E-3
233.083534E-3
234.104919E-3
232.180023E-3
236.343956E-3
232.321930E-3
233.303261E-3
233.352470E-3
230.634499E-3
233.537865E-3
228.289604E-3
227.164078E-3
226.318932E-3
222.871399E-3
225.700951E-3
221.010017E-3
222.164154E-3
222.677422E-3
219.799805E-3
225.143623E-3
221.882057E-3
224.888992E-3
226.066017E-3
223.286819E-3
228.655243E-3
225.702667E-3
227.535439E-3
228.263283E-3
226.132965E-3
230.154419E-3
226.804161E-3
228.943062E-3
229.741287E-3
227.410126E-3
231.667900E-3
227.681351E-3
228.637505E-3
229.170227E-3
224.410629E-3
229.478073E-3
225.469208E-3
226.938629E-3
227.183533E-3
223.453903E-3
228.601456E-3
224.857521E-3
226.705170E-3
227.181244E-3
225.777054E-3
230.425072E-3
226.426506E-3
228.509903E-3
229.315567E-3
225.243187E-3
231.142044E-3
227.446747E-3
229.831123E-3
230.881691E-3
228.769112E-3
233.312416E-3
229.046631E-3
231.380653E-3
231.777763E-3
229.882622E-3
234.304047E-3
229.543304E-3
231.103134E-3
230.861092E-3
229.872894E-3
234.115791E-3
229.672050E-3
230.870819E-3
231.482506E-3
229.688072E-3
233.445168E-3
229.409981E-3
230.656242E-3
231.250763E-3
227.578354E-3
233.192253E-3
229.198265E-3
231.836128E-3
232.535362E-3
230.691719E-3
234.921455E-3
231.005859E-3
233.188248E-3
233.671188E-3
231.893921E-3
236.202049E-3
231.917953E-3
233.422852E-3
232.441521E-3
229.700089E-3
232.519913E-3
226.457977E-3
226.364708E-3
224.568558E-3
221.850014E-3
225.290680E-3
220.268440E-3
222.241974E-3
222.838211E-3
221.774483E-3
226.316071E-3
222.046280E-3
225.361633E-3
225.903511E-3
222.805595E-3
228.530502E-3
224.820328E-3
226.833916E-3
227.386665E-3
225.240898E-3
230.317497E-3
226.345825E-3
229.003716E-3
228.650665E-3
227.776337E-3
232.123947E-3
227.735138E-3
229.415131E-3
228.951073E-3
226.243401E-3
230.399323E-3
225.593376E-3
226.941490E-3
226.795578E-3
225.033760E-3
229.173660E-3
225.019455E-3
227.233887E-3
227.377510E-3
226.135826E-3
230.142403E-3
225.981331E-3
228.564262E-3
228.888130E-3
227.765465E-3
231.995201E-3
228.350830E-3
230.793571E-3
230.748367E-3
228.829193E-3
233.207130E-3
229.107857E-3
230.993843E-3
230.857658E-3
229.264641E-3
233.599091E-3
229.364204E-3
231.601524E-3
231.299400E-3
230.105782E-3
233.950424E-3
229.400253E-3
231.603813E-3
230.861664E-3
228.211784E-3
233.237457E-3
228.872108E-3
231.309128E-3
230.915451E-3
229.525566E-3
234.475708E-3
229.674339E-3
230.935478E-3
231.517410E-3
230.014801E-3
234.583855E-3
230.402756E-3
232.541656E-3
232.858658E-3
231.314850E-3
235.905647E-3
231.369209E-3
233.264351E-3
232.038689E-3
227.160072E-3
231.531143E-3
225.953865E-3
225.953293E-3
224.498177E-3
222.052574E-3
224.998856E-3
220.271301E-3
221.598816E-3
221.949577E-3
220.749092E-3
225.485229E-3
221.659470E-3
224.372292E-3
223.890495E-3
223.614120E-3
228.216362E-3
224.295044E-3
226.419640E-3
226.585579E-3
225.029755E-3
229.366493E-3
224.806595E-3
227.110291E-3
227.392960E-3
224.507904E-3
229.970741E-3
226.001358E-3
228.069305E-3
227.282524E-3
224.810600E-3
229.171371E-3
224.481010E-3
227.073669E-3
226.395607E-3
224.627495E-3
228.746223E-3
224.267578E-3
226.665115E-3
226.205635E-3
225.514412E-3
229.616547E-3
225.518417E-3
228.136253E-3
228.515625E-3
227.197838E-3
232.166290E-3
227.187538E-3
230.028534E-3
229.609680E-3
227.235603E-3
231.991768E-3
228.123093E-3
229.943848E-3
229.469490E-3
228.865814E-3
232.969093E-3
227.941132E-3
230.275726E-3
229.828262E-3
228.690720E-3
232.612610E-3
228.228378E-3
230.312920E-3
230.200195E-3
228.915596E-3
232.649231E-3
227.886772E-3
229.885483E-3
229.736710E-3
227.184677E-3
232.925606E-3
228.074455E-3
230.779839E-3
230.711746E-3
229.618835E-3
233.451462E-3
229.184532E-3
231.792068E-3
231.561470E-3
229.678345E-3
234.528923E-3
230.164719E-3
232.699013E-3
231.726265E-3
230.263138E-3
233.881187E-3
227.434731E-3
228.075027E-3
225.757027E-3
222.960663E-3
225.399399E-3
219.911957E-3
221.553040E-3
221.338463E-3
220.436668E-3
224.519348E-3
220.186043E-3
223.029900E-3
223.937988E-3
222.547531E-3
227.250481E-3
222.608185E-3
225.066376E-3
225.042343E-3
224.771690E-3
228.748512E-3
223.509979E-3
226.598167E-3
226.670837E-3
225.523567E-3
230.348969E-3
225.424576E-3
227.784920E-3
227.440453E-3
226.102066E-3
229.332161E-3
223.702240E-3
225.933838E-3
225.679207E-3
223.614120E-3
227.783203E-3
222.451401E-3
225.098991E-3
225.012016E-3
223.777199E-3
228.077316E-3
223.630714E-3
226.484871E-3
226.833916E-3
225.827408E-3
230.203056E-3
225.575066E-3
228.091621E-3
227.926826E-3
226.826477E-3
231.245041E-3
226.775551E-3
229.709244E-3
229.504395E-3
226.140404E-3
231.585503E-3
227.462769E-3
229.680634E-3
229.348755E-3
227.816963E-3
231.724548E-3
227.007294E-3
229.833412E-3
230.005646E-3
228.013229E-3
232.056999E-3
226.610184E-3
230.323219E-3
229.652596E-3
226.590729E-3
231.912231E-3
226.781273E-3
229.108429E-3
229.594803E-3
228.281593E-3
232.771683E-3
228.568840E-3
231.849289E-3
231.838989E-3
230.179024E-3
234.282875E-3
229.244041E-3
232.159996E-3
231.132317E-3
229.117584E-3
232.427788E-3
225.387383E-3
226.674843E-3
224.298477E-3
221.241188E-3
225.121880E-3
219.527435E-3
222.054863E-3
221.189690E-3
220.548248E-3
225.081253E-3
220.692444E-3
223.604393E-3
223.985481E-3
222.778130E-3
227.946854E-3
223.402405E-3
226.693726E-3
226.052856E-3
224.886703E-3
229.508972E-3
224.717331E-3
227.398682E-3
227.219582E-3
226.487160E-3
230.633926E-3
225.972748E-3
227.974319E-3
227.157211E-3
225.719261E-3
229.528427E-3
224.210930E-3
226.461411E-3
225.750160E-3
224.179459E-3
228.255272E-3
223.307419E-3
226.551819E-3
226.361275E-3
225.034332E-3
229.674911E-3
225.397110E-3
227.901077E-3
227.462769E-3
226.835060E-3
231.252480E-3
226.399612E-3
229.222298E-3
229.164505E-3
228.254700E-3
232.597160E-3
227.503967E-3
230.310631E-3
229.951859E-3
227.808380E-3
232.889557E-3
227.976036E-3
230.694008E-3
229.811668E-3
228.372002E-3
232.970810E-3
228.593445E-3
231.209564E-3
230.642509E-3
228.866386E-3
233.504677E-3
228.643799E-3
231.123734E-3
229.966164E-3
228.272438E-3
232.289886E-3
227.985191E-3
230.983543E-3
230.492020E-3
229.248047E-3
234.310341E-3
229.264641E-3
232.309341E-3
231.493378E-3
229.161072E-3
233.890915E-3
230.258560E-3
232.510185E-3
231.628418E-3
229.959869E-3
232.918739E-3
226.090622E-3
226.997566E-3
224.854660E-3
222.060013E-3
225.053787E-3
219.570923E-3
221.560478E-3
220.532799E-3
218.369865E-3
224.191475E-3
219.987488E-3
223.199844E-3
223.077393E-3
222.603607E-3
227.241898E-3
222.401619E-3
225.249481E-3
224.596596E-3
223.663902E-3
227.903366E-3
223.588371E-3
225.627136E-3
225.622559E-3
224.261856E-3
229.190254E-3
224.858093E-3
227.113724E-3
226.431084E-3
225.128174E-3
228.723907E-3
223.848152E-3
226.365280E-3
225.391960E-3
223.612404E-3
227.243042E-3
222.375298E-3
224.701309E-3
224.604607E-3
223.448181E-3
228.714180E-3
223.688507E-3
226.807022E-3
226.766396E-3
225.742722E-3
230.033112E-3
225.920105E-3
228.511047E-3
227.982903E-3
226.817894E-3
231.029320E-3
226.726341E-3
229.467773E-3
229.206848E-3
227.978897E-3
231.928253E-3
227.856445E-3
229.857445E-3
229.060364E-3
226.219368E-3
231.212997E-3
226.837921E-3
229.888916E-3
228.985405E-3
228.222084E-3
232.174301E-3
226.958084E-3
229.772758E-3
229.027176E-3
227.719688E-3
232.490730E-3
227.210999E-3
229.844284E-3
229.666328E-3
228.304482E-3
232.688141E-3
228.470421E-3
231.223869E-3
230.430222E-3
229.504967E-3
233.996201E-3
229.519272E-3
232.031250E-3
231.334305E-3
229.629135E-3
233.431435E-3
227.402687E-3
228.766251E-3
226.354408E-3
223.061371E-3
225.626564E-3
219.883919E-3
221.446037E-3
220.397186E-3
218.894005E-3
223.686218E-3
219.260788E-3
222.902870E-3
222.549248E-3
221.400833E-3
225.673485E-3
221.620560E-3
224.352264E-3
224.269867E-3
223.325729E-3
227.090836E-3
222.967529E-3
225.753593E-3
225.567055E-3
224.066162E-3
228.825188E-3
224.014664E-3
227.210999E-3
226.413345E-3
224.925041E-3
228.307343E-3
223.334885E-3
226.095772E-3
224.791718E-3
220.865250E-3
226.624489E-3
221.927834E-3
224.862671E-3
224.197197E-3
222.553825E-3
226.876831E-3
223.144341E-3
225.938988E-3
225.516701E-3
224.745941E-3
228.899002E-3
225.124168E-3
227.778053E-3
227.562904E-3
223.978043E-3
229.246330E-3
225.711250E-3
228.298187E-3
228.208923E-3
227.165222E-3
231.028748E-3
226.740074E-3
229.646301E-3
229.507256E-3
228.005219E-3
231.310844E-3
226.551819E-3
228.698158E-3
229.332161E-3
227.377510E-3
231.235313E-3
227.120018E-3
229.678917E-3
228.291321E-3
226.610756E-3
230.667686E-3
226.698303E-3
229.693794E-3
229.384232E-3
228.013229E-3
231.998634E-3
227.855301E-3
230.725479E-3
229.792786E-3
228.961372E-3
232.512474E-3
228.561974E-3
231.354332E-3
231.063080E-3
227.611542E-3
232.441521E-3
227.059937E-3
229.181099E-3
227.089691E-3
223.405838E-3
225.888634E-3
219.963455E-3
221.591949E-3
220.969963E-3
217.362213E-3
222.163582E-3
219.105148E-3
222.211075E-3
222.058296E-3
221.251488E-3
225.408554E-3
221.724701E-3
224.604607E-3
224.049568E-3
223.459625E-3
227.514839E-3
223.638725E-3
226.633644E-3
226.217651E-3
224.802589E-3
228.802299E-3
225.480652E-3
228.004646E-3
227.214432E-3
225.739861E-3
228.805161E-3
224.544525E-3
226.322365E-3
225.526428E-3
223.476219E-3
226.745224E-3
222.351837E-3
225.266075E-3
225.456047E-3
223.687363E-3
227.858734E-3
224.404907E-3
226.710892E-3
226.625061E-3
225.403404E-3
229.348183E-3
225.167656E-3
229.150772E-3
228.111649E-3
227.136612E-3
230.437088E-3
227.045631E-3
229.916954E-3
229.363632E-3
227.565765E-3
231.045341E-3
227.312279E-3
230.172157E-3
230.133820E-3
228.118515E-3
231.883621E-3
228.028679E-3
230.575562E-3
229.232025E-3
227.849007E-3
231.881332E-3
227.627563E-3
230.282593E-3
229.267502E-3
227.783775E-3
231.962585E-3
227.946281E-3
230.590439E-3
229.971886E-3
228.512764E-3
232.553673E-3
228.535080E-3
231.608963E-3
231.242180E-3
230.116653E-3
234.197044E-3
230.056000E-3
231.874466E-3
231.412697E-3
229.959297E-3
233.033752E-3
227.429581E-3
227.622414E-3
225.683212E-3
222.488594E-3
225.008583E-3
220.211220E-3
222.009087E-3
220.781708E-3
219.017601E-3
223.151779E-3
219.645309E-3
222.780418E-3
222.267723E-3
221.086693E-3
225.515556E-3
222.067451E-3
224.990845E-3
224.558258E-3
222.843933E-3
226.771545E-3
223.410988E-3
225.831413E-3
224.829483E-3
223.901939E-3
227.942276E-3
224.794006E-3
227.117729E-3
226.602173E-3
224.764824E-3
228.529358E-3
224.219513E-3
226.240540E-3
225.136757E-3
222.088623E-3
226.585007E-3
222.528076E-3
225.064087E-3
224.342537E-3
222.956657E-3
226.161003E-3
223.031044E-3
226.410484E-3
226.539230E-3
224.864960E-3
228.959656E-3
224.684715E-3
228.659821E-3
227.664757E-3
226.471138E-3
230.310631E-3
225.805664E-3
228.964806E-3
228.793144E-3
225.250626E-3
230.304909E-3
226.867104E-3
229.644585E-3
229.007721E-3
227.578926E-3
231.260490E-3
227.319145E-3
229.499817E-3
228.958511E-3
227.400970E-3
231.118011E-3
227.095985E-3
229.319572E-3
229.089546E-3
227.227020E-3
231.003571E-3
227.216721E-3
229.760742E-3
229.220009E-3
227.643585E-3
231.409836E-3
227.633858E-3
230.026817E-3
229.373932E-3
228.597450E-3
232.283592E-3
228.502464E-3
231.648445E-3
230.803871E-3
229.499817E-3
233.053207E-3
228.969955E-3
231.070518E-3
228.606033E-3
225.642014E-3
228.062439E-3
222.214508E-3
223.253059E-3
220.722198E-3
218.654251E-3
222.334099E-3
217.955017E-3
220.450401E-3
220.270729E-3
217.794800E-3
223.478508E-3
220.440674E-3
223.503685E-3
222.664261E-3
221.562767E-3
225.987053E-3
222.241974E-3
224.898720E-3
223.973465E-3
222.613907E-3
226.408195E-3
223.012733E-3
226.038551E-3
225.425720E-3
224.261284E-3
227.998352E-3
223.928261E-3
226.851082E-3
224.927902E-3
223.144341E-3
226.193047E-3
222.453117E-3
224.919319E-3
223.760033E-3
222.165871E-3
226.325226E-3
222.201347E-3
224.946785E-3
224.367714E-3
222.953224E-3
227.584076E-3
223.772049E-3
226.617622E-3
225.890923E-3
224.402046E-3
228.461838E-3
224.886703E-3
228.086472E-3
227.233315E-3
225.786209E-3
230.064583E-3
226.160431E-3
228.979111E-3
227.750015E-3
226.467705E-3
230.244827E-3
226.815033E-3
229.250336E-3
228.013802E-3
226.407623E-3
230.085182E-3
226.657677E-3
229.798508E-3
228.393173E-3
226.572418E-3
230.494881E-3
226.480293E-3
228.851509E-3
228.424072E-3
227.087975E-3
230.550385E-3
227.076530E-3
229.810524E-3
228.627777E-3
227.493095E-3
231.653595E-3
227.763176E-3
230.405617E-3
229.815674E-3
228.466988E-3
232.192039E-3
228.594589E-3
232.123375E-3
230.837631E-3
227.392387E-3
232.134247E-3
228.459549E-3
230.380440E-3
227.057648E-3
224.321938E-3
226.438522E-3
220.957947E-3
222.525215E-3
221.198845E-3
218.850517E-3
222.022247E-3
218.114662E-3
221.269798E-3
221.336746E-3
220.383453E-3
224.447250E-3
221.184540E-3
224.203491E-3
223.600960E-3
223.028755E-3
226.216507E-3
223.191833E-3
225.834274E-3
225.290680E-3
221.932411E-3
226.946068E-3
223.739433E-3
226.381874E-3
226.180458E-3
224.558830E-3
228.395462E-3
224.042702E-3
226.434517E-3
225.262642E-3
223.492241E-3
226.748657E-3
222.556114E-3
224.971962E-3
223.867607E-3
222.713470E-3
226.617050E-3
223.011589E-3
225.867462E-3
225.687790E-3
224.808884E-3
228.659821E-3
224.697304E-3
227.810097E-3
227.066803E-3
225.769043E-3
230.375290E-3
226.714897E-3
229.606247E-3
229.173660E-3
226.853371E-3
231.107712E-3
226.670265E-3
229.316139E-3
229.205704E-3
227.528000E-3
231.147766E-3
227.457619E-3
230.073166E-3
229.131889E-3
225.824547E-3
231.088829E-3
227.113152E-3
230.283165E-3
229.414558E-3
227.683640E-3
231.762886E-3
227.569199E-3
230.562401E-3
229.866028E-3
227.601242E-3
231.487083E-3
227.490234E-3
230.949211E-3
230.254555E-3
228.659248E-3
232.728195E-3
229.015160E-3
232.146835E-3
231.617546E-3
230.492592E-3
234.155846E-3
229.118729E-3
231.632996E-3
230.494308E-3
225.157928E-3
228.808594E-3
223.805237E-3
224.910164E-3
222.133255E-3
219.915390E-3
222.664833E-3
218.350410E-3
221.174812E-3
220.670128E-3
217.723274E-3
223.456764E-3
220.310211E-3
223.290825E-3
223.056793E-3
221.714401E-3
226.090050E-3
222.371292E-3
225.377655E-3
224.245262E-3
223.201561E-3
226.887703E-3
223.340034E-3
225.977898E-3
225.654602E-3
224.438095E-3
228.706169E-3
224.611473E-3
227.331734E-3
225.667763E-3
223.550034E-3
227.268219E-3
223.258781E-3
225.533295E-3
224.130249E-3
