Notes :


2023-10-21 ¿ÀÈÄ 11:00:06
Volts
Ch : LED 2,
301.742935E-3
300.948143E-3
300.868607E-3
300.118446E-3
299.498749E-3
299.291611E-3
298.906517E-3
299.321938E-3
299.022102E-3
298.859024E-3
298.924255E-3
298.651314E-3
299.025536E-3
298.595810E-3
298.280525E-3
298.264503E-3
298.064232E-3
298.611832E-3
298.451042E-3
298.420715E-3
298.723984E-3
298.655891E-3
299.267006E-3
299.159431E-3
299.087334E-3
299.160004E-3
298.546600E-3
299.199486E-3
298.877907E-3
298.512840E-3
298.330307E-3
297.704315E-3
298.044777E-3
297.658539E-3
297.156715E-3
296.985054E-3
296.541023E-3
296.819115E-3
296.403694E-3
296.040916E-3
295.963669E-3
295.696449E-3
296.053505E-3
295.613480E-3
295.363426E-3
295.380592E-3
295.124245E-3
295.602608E-3
295.287895E-3
295.073891E-3
295.170021E-3
294.463348E-3
295.294189E-3
295.080757E-3
295.055580E-3
295.158577E-3
294.658470E-3
295.484734E-3
295.282745E-3
295.207214E-3
295.263863E-3
294.798660E-3
295.408630E-3
295.191193E-3
295.009232E-3
295.075607E-3
294.742012E-3
295.095634E-3
294.842720E-3
294.763184E-3
294.937706E-3
294.959450E-3
295.889854E-3
296.482086E-3
297.352982E-3
298.546028E-3
299.463272E-3
300.901222E-3
301.319504E-3
301.666260E-3
301.834488E-3
301.124954E-3
301.551819E-3
300.867462E-3
300.220299E-3
299.677277E-3
298.908806E-3
298.865318E-3
298.097992E-3
297.497177E-3
297.188187E-3
296.630287E-3
296.939850E-3
296.515846E-3
296.266365E-3
296.183968E-3
295.900726E-3
296.145630E-3
295.706749E-3
295.425797E-3
295.432663E-3
295.223236E-3
295.750237E-3
295.640945E-3
295.619202E-3
295.787430E-3
295.764542E-3
296.375656E-3
296.261215E-3
296.117592E-3
296.092415E-3
295.840645E-3
296.330452E-3
295.953941E-3
295.584297E-3
295.487595E-3
294.928551E-3
295.254707E-3
294.914818E-3
294.465637E-3
294.355202E-3
294.014740E-3
294.344330E-3
294.007301E-3
293.761253E-3
293.733788E-3
293.467712E-3
293.841934E-3
293.583870E-3
293.311501E-3
293.299484E-3
293.149567E-3
293.496323E-3
293.343544E-3
293.226814E-3
293.251419E-3
292.951012E-3
293.453979E-3
293.200493E-3
293.061447E-3
293.153572E-3
293.034554E-3
293.514061E-3
293.340111E-3
293.221664E-3
293.244553E-3
292.835426E-3
293.391609E-3
293.122101E-3
292.986488E-3
292.947006E-3
292.767906E-3
293.150711E-3
292.812538E-3
292.620850E-3
292.591667E-3
292.009735E-3
292.821121E-3
292.733002E-3
293.049431E-3
293.889999E-3
294.647026E-3
296.266365E-3
297.077179E-3
298.014450E-3
298.953438E-3
299.156570E-3
300.011444E-3
299.685860E-3
299.265862E-3
298.919106E-3
298.174667E-3
298.142624E-3
297.321510E-3
296.582222E-3
296.194267E-3
295.575142E-3
295.770836E-3
295.265579E-3
294.933701E-3
294.969749E-3
294.305420E-3
294.899940E-3
294.699669E-3
294.479370E-3
294.472504E-3
294.143486E-3
294.590378E-3
294.500542E-3
294.590378E-3
294.859314E-3
294.874763E-3
295.554543E-3
295.520210E-3
295.525360E-3
295.678139E-3
295.496178E-3
295.973969E-3
295.602036E-3
295.374870E-3
295.306778E-3
294.930267E-3
295.212936E-3
294.797516E-3
294.490242E-3
294.392395E-3
293.618202E-3
294.267654E-3
293.987274E-3
293.793869E-3
293.848801E-3
293.578720E-3
293.934059E-3
293.649673E-3
293.496323E-3
293.476295E-3
293.266296E-3
293.694878E-3
293.467712E-3
293.392181E-3
293.369865E-3
293.134117E-3
293.644524E-3
293.524361E-3
293.365860E-3
293.424797E-3
293.286324E-3
293.807602E-3
293.594742E-3
293.406487E-3
293.457413E-3
292.882347E-3
293.551826E-3
293.309784E-3
293.006516E-3
293.011093E-3
292.791939E-3
293.187904E-3
292.853737E-3
292.668915E-3
292.775345E-3
292.104721E-3
293.126678E-3
293.435669E-3
294.002151E-3
295.039558E-3
295.840073E-3
297.374725E-3
298.092842E-3
298.662186E-3
299.162292E-3
298.979759E-3
299.509621E-3
299.045563E-3
298.515129E-3
298.080254E-3
297.301483E-3
297.183609E-3
296.526146E-3
295.916176E-3
295.699883E-3
295.068169E-3
295.429230E-3
295.059013E-3
294.822693E-3
294.929695E-3
294.099426E-3
294.755745E-3
294.489670E-3
294.365501E-3
294.437599E-3
294.304276E-3
294.824409E-3
294.716835E-3
294.852448E-3
295.086479E-3
295.109367E-3
295.684433E-3
295.640945E-3
295.527077E-3
295.660400E-3
295.437241E-3
295.900154E-3
295.500755E-3
295.179749E-3
295.152855E-3
294.237328E-3
294.849586E-3
294.497108E-3
294.121170E-3
293.955803E-3
293.663979E-3
293.987274E-3
293.698311E-3
293.475151E-3
293.464279E-3
293.224525E-3
293.714905E-3
293.403053E-3
293.261719E-3
293.322372E-3
293.089485E-3
293.664551E-3
293.355560E-3
293.223381E-3
293.328094E-3
293.153000E-3
293.507767E-3
293.349266E-3
293.212509E-3
293.351555E-3
293.148994E-3
293.684578E-3
293.497467E-3
293.350983E-3
293.450546E-3
293.250275E-3
293.799591E-3
293.492317E-3
293.304634E-3
293.202782E-3
292.742157E-3
293.269730E-3
292.973328E-3
292.747307E-3
292.874336E-3
292.186546E-3
293.023682E-3
292.968178E-3
293.182755E-3
293.859100E-3
294.641876E-3
296.343613E-3
297.218513E-3
298.099709E-3
298.971748E-3
299.333954E-3
300.046921E-3
299.920464E-3
299.592590E-3
299.394035E-3
298.511696E-3
298.491669E-3
297.672844E-3
296.899796E-3
296.507263E-3
295.885849E-3
296.158791E-3
295.631790E-3
295.303345E-3
295.369720E-3
295.092773E-3
295.652390E-3
295.339394E-3
294.980621E-3
294.926262E-3
294.584084E-3
294.984627E-3
294.752884E-3
294.672203E-3
294.848442E-3
294.773483E-3
295.339394E-3
295.275307E-3
295.266151E-3
295.481300E-3
295.106506E-3
295.813179E-3
295.528221E-3
295.340538E-3
295.330811E-3
294.953156E-3
295.251274E-3
294.739151E-3
294.475937E-3
294.310570E-3
293.998718E-3
294.365501E-3
293.954659E-3
293.601608E-3
293.588448E-3
293.299484E-3
293.826485E-3
293.524933E-3
293.312645E-3
293.324089E-3
293.169022E-3
293.580437E-3
293.445969E-3
293.373871E-3
293.379021E-3
293.147278E-3
293.704033E-3
293.464279E-3
293.379021E-3
293.490028E-3
293.298912E-3
293.884277E-3
293.601036E-3
293.510628E-3
293.601036E-3
293.476295E-3
294.008446E-3
293.709183E-3
293.603897E-3
293.828201E-3
293.059158E-3
293.757248E-3
293.526077E-3
293.320084E-3
293.326378E-3
293.108368E-3
293.580437E-3
293.258286E-3
293.112373E-3
293.231392E-3
293.122101E-3
293.763542E-3
293.963814E-3
294.571495E-3
295.701027E-3
296.702385E-3
298.247337E-3
298.941994E-3
299.493599E-3
299.962807E-3
299.912453E-3
300.281525E-3
299.786568E-3
299.178886E-3
298.814392E-3
297.969246E-3
297.943497E-3
297.208786E-3
296.730995E-3
296.357918E-3
295.830345E-3
296.230316E-3
295.948219E-3
295.710182E-3
295.724487E-3
295.481873E-3
295.858955E-3
295.460129E-3
295.223808E-3
295.235825E-3
295.026398E-3
295.582581E-3
295.406914E-3
295.370865E-3
295.751953E-3
295.713043E-3
296.302414E-3
296.145630E-3
296.107864E-3
296.246338E-3
295.922470E-3
296.285820E-3
296.076393E-3
295.793152E-3
295.635796E-3
295.310211E-3
295.681000E-3
295.235825E-3
294.974327E-3
294.828987E-3
294.500542E-3
294.880486E-3
294.513702E-3
294.331169E-3
294.477654E-3
293.781853E-3
294.420433E-3
294.211578E-3
294.179535E-3
294.142342E-3
293.986130E-3
294.465637E-3
294.165230E-3
294.074249E-3
294.079399E-3
293.954086E-3
294.450760E-3
294.200134E-3
294.062805E-3
294.211006E-3
293.779564E-3
294.453621E-3
294.235039E-3
294.112587E-3
294.208717E-3
293.781281E-3
294.346619E-3
294.035912E-3
293.772125E-3
293.710327E-3
293.436813E-3
293.900299E-3
293.468857E-3
293.334389E-3
293.313789E-3
292.821121E-3
293.584442E-3
293.346405E-3
293.481445E-3
294.088554E-3
294.471931E-3
296.145630E-3
296.709251E-3
297.652245E-3
298.498535E-3
298.878479E-3
299.735069E-3
299.465561E-3
299.083328E-3
298.820114E-3
298.262215E-3
298.238754E-3
297.297478E-3
296.643448E-3
296.311569E-3
295.575142E-3
295.873833E-3
295.391464E-3
295.023537E-3
295.108795E-3
294.918823E-3
295.283318E-3
294.803810E-3
294.450760E-3
294.568062E-3
294.217873E-3
294.787216E-3
294.471931E-3
294.447899E-3
294.686508E-3
294.742584E-3
295.507622E-3
295.271301E-3
295.282745E-3
295.597458E-3
295.367432E-3
295.841217E-3
295.315933E-3
295.030403E-3
295.013809E-3
294.686508E-3
295.032120E-3
294.417000E-3
294.065666E-3
294.022179E-3
293.722343E-3
294.134903E-3
293.623352E-3
293.293762E-3
293.363571E-3
293.148994E-3
293.542671E-3
293.104935E-3
292.909813E-3
293.116951E-3
292.845154E-3
293.434525E-3
293.073463E-3
292.941284E-3
293.123817E-3
292.777061E-3
293.453407E-3
293.096352E-3
292.980194E-3
293.084335E-3
292.970467E-3
293.499184E-3
293.319511E-3
293.059158E-3
293.232536E-3
293.059731E-3
293.546104E-3
293.148422E-3
292.968178E-3
292.967606E-3
292.782784E-3
293.087196E-3
292.667198E-3
292.548180E-3
292.524147E-3
292.438889E-3
292.890358E-3
292.616272E-3
292.868042E-3
293.474007E-3
293.922615E-3
295.642662E-3
296.363640E-3
297.171593E-3
298.127747E-3
298.559761E-3
299.432945E-3
299.069023E-3
298.766327E-3
298.528862E-3
297.994423E-3
297.913742E-3
297.015381E-3
296.422005E-3
295.984268E-3
295.528793E-3
295.761681E-3
295.203781E-3
294.973755E-3
295.037270E-3
294.589806E-3
295.174599E-3
294.840431E-3
294.624138E-3
294.534874E-3
294.280243E-3
294.689369E-3
294.296265E-3
294.274521E-3
294.411278E-3
294.414711E-3
294.990921E-3
294.861603E-3
294.911385E-3
295.072746E-3
294.875908E-3
295.466423E-3
295.091057E-3
294.965172E-3
294.866180E-3
294.559479E-3
294.831276E-3
294.343185E-3
294.042206E-3
293.949509E-3
293.663406E-3
294.020462E-3
293.509483E-3
293.269730E-3
293.276596E-3
293.062019E-3
293.578720E-3
293.169022E-3
293.087769E-3
293.108940E-3
293.043137E-3
293.409348E-3
293.047714E-3
292.994499E-3
293.025398E-3
292.982483E-3
293.489456E-3
293.060875E-3
292.882347E-3
293.084335E-3
292.965317E-3
293.493462E-3
293.108368E-3
293.089485E-3
293.151283E-3
293.010521E-3
293.485451E-3
293.090630E-3
293.001938E-3
293.080330E-3
292.901230E-3
293.301201E-3
292.810822E-3
292.628288E-3
292.614555E-3
292.276382E-3
292.887497E-3
292.483521E-3
292.481232E-3
292.716408E-3
292.992210E-3
294.041061E-3
294.462204E-3
295.326805E-3
296.498680E-3
297.335815E-3
298.555183E-3
298.651886E-3
298.892212E-3
299.042702E-3
298.542595E-3
298.760605E-3
297.893715E-3
297.320938E-3
296.858597E-3
296.300697E-3
296.367073E-3
295.560265E-3
295.247269E-3
295.154572E-3
294.924545E-3
295.367432E-3
294.987488E-3
294.864464E-3
294.902229E-3
294.656181E-3
294.964027E-3
294.463921E-3
294.283676E-3
294.332886E-3
294.094849E-3
294.818687E-3
294.615555E-3
294.701958E-3
294.954300E-3
295.030403E-3
295.610046E-3
295.240974E-3
295.111656E-3
295.137405E-3
294.872475E-3
295.410347E-3
294.804382E-3
294.600105E-3
294.577217E-3
294.256783E-3
294.637299E-3
293.987846E-3
293.873405E-3
293.867111E-3
293.673134E-3
294.123459E-3
293.522644E-3
293.555832E-3
293.623352E-3
293.524933E-3
294.043350E-3
293.489456E-3
293.435669E-3
293.573570E-3
293.441391E-3
293.919754E-3
293.403053E-3
293.445969E-3
293.589020E-3
293.340111E-3
294.073105E-3
293.564415E-3
293.559837E-3
293.637657E-3
293.636513E-3
294.154930E-3
293.642807E-3
293.603897E-3
293.642807E-3
293.475723E-3
293.990707E-3
293.358994E-3
293.249702E-3
293.194771E-3
292.872620E-3
293.525505E-3
292.929268E-3
292.955589E-3
292.945862E-3
292.884636E-3
293.705177E-3
293.519211E-3
294.133186E-3
295.138550E-3
295.935631E-3
297.439384E-3
297.821045E-3
298.396683E-3
298.748589E-3
298.846436E-3
299.303627E-3
298.388100E-3
297.889137E-3
297.535515E-3
296.892357E-3
296.935844E-3
295.970535E-3
295.479584E-3
295.293045E-3
295.046997E-3
295.471001E-3
294.958305E-3
294.777489E-3
294.857025E-3
294.621849E-3
295.081329E-3
294.427872E-3
294.255638E-3
294.362640E-3
294.283676E-3
294.947433E-3
294.593811E-3
294.636726E-3
294.864464E-3
294.957161E-3
295.692444E-3
295.202637E-3
295.246124E-3
295.162582E-3
294.945145E-3
295.508194E-3
294.774055E-3
294.558907E-3
294.467926E-3
294.181824E-3
294.578362E-3
293.812752E-3
293.546677E-3
293.605614E-3
293.313217E-3
293.903732E-3
293.182182E-3
293.088341E-3
293.049431E-3
292.960739E-3
293.536949E-3
292.920685E-3
292.792511E-3
292.830276E-3
292.734718E-3
293.281174E-3
292.743301E-3
292.742157E-3
292.807961E-3
292.534447E-3
293.289757E-3
292.750740E-3
292.620850E-3
292.785072E-3
292.696381E-3
293.349838E-3
292.649460E-3
292.567635E-3
292.505264E-3
292.362785E-3
292.862320E-3
292.164803E-3
292.152214E-3
292.118454E-3
292.003441E-3
292.663765E-3
292.024612E-3
292.073250E-3
292.280960E-3
292.446899E-3
293.698883E-3
293.979263E-3
294.869614E-3
295.869827E-3
296.532440E-3
297.940063E-3
297.795868E-3
297.901154E-3
297.945213E-3
297.419930E-3
297.808456E-3
296.781349E-3
296.228027E-3
295.788574E-3
295.048141E-3
295.501900E-3
294.631577E-3
294.342613E-3
294.336319E-3
294.078827E-3
294.771767E-3
294.140625E-3
293.986130E-3
293.876266E-3
293.645668E-3
294.119453E-3
293.517494E-3
293.399048E-3
293.571854E-3
293.294334E-3
294.227600E-3
293.831062E-3
293.824768E-3
294.074821E-3
293.769836E-3
294.711685E-3
294.152641E-3
294.026756E-3
294.128609E-3
293.581009E-3
294.272232E-3
293.575287E-3
293.379021E-3
293.307495E-3
292.733574E-3
293.470573E-3
292.807388E-3
292.643166E-3
292.638588E-3
292.355919E-3
292.912102E-3
292.263794E-3
292.107582E-3
292.232895E-3
292.045212E-3
292.810822E-3
292.172241E-3
292.061806E-3
292.203712E-3
291.954803E-3
292.682648E-3
292.107582E-3
292.072105E-3
292.236900E-3
292.022896E-3
292.853165E-3
292.218590E-3
292.164803E-3
292.244339E-3
291.797447E-3
292.666054E-3
292.101288E-3
291.939926E-3
291.967392E-3
291.720200E-3
292.419434E-3
291.742516E-3
291.593170E-3
291.574287E-3
291.162300E-3
292.033195E-3
291.481018E-3
291.437531E-3
291.554832E-3
291.519356E-3
292.613983E-3
292.826271E-3
293.597031E-3
294.748306E-3
295.461845E-3
297.059441E-3
297.082329E-3
297.378731E-3
297.669983E-3
297.335815E-3
297.734070E-3
296.719551E-3
296.201706E-3
295.879555E-3
294.983482E-3
295.296478E-3
294.454765E-3
294.093704E-3
294.173813E-3
293.645668E-3
294.454765E-3
293.936348E-3
293.845367E-3
294.009018E-3
293.634224E-3
294.196129E-3
293.369865E-3
293.175888E-3
293.333817E-3
293.059158E-3
293.679428E-3
293.229103E-3
293.285179E-3
293.643951E-3
293.415642E-3
294.327164E-3
293.718338E-3
293.772125E-3
293.933487E-3
293.524933E-3
294.110870E-3
293.404770E-3
293.233681E-3
293.304634E-3
292.892075E-3
293.373871E-3
292.635727E-3
292.500114E-3
292.638588E-3
292.101860E-3
292.784500E-3
292.141342E-3
292.036629E-3
292.238045E-3
291.837502E-3
292.568779E-3
291.939926E-3
291.894150E-3
292.165947E-3
291.856956E-3
292.535591E-3
291.960526E-3
291.978264E-3
292.208290E-3
291.868401E-3
292.625999E-3
292.028618E-3
292.093849E-3
292.411423E-3
292.079544E-3
292.822266E-3
292.264938E-3
292.315865E-3
292.565918E-3
292.151642E-3
292.844582E-3
292.143059E-3
292.050362E-3
292.151642E-3
291.454697E-3
292.098427E-3
291.482735E-3
291.414070E-3
291.562843E-3
291.154861E-3
291.911316E-3
291.204071E-3
291.353416E-3
292.082977E-3
292.372513E-3
293.877411E-3
294.136620E-3
