Notes :


2023-11-04 ¿ÀÈÄ 7:03:10
Volts
Ch : LED 2,
495.144653E-3
495.312309E-3
495.593834E-3
495.936012E-3
496.373749E-3
496.693039E-3
496.941376E-3
497.046089E-3
496.859550E-3
496.615219E-3
496.154022E-3
495.508003E-3
494.887161E-3
494.140434E-3
493.407440E-3
492.756271E-3
491.942596E-3
491.360092E-3
490.556145E-3
489.979935E-3
489.529610E-3
489.074707E-3
488.900185E-3
488.598633E-3
488.370895E-3
488.202095E-3
488.018990E-3
487.867928E-3
487.642479E-3
487.511444E-3
487.363243E-3
487.165833E-3
487.109184E-3
487.062263E-3
486.858559E-3
486.694908E-3
486.551857E-3
486.483192E-3
486.320686E-3
486.173630E-3
486.000252E-3
485.723877E-3
485.556221E-3
485.231781E-3
484.981728E-3
484.708786E-3
484.268188E-3
484.053612E-3
483.723450E-3
483.503151E-3
483.272552E-3
483.009911E-3
482.753563E-3
482.473183E-3
482.168198E-3
481.830025E-3
481.408882E-3
481.087875E-3
480.729103E-3
480.323982E-3
480.114555E-3
479.607010E-3
479.207611E-3
478.827095E-3
478.725815E-3
478.689766E-3
478.697777E-3
479.116058E-3
480.368614E-3
482.670593E-3
486.134148E-3
489.983940E-3
494.119263E-3
498.256874E-3
501.854897E-3
504.372597E-3
505.631447E-3
506.010818E-3
505.210876E-3
503.726006E-3
501.876068E-3
499.856186E-3
497.886086E-3
496.150017E-3
494.753265E-3
493.954468E-3
493.227768E-3
492.842102E-3
492.737389E-3
492.792892E-3
492.996025E-3
493.090439E-3
493.123627E-3
492.788315E-3
492.045593E-3
491.294861E-3
490.403938E-3
489.936447E-3
489.793396E-3
489.730453E-3
490.032578E-3
490.412521E-3
490.909767E-3
491.257668E-3
491.674805E-3
491.831589E-3
491.888809E-3
491.538620E-3
491.033363E-3
490.505791E-3
489.852333E-3
489.157677E-3
488.410378E-3
487.629318E-3
486.770439E-3
486.161613E-3
485.359955E-3
484.763145E-3
484.228134E-3
483.855057E-3
483.553505E-3
483.300018E-3
482.994461E-3
482.798195E-3
482.614517E-3
482.401657E-3
482.121849E-3
481.986809E-3
481.921577E-3
481.880951E-3
481.872940E-3
481.730461E-3
481.652069E-3
481.619453E-3
481.644058E-3
481.646919E-3
481.601143E-3
481.570244E-3
481.383705E-3
481.284714E-3
481.272125E-3
481.103897E-3
481.047821E-3
480.935669E-3
480.804062E-3
480.736542E-3
480.661583E-3
480.551147E-3
480.447578E-3
480.235863E-3
480.039024E-3
479.869652E-3
479.580688E-3
479.314041E-3
478.997040E-3
478.740692E-3
478.384209E-3
477.838326E-3
477.813721E-3
477.790833E-3
477.820015E-3
477.754211E-3
477.729607E-3
478.106117E-3
479.342079E-3
481.681252E-3
484.795761E-3
488.616371E-3
492.581749E-3
496.429825E-3
499.880219E-3
502.475166E-3
504.085922E-3
504.448700E-3
503.899956E-3
502.720642E-3
500.949669E-3
499.022484E-3
497.169685E-3
495.554924E-3
494.198227E-3
493.092728E-3
492.430687E-3
492.113686E-3
491.980362E-3
492.037582E-3
492.077637E-3
492.254448E-3
491.984367E-3
491.286850E-3
490.831375E-3
490.244293E-3
489.834023E-3
489.657784E-3
489.761353E-3
490.240288E-3
490.751266E-3
491.467667E-3
492.099953E-3
492.660141E-3
493.178558E-3
493.350792E-3
493.322182E-3
493.089867E-3
492.576027E-3
491.967201E-3
491.347504E-3
490.316391E-3
489.691544E-3
488.878441E-3
488.204956E-3
487.454224E-3
486.821938E-3
486.205673E-3
485.706139E-3
485.414314E-3
484.984016E-3
484.803772E-3
484.650993E-3
484.526253E-3
484.484482E-3
484.312820E-3
484.217262E-3
484.083939E-3
483.999825E-3
484.290504E-3
484.003830E-3
483.994102E-3
483.912849E-3
483.979225E-3
484.011269E-3
483.978081E-3
483.995819E-3
483.986092E-3
483.745193E-3
483.708000E-3
483.596420E-3
483.450508E-3
483.394432E-3
483.177567E-3
483.043671E-3
482.702637E-3
482.683182E-3
482.667160E-3
482.407951E-3
482.354736E-3
482.036018E-3
481.807137E-3
481.516457E-3
481.149673E-3
480.957985E-3
480.535126E-3
480.178642E-3
479.780960E-3
479.529190E-3
479.363823E-3
479.253960E-3
479.422188E-3
479.920578E-3
481.352806E-3
483.650208E-3
486.898613E-3
490.887451E-3
495.042229E-3
499.189568E-3
503.007889E-3
505.987930E-3
507.691383E-3
508.394051E-3
507.968903E-3
506.893158E-3
505.162239E-3
503.221893E-3
501.290131E-3
499.619293E-3
498.222542E-3
497.193718E-3
496.227837E-3
496.059036E-3
496.041870E-3
496.289062E-3
496.579742E-3
496.774292E-3
496.925354E-3
496.703339E-3
496.265030E-3
495.416451E-3
494.561005E-3
493.920708E-3
493.445206E-3
493.302727E-3
493.299866E-3
493.596840E-3
494.200516E-3
494.510651E-3
494.955254E-3
495.251656E-3
495.411873E-3
495.380974E-3
495.096588E-3
494.742966E-3
494.129562E-3
493.378830E-3
492.749405E-3
492.071342E-3
491.300011E-3
490.476036E-3
489.746475E-3
489.063835E-3
488.352013E-3
487.872505E-3
487.429619E-3
487.178421E-3
486.914635E-3
486.662292E-3
486.587906E-3
486.394501E-3
486.277199E-3
486.063766E-3
485.738754E-3
485.807419E-3
485.501862E-3
485.453224E-3
485.311890E-3
485.175133E-3
485.124207E-3
484.930801E-3
484.808350E-3
484.751129E-3
484.753418E-3
484.367752E-3
484.181786E-3
483.879662E-3
483.750916E-3
483.487129E-3
483.255386E-3
483.061981E-3
482.770729E-3
482.400513E-3
482.084656E-3
481.931305E-3
481.657791E-3
481.309891E-3
480.951691E-3
480.471039E-3
480.113411E-3
479.636765E-3
479.246521E-3
478.717804E-3
478.221130E-3
477.988815E-3
477.901840E-3
477.849197E-3
478.048325E-3
478.774452E-3
480.359459E-3
483.117485E-3
486.549568E-3
490.594482E-3
494.642258E-3
498.444557E-3
501.421738E-3
503.464508E-3
504.356575E-3
504.210663E-3
503.320885E-3
501.762199E-3
499.830437E-3
497.969627E-3
496.154594E-3
494.704628E-3
493.420601E-3
492.511368E-3
492.006111E-3
491.774368E-3
491.797829E-3
491.897392E-3
492.078781E-3
492.243576E-3
492.065048E-3
491.465378E-3
490.595627E-3
489.903259E-3
489.344788E-3
488.826942E-3
488.697624E-3
488.864708E-3
489.206314E-3
489.860344E-3
490.349007E-3
490.930367E-3
491.273689E-3
491.278839E-3
491.089439E-3
490.647697E-3
490.095520E-3
489.539337E-3
488.855553E-3
488.156319E-3
487.304306E-3
486.585617E-3
485.777664E-3
485.167122E-3
484.561729E-3
483.942032E-3
483.546066E-3
482.975578E-3
482.736397E-3
482.538986E-3
482.316971E-3
482.188225E-3
482.082939E-3
481.927872E-3
481.820869E-3
481.753922E-3
481.506729E-3
481.486702E-3
481.469536E-3
481.478691E-3
481.428909E-3
481.432915E-3
481.343079E-3
481.260681E-3
481.343651E-3
481.062698E-3
481.230354E-3
481.232071E-3
481.260109E-3
481.250954E-3
481.185722E-3
481.013489E-3
480.899048E-3
480.635834E-3
480.524826E-3
480.425262E-3
480.115700E-3
479.807281E-3
479.464531E-3
479.152679E-3
478.738976E-3
478.375053E-3
478.285789E-3
478.230858E-3
478.018570E-3
477.953339E-3
478.117561E-3
478.625679E-3
480.165482E-3
482.749557E-3
486.043167E-3
489.890671E-3
493.782806E-3
497.526169E-3
500.653839E-3
502.725792E-3
503.734589E-3
503.744888E-3
502.928352E-3
501.670647E-3
499.807549E-3
498.039436E-3
496.326256E-3
494.767570E-3
493.647766E-3
492.674446E-3
492.227554E-3
492.020988E-3
491.673660E-3
491.931152E-3
492.062759E-3
492.082214E-3
491.704559E-3
490.958405E-3
490.479469E-3
489.951897E-3
489.608002E-3
489.652634E-3
489.746475E-3
490.054893E-3
490.686035E-3
491.440773E-3
492.098236E-3
492.597771E-3
492.942810E-3
493.064117E-3
492.881012E-3
492.664146E-3
492.146873E-3
491.468811E-3
490.749550E-3
489.927292E-3
489.150238E-3
488.393211E-3
487.680817E-3
487.016487E-3
486.471176E-3
486.006546E-3
485.615158E-3
485.504723E-3
485.258102E-3
485.037804E-3
484.826660E-3
484.630394E-3
484.506226E-3
484.450150E-3
484.398079E-3
484.412956E-3
484.327126E-3
484.435272E-3
484.388351E-3
484.233856E-3
484.345436E-3
484.374619E-3
484.364319E-3
484.214401E-3
484.110260E-3
484.097672E-3
484.039307E-3
484.056473E-3
484.079361E-3
484.052467E-3
483.957481E-3
483.823586E-3
483.683968E-3
483.365250E-3
483.132362E-3
482.886887E-3
482.647133E-3
482.353592E-3
481.995964E-3
481.587410E-3
481.413460E-3
481.122208E-3
480.722809E-3
480.467033E-3
480.445290E-3
480.478477E-3
480.624962E-3
481.566811E-3
483.477974E-3
486.381340E-3
490.161896E-3
494.242859E-3
498.564148E-3
502.415085E-3
505.609131E-3
507.839584E-3
508.644104E-3
508.484459E-3
507.356644E-3
505.954170E-3
504.040718E-3
502.193069E-3
500.576591E-3
499.117470E-3
498.102951E-3
497.419739E-3
497.084427E-3
497.097015E-3
497.243500E-3
497.442055E-3
497.651482E-3
497.509003E-3
497.601128E-3
497.226334E-3
496.587753E-3
495.804977E-3
495.033646E-3
494.484329E-3
494.264030E-3
494.210243E-3
494.153595E-3
494.569588E-3
495.097160E-3
495.574379E-3
495.841026E-3
496.004105E-3
495.979500E-3
495.712852E-3
495.375252E-3
494.648552E-3
494.297791E-3
493.506432E-3
492.824936E-3
492.114830E-3
491.370964E-3
490.695763E-3
490.057755E-3
489.641762E-3
489.233208E-3
488.853836E-3
488.537979E-3
488.318825E-3
488.187218E-3
488.022423E-3
487.958908E-3
487.812996E-3
487.585831E-3
487.824440E-3
487.606430E-3
487.417603E-3
487.350082E-3
487.148094E-3
487.122917E-3
487.093735E-3
487.020493E-3
486.979294E-3
486.896324E-3
487.021637E-3
486.998749E-3
486.929512E-3
486.808777E-3
486.598206E-3
486.535263E-3
486.287498E-3
485.948181E-3
485.666084E-3
485.298157E-3
484.921074E-3
484.539413E-3
484.172630E-3
483.737755E-3
483.190727E-3
482.607079E-3
482.407379E-3
482.354164E-3
482.429123E-3
482.671738E-3
483.978653E-3
485.953903E-3
489.055252E-3
492.807770E-3
496.689606E-3
500.649834E-3
504.037857E-3
506.665993E-3
508.198357E-3
508.538818E-3
508.055305E-3
506.905174E-3
505.315590E-3
503.553772E-3
501.844025E-3
500.354576E-3
499.076843E-3
497.999954E-3
497.424316E-3
497.108459E-3
497.129631E-3
497.212601E-3
497.575951E-3
497.540474E-3
497.237778E-3
496.719360E-3
495.791245E-3
494.924355E-3
494.101524E-3
493.395996E-3
493.113899E-3
493.012047E-3
493.212318E-3
493.606567E-3
494.138145E-3
494.615364E-3
495.012474E-3
495.164108E-3
495.296288E-3
494.911766E-3
494.447136E-3
493.838882E-3
492.999458E-3
492.314529E-3
491.562653E-3
490.781593E-3
490.026283E-3
489.193726E-3
488.846397E-3
488.331985E-3
487.880516E-3
487.552071E-3
487.287712E-3
487.039948E-3
486.768150E-3
486.574745E-3
486.096954E-3
486.056328E-3
485.988235E-3
485.904694E-3
485.799980E-3
485.811996E-3
485.677528E-3
485.662651E-3
485.575676E-3
485.345078E-3
485.449791E-3
485.401154E-3
485.425186E-3
485.367393E-3
485.310745E-3
485.223198E-3
484.965134E-3
484.828377E-3
484.316254E-3
484.293365E-3
484.067917E-3
483.754349E-3
483.395576E-3
482.983017E-3
482.456017E-3
481.886673E-3
481.484413E-3
481.457520E-3
481.180000E-3
480.977440E-3
480.937958E-3
481.036949E-3
481.796265E-3
483.477974E-3
486.117554E-3
489.383125E-3
492.988014E-3
496.824074E-3
500.119972E-3
502.902031E-3
504.581451E-3
505.079842E-3
504.800606E-3
503.724289E-3
502.070045E-3
500.301933E-3
498.603630E-3
497.136497E-3
495.887375E-3
494.844818E-3
494.108963E-3
493.698692E-3
493.808556E-3
493.614578E-3
493.654633E-3
493.548203E-3
493.203735E-3
492.513657E-3
491.657639E-3
490.999031E-3
490.644836E-3
490.458870E-3
490.656281E-3
491.143227E-3
491.906548E-3
492.825508E-3
493.527031E-3
494.210243E-3
494.535255E-3
494.733810E-3
494.837379E-3
494.260597E-3
493.746758E-3
492.941666E-3
492.150307E-3
491.394424E-3
490.573311E-3
489.933014E-3
489.249802E-3
488.734818E-3
488.259315E-3
487.747765E-3
487.435913E-3
487.235069E-3
487.001038E-3
486.788750E-3
486.454582E-3
486.415672E-3
486.371040E-3
486.183357E-3
486.136436E-3
486.226273E-3
486.227417E-3
486.258316E-3
486.352158E-3
486.594772E-3
486.555290E-3
486.623383E-3
486.591339E-3
486.685753E-3
486.778450E-3
486.676025E-3
486.625099E-3
486.548424E-3
486.398506E-3
486.215401E-3
485.859489E-3
485.568237E-3
485.215759E-3
484.823799E-3
484.521675E-3
484.127998E-3
483.967781E-3
483.947754E-3
483.931732E-3
484.163475E-3
484.948540E-3
486.763000E-3
489.594269E-3
493.115044E-3
497.166252E-3
501.132202E-3
504.479027E-3
507.476807E-3
509.474945E-3
510.288048E-3
510.067749E-3
509.065247E-3
507.500267E-3
505.729866E-3
503.983498E-3
502.535248E-3
501.208305E-3
500.288200E-3
499.696541E-3
499.435043E-3
499.253654E-3
499.387550E-3
499.586105E-3
499.571228E-3
499.510574E-3
498.822212E-3
498.039436E-3
497.233200E-3
496.591187E-3
496.174622E-3
496.024704E-3
495.948601E-3
496.479034E-3
497.162247E-3
497.796249E-3
498.259735E-3
498.762131E-3
498.922920E-3
498.961830E-3
498.714638E-3
497.975349E-3
497.486115E-3
496.780586E-3
495.928001E-3
495.182991E-3
494.391632E-3
493.683815E-3
493.073273E-3
492.420959E-3
491.917419E-3
491.483688E-3
491.207886E-3
490.845680E-3
490.672874E-3
490.563583E-3
490.421104E-3
490.366173E-3
490.273476E-3
490.051460E-3
489.993095E-3
489.946175E-3
489.937019E-3
489.819717E-3
489.901543E-3
489.906120E-3
489.827156E-3
489.856339E-3
489.669228E-3
489.756775E-3
489.705276E-3
489.682961E-3
489.708710E-3
489.658356E-3
489.567947E-3
489.550781E-3
489.316750E-3
489.079285E-3
488.757133E-3
488.448143E-3
488.076782E-3
487.605858E-3
487.205315E-3
486.819077E-3
486.166191E-3
485.951614E-3
485.739326E-3
485.797119E-3
485.909843E-3
486.248016E-3
487.407875E-3
489.464951E-3
492.760277E-3
496.356010E-3
500.887299E-3
505.438614E-3
509.592819E-3
512.820053E-3
514.961815E-3
515.715981E-3
515.604973E-3
514.514351E-3
512.931061E-3
511.029625E-3
509.165955E-3
507.428741E-3
506.050873E-3
505.230331E-3
504.623795E-3
504.452133E-3
504.580307E-3
504.907036E-3
505.154800E-3
505.241203E-3
505.203438E-3
504.874420E-3
503.956604E-3
502.931213E-3
501.867485E-3
501.152802E-3
500.558281E-3
500.240707E-3
500.346565E-3
500.625229E-3
500.918198E-3
501.452637E-3
501.636887E-3
502.024269E-3
501.881790E-3
501.636314E-3
501.266670E-3
500.672722E-3
499.927139E-3
499.199867E-3
498.403358E-3
497.569084E-3
496.660995E-3
496.011543E-3
495.406151E-3
494.832802E-3
494.417953E-3
493.953323E-3
493.580818E-3
493.367958E-3
493.154526E-3
492.804337E-3
492.620087E-3
492.432976E-3
492.336845E-3
492.152596E-3
492.010689E-3
491.809273E-3
491.741180E-3
491.557503E-3
491.459084E-3
491.511154E-3
491.343498E-3
491.194153E-3
491.072845E-3
490.712929E-3
490.495491E-3
490.280914E-3
490.044022E-3
490.120697E-3
489.780807E-3
489.675522E-3
489.403725E-3
489.216614E-3
489.015770E-3
488.729668E-3
488.437843E-3
488.021851E-3
487.918282E-3
487.469673E-3
486.964989E-3
486.622810E-3
486.344147E-3
485.907555E-3
485.540199E-3
485.306168E-3
485.243225E-3
485.255814E-3
485.372543E-3
485.728455E-3
486.962128E-3
489.354515E-3
492.645836E-3
496.718788E-3
501.247215E-3
505.542183E-3
509.509277E-3
512.323952E-3
513.949013E-3
514.318085E-3
513.558769E-3
512.197495E-3
510.201645E-3
508.147430E-3
506.156731E-3
504.356575E-3
503.094292E-3
502.081490E-3
501.539612E-3
501.345062E-3
501.390839E-3
501.641464E-3
502.135849E-3
502.108383E-3
501.849747E-3
501.135635E-3
500.176620E-3
499.065399E-3
498.135567E-3
497.665787E-3
497.339058E-3
497.574234E-3
497.966766E-3
498.573875E-3
499.234772E-3
499.718857E-3
500.051308E-3
500.019264E-3
499.782944E-3
499.372101E-3
498.730659E-3
