Notes :


2023-10-22 ¿ÀÈÄ 11:45:38
Volts
Ch : LED 2,
453.236389E-3
451.473427E-3
451.195335E-3
452.175522E-3
449.938774E-3
452.478790E-3
450.686073E-3
451.064873E-3
452.174377E-3
449.915314E-3
452.884483E-3
452.420998E-3
453.020096E-3
454.508972E-3
452.770042E-3
455.481148E-3
454.325867E-3
454.090691E-3
454.316711E-3
450.265503E-3
450.347328E-3
446.119881E-3
443.213081E-3
441.158295E-3
436.786652E-3
437.325096E-3
435.141563E-3
434.743309E-3
435.199928E-3
433.042717E-3
435.931206E-3
435.445404E-3
436.302567E-3
437.754822E-3
436.471367E-3
439.332390E-3
438.587952E-3
438.986778E-3
440.114594E-3
438.038635E-3
440.837860E-3
439.775848E-3
439.274597E-3
440.310860E-3
437.973404E-3
441.003799E-3
440.650177E-3
440.959740E-3
442.141342E-3
439.713478E-3
442.108727E-3
441.304779E-3
440.976906E-3
441.563988E-3
439.623642E-3
441.653252E-3
440.171814E-3
439.957237E-3
441.099358E-3
438.968468E-3
441.519356E-3
440.837860E-3
440.465355E-3
441.546822E-3
439.633942E-3
442.201996E-3
441.199493E-3
441.185188E-3
441.948509E-3
440.173531E-3
442.945290E-3
442.187691E-3
442.062950E-3
443.278313E-3
441.685295E-3
444.730568E-3
444.342613E-3
444.460487E-3
446.014023E-3
444.253922E-3
447.128105E-3
446.281242E-3
445.826340E-3
446.978760E-3
445.055580E-3
447.889709E-3
446.571350E-3
446.139336E-3
447.139549E-3
445.368576E-3
448.079681E-3
446.934700E-3
446.597672E-3
447.551537E-3
445.769691E-3
448.479080E-3
447.327232E-3
446.686363E-3
447.727203E-3
446.385384E-3
449.136543E-3
448.181534E-3
447.992706E-3
448.382950E-3
445.908737E-3
447.842789E-3
445.158577E-3
442.531586E-3
440.984344E-3
436.702538E-3
437.232971E-3
434.116745E-3
432.052803E-3
432.089996E-3
429.859543E-3
432.623291E-3
432.040787E-3
432.029343E-3
433.635521E-3
432.401276E-3
436.129189E-3
435.058594E-3
434.742737E-3
435.739517E-3
434.105873E-3
437.476158E-3
436.163521E-3
435.509491E-3
436.745453E-3
435.029984E-3
438.111305E-3
437.780571E-3
437.523079E-3
439.165878E-3
437.957954E-3
441.367149E-3
440.638733E-3
440.070534E-3
440.893936E-3
438.922119E-3
441.391754E-3
440.158081E-3
438.691521E-3
439.855957E-3
438.044930E-3
441.096497E-3
439.947510E-3
439.372444E-3
440.294266E-3
438.963318E-3
441.846085E-3
440.863609E-3
440.427589E-3
441.626930E-3
440.084839E-3
443.248558E-3
442.429733E-3
441.530228E-3
443.156433E-3
441.979980E-3
445.024681E-3
444.040489E-3
443.516922E-3
444.926834E-3
443.708611E-3
446.752739E-3
445.711327E-3
444.997215E-3
446.121597E-3
444.736290E-3
447.984695E-3
446.408844E-3
445.622063E-3
446.478081E-3
444.600677E-3
447.149849E-3
446.543884E-3
445.625496E-3
446.619415E-3
445.004082E-3
448.156929E-3
447.169876E-3
446.367645E-3
447.744370E-3
446.523285E-3
449.646950E-3
448.877907E-3
448.657608E-3
449.864388E-3
448.502541E-3
450.989342E-3
449.353409E-3
447.538376E-3
446.760178E-3
442.998505E-3
442.903519E-3
439.446831E-3
436.015320E-3
435.033417E-3
432.064819E-3
433.547401E-3
432.067680E-3
430.953026E-3
432.594681E-3
431.181335E-3
434.280968E-3
433.830643E-3
433.414078E-3
435.250282E-3
434.214592E-3
437.036133E-3
435.594177E-3
434.654045E-3
435.768700E-3
434.319305E-3
437.056732E-3
435.890007E-3
435.736084E-3
437.228394E-3
436.407280E-3
439.516068E-3
438.878059E-3
438.833427E-3
440.251350E-3
438.977051E-3
440.929985E-3
439.944077E-3
439.122391E-3
439.573288E-3
437.893867E-3
440.007019E-3
439.280319E-3
438.579941E-3
439.785004E-3
438.431168E-3
440.499115E-3
440.300560E-3
439.419365E-3
440.881348E-3
439.665985E-3
442.145920E-3
442.033195E-3
441.294479E-3
442.485809E-3
441.142845E-3
443.881416E-3
443.479156E-3
442.743874E-3
444.101715E-3
442.450333E-3
444.994926E-3
444.460487E-3
443.013954E-3
444.346619E-3
443.119812E-3
445.533371E-3
444.713974E-3
443.419647E-3
445.006943E-3
443.436813E-3
446.031761E-3
445.281601E-3
444.673920E-3
445.528793E-3
444.145775E-3
446.693230E-3
445.858955E-3
445.393753E-3
446.082115E-3
445.123100E-3
447.636223E-3
447.346115E-3
446.629715E-3
447.075462E-3
445.900726E-3
447.759247E-3
446.796799E-3
445.315361E-3
444.682503E-3
441.283607E-3
440.888786E-3
437.662125E-3
434.751320E-3
434.310722E-3
431.318665E-3
433.153725E-3
432.376671E-3
431.586456E-3
433.058739E-3
431.763268E-3
434.263802E-3
434.361649E-3
432.799530E-3
435.103798E-3
434.061241E-3
436.671638E-3
436.417007E-3
435.639954E-3
436.903381E-3
435.287476E-3
437.261009E-3
436.958885E-3
436.696243E-3
438.146210E-3
437.196350E-3
439.967537E-3
439.899445E-3
438.987923E-3
440.455627E-3
438.721848E-3
440.859032E-3
440.075111E-3
438.674355E-3
439.981842E-3
438.057518E-3
439.949799E-3
439.538956E-3
438.759613E-3
440.315437E-3
438.610268E-3
441.065598E-3
440.574646E-3
439.877129E-3
441.125679E-3
439.927483E-3
442.250633E-3
441.963387E-3
441.186905E-3
442.763329E-3
441.499901E-3
443.253708E-3
442.996788E-3
442.180252E-3
443.885422E-3
442.355919E-3
444.692802E-3
444.220161E-3
443.192482E-3
444.747162E-3
443.340683E-3
444.897652E-3
444.665337E-3
443.504906E-3
445.022392E-3
443.652534E-3
445.846367E-3
444.994926E-3
444.427872E-3
446.156502E-3
444.950294E-3
447.010231E-3
446.460915E-3
445.633507E-3
447.508049E-3
446.190834E-3
448.155785E-3
447.906303E-3
446.791649E-3
448.196411E-3
445.833778E-3
446.064377E-3
443.959236E-3
439.427948E-3
438.736153E-3
434.933853E-3
434.827423E-3
432.657623E-3
430.629158E-3
431.901741E-3
430.410576E-3
432.331467E-3
432.313728E-3
431.625366E-3
433.888435E-3
432.515144E-3
434.717560E-3
434.488678E-3
433.112526E-3
434.854317E-3
433.463860E-3
435.620499E-3
434.959030E-3
433.732796E-3
435.270882E-3
434.688377E-3
436.992645E-3
437.122536E-3
436.881638E-3
438.975334E-3
437.497902E-3
439.627647E-3
439.259148E-3
438.316154E-3
440.046501E-3
438.002586E-3
439.011383E-3
438.492393E-3
436.188698E-3
439.330673E-3
437.767410E-3
439.695168E-3
439.048004E-3
436.861610E-3
440.037346E-3
438.722992E-3
440.143776E-3
440.515709E-3
439.570427E-3
442.264938E-3
440.665054E-3
442.300415E-3
442.145920E-3
440.401268E-3
443.394470E-3
441.953087E-3
443.655396E-3
443.567276E-3
442.045784E-3
445.074463E-3
442.924118E-3
444.665337E-3
444.276237E-3
442.952156E-3
445.638657E-3
443.470573E-3
445.028687E-3
444.455910E-3
443.243408E-3
446.035194E-3
444.023323E-3
445.123672E-3
444.791794E-3
443.575859E-3
446.315575E-3
444.391251E-3
445.638084E-3
445.650101E-3
444.963455E-3
447.913742E-3
446.273232E-3
447.474289E-3
446.902657E-3
444.960594E-3
448.305130E-3
445.650101E-3
445.387459E-3
443.748665E-3
440.155792E-3
439.860535E-3
435.344124E-3
434.054375E-3
431.892014E-3
429.602623E-3
431.190491E-3
428.601265E-3
429.868698E-3
430.258369E-3
429.524803E-3
432.711411E-3
431.204224E-3
432.402992E-3
432.415581E-3
431.219101E-3
433.658409E-3
431.355858E-3
431.963539E-3
432.349777E-3
431.387329E-3
434.040642E-3
432.397270E-3
433.454132E-3
434.036636E-3
433.483887E-3
436.636162E-3
435.140991E-3
436.910248E-3
437.295914E-3
435.757256E-3
438.224030E-3
436.251640E-3
437.051582E-3
437.105942E-3
435.602188E-3
437.734795E-3
435.677719E-3
436.546898E-3
436.243629E-3
435.214233E-3
437.945366E-3
435.687447E-3
436.593819E-3
437.156868E-3
436.285400E-3
438.754463E-3
436.813545E-3
437.972260E-3
438.513565E-3
438.117027E-3
440.962029E-3
438.858604E-3
439.869690E-3
440.413284E-3
440.392685E-3
442.847443E-3
440.729141E-3
441.815758E-3
441.960526E-3
441.048431E-3
443.404198E-3
441.400909E-3
442.037201E-3
442.577362E-3
441.574860E-3
444.321442E-3
442.374229E-3
443.035126E-3
443.292046E-3
442.491531E-3
444.917107E-3
442.946434E-3
443.917465E-3
444.021034E-3
442.910957E-3
445.472717E-3
443.059158E-3
443.935776E-3
444.272232E-3
442.864609E-3
446.173668E-3
444.447899E-3
445.397186E-3
445.913887E-3
445.125961E-3
447.667122E-3
444.771194E-3
444.088554E-3
443.069458E-3
439.888000E-3
439.978409E-3
435.529518E-3
434.158516E-3
432.476807E-3
430.008316E-3
431.548119E-3
429.030991E-3
429.832077E-3
429.751396E-3
429.068184E-3
431.876564E-3
430.379105E-3
431.538963E-3
432.342911E-3
431.912041E-3
434.837723E-3
433.087349E-3
434.001732E-3
434.165382E-3
433.531380E-3
435.876274E-3
434.045792E-3
435.363579E-3
436.370087E-3
435.935211E-3
438.991356E-3
437.002373E-3
437.885284E-3
438.253784E-3
436.794662E-3
438.854027E-3
436.466789E-3
436.843872E-3
436.208725E-3
435.005951E-3
437.164879E-3
435.028267E-3
435.691452E-3
436.021042E-3
435.381889E-3
437.903023E-3
436.079979E-3
437.230110E-3
437.771416E-3
437.061310E-3
439.596748E-3
437.867546E-3
438.927841E-3
439.533806E-3
437.976265E-3
441.486168E-3
439.570999E-3
440.786934E-3
441.516495E-3
440.597534E-3
443.628502E-3
441.675568E-3
443.063736E-3
443.095207E-3
442.072678E-3
444.661331E-3
442.278099E-3
443.090630E-3
442.868614E-3
442.038345E-3
444.478226E-3
442.337608E-3
443.011665E-3
443.095779E-3
442.270088E-3
444.866753E-3
442.953873E-3
443.856239E-3
444.095993E-3
442.885208E-3
445.188904E-3
443.337822E-3
443.999863E-3
444.673347E-3
443.758392E-3
446.529007E-3
445.176315E-3
445.699883E-3
446.151352E-3
444.780922E-3
447.360992E-3
444.625854E-3
443.875694E-3
442.251205E-3
438.433456E-3
438.306427E-3
433.664703E-3
431.821632E-3
430.839729E-3
428.522301E-3
430.268097E-3
428.092575E-3
429.170036E-3
429.903603E-3
429.531097E-3
432.492828E-3
431.383324E-3
432.366943E-3
432.812119E-3
431.683731E-3
434.120178E-3
432.648468E-3
432.761192E-3
433.419800E-3
432.148361E-3
435.059738E-3
433.051300E-3
434.224892E-3
435.024834E-3
434.877205E-3
437.995148E-3
436.668777E-3
437.123108E-3
437.747383E-3
436.954880E-3
439.205360E-3
437.044716E-3
436.950874E-3
436.970901E-3
435.449982E-3
438.036346E-3
435.893440E-3
435.983276E-3
436.662483E-3
435.764122E-3
438.210869E-3
436.439896E-3
437.277603E-3
437.658691E-3
436.859894E-3
439.677429E-3
438.076973E-3
439.177895E-3
439.572716E-3
438.447189E-3
441.499901E-3
439.865112E-3
440.398407E-3
440.993500E-3
440.191841E-3
442.811966E-3
441.103363E-3
441.820908E-3
442.523003E-3
441.480446E-3
444.608688E-3
442.435455E-3
443.114662E-3
443.579865E-3
441.661263E-3
444.615555E-3
443.041420E-3
443.734932E-3
444.239616E-3
442.973328E-3
445.762825E-3
443.975258E-3
444.212723E-3
444.003868E-3
443.017960E-3
445.493317E-3
442.984200E-3
443.437958E-3
443.602753E-3
442.833138E-3
445.386314E-3
443.923187E-3
444.747734E-3
445.940208E-3
445.044708E-3
448.028183E-3
446.627998E-3
447.651672E-3
448.701668E-3
447.758102E-3
449.501038E-3
446.626282E-3
445.375443E-3
443.451691E-3
439.232254E-3
438.649178E-3
434.556770E-3
432.615280E-3
431.540108E-3
428.851318E-3
430.419731E-3
428.123474E-3
428.721428E-3
429.634094E-3
429.097939E-3
432.211304E-3
431.429100E-3
432.240486E-3
433.301926E-3
431.901741E-3
434.439468E-3
432.698822E-3
433.029556E-3
433.701324E-3
430.589676E-3
434.466934E-3
433.452988E-3
434.337044E-3
435.435104E-3
434.593391E-3
437.196350E-3
435.684586E-3
436.522865E-3
437.885284E-3
436.010170E-3
438.448334E-3
436.659050E-3
436.606979E-3
437.277031E-3
435.548973E-3
437.448692E-3
435.766411E-3
435.729790E-3
436.670494E-3
435.354424E-3
438.024330E-3
436.414719E-3
437.024689E-3
437.777138E-3
434.877205E-3
438.461494E-3
437.365723E-3
438.096428E-3
439.080048E-3
438.051224E-3
440.416145E-3
439.097214E-3
439.941216E-3
440.560913E-3
439.517212E-3
441.890717E-3
439.938354E-3
440.596962E-3
441.416359E-3
440.242767E-3
442.961884E-3
441.199493E-3
441.608620E-3
442.114449E-3
440.555191E-3
443.128967E-3
441.477585E-3
441.703033E-3
442.577934E-3
440.865898E-3
443.355560E-3
441.798592E-3
442.203140E-3
442.833138E-3
441.315651E-3
443.799019E-3
442.128754E-3
442.437172E-3
443.568993E-3
442.103577E-3
444.305992E-3
443.185043E-3
443.609619E-3
444.464493E-3
443.382454E-3
445.892715E-3
444.207573E-3
444.696236E-3
445.529938E-3
443.735504E-3
445.622063E-3
442.407990E-3
440.831566E-3
438.933563E-3
434.823990E-3
434.432602E-3
430.229759E-3
428.789520E-3
428.221893E-3
425.958824E-3
428.054237E-3
427.148437E-3
427.284622E-3
429.026985E-3
427.754974E-3
430.935287E-3
430.434036E-3
430.990791E-3
431.966400E-3
430.973053E-3
433.177757E-3
431.733513E-3
431.926346E-3
432.916260E-3
431.136703E-3
433.695602E-3
433.022690E-3
433.556557E-3
435.162163E-3
433.922768E-3
437.164307E-3
435.862541E-3
436.125183E-3
436.680222E-3
434.515572E-3
437.044144E-3
435.241699E-3
434.955025E-3
435.388184E-3
431.956100E-3
434.968185E-3
434.272957E-3
434.299850E-3
435.159302E-3
433.637238E-3
436.466789E-3
435.699463E-3
436.660767E-3
437.382889E-3
435.352135E-3
437.867546E-3
436.673927E-3
436.983490E-3
438.331604E-3
435.487175E-3
438.920975E-3
438.381958E-3
439.191628E-3
439.954376E-3
438.155365E-3
440.713692E-3
439.772415E-3
439.962959E-3
440.444183E-3
439.035416E-3
442.056084E-3
440.725708E-3
440.911102E-3
442.056084E-3
439.736366E-3
442.366791E-3
441.062164E-3
441.539955E-3
442.620850E-3
440.728569E-3
443.126678E-3
442.201424E-3
442.202568E-3
443.095779E-3
441.387749E-3
444.106293E-3
443.173027E-3
443.382454E-3
444.033051E-3
440.367508E-3
444.526863E-3
444.634438E-3
445.072746E-3
446.361351E-3
444.317436E-3
446.919823E-3
445.089340E-3
444.219589E-3
443.467712E-3
439.009094E-3
438.716698E-3
434.781075E-3
432.455063E-3
431.487465E-3
426.354218E-3
428.823853E-3
427.881432E-3
428.077126E-3
429.063034E-3
427.713776E-3
430.679512E-3
430.706978E-3
431.129837E-3
432.417297E-3
429.389763E-3
433.303642E-3
432.234764E-3
432.489395E-3
434.102440E-3
432.134056E-3
434.706116E-3
433.534813E-3
434.028625E-3
435.680580E-3
434.147072E-3
437.087059E-3
436.392403E-3
436.945724E-3
438.059235E-3
434.815979E-3
437.916183E-3
436.851311E-3
436.426163E-3
437.416649E-3
435.178185E-3
437.164307E-3
436.071396E-3
435.685158E-3
436.667633E-3
434.823418E-3
437.400627E-3
436.443329E-3
436.663055E-3
437.858963E-3
436.509132E-3
439.355278E-3
438.244629E-3
438.742447E-3
439.926338E-3
438.130760E-3
440.963173E-3
440.342903E-3
440.459633E-3
441.495895E-3
439.680290E-3
442.252922E-3
441.891289E-3
442.147636E-3
443.566704E-3
441.381454E-3
443.840218E-3
442.861748E-3
443.205070E-3
444.212151E-3
441.760826E-3
444.332886E-3
443.268585E-3
443.318939E-3
444.663048E-3
442.635727E-3
445.224380E-3
443.778419E-3
443.566132E-3
444.439888E-3
442.632866E-3
445.178604E-3
444.505692E-3
444.114876E-3
444.920540E-3
442.767906E-3
445.302773E-3
444.857025E-3
444.763184E-3
446.165657E-3
443.686295E-3
446.722412E-3
446.317863E-3
446.780205E-3
448.005867E-3
445.503044E-3
447.069740E-3
444.224167E-3
441.935349E-3
440.141487E-3
435.091209E-3
434.417725E-3
431.657410E-3
429.709625E-3
429.410934E-3
426.347351E-3
428.886223E-3
428.252792E-3
428.914261E-3
430.209160E-3
428.431892E-3
431.743240E-3
431.351852E-3
431.611633E-3
433.142853E-3
431.133270E-3
433.695602E-3
432.713127E-3
432.691956E-3
433.859253E-3
431.921196E-3
434.583664E-3
