Notes :


2023-11-10 ¿ÀÈÄ 10:07:54
Volts
Ch : LED 2,
326.367187E-3
325.916290E-3
325.334930E-3
324.958420E-3
324.518394E-3
324.309540E-3
324.240303E-3
324.225426E-3
324.390793E-3
324.608803E-3
324.807358E-3
325.098038E-3
325.057411E-3
325.068855E-3
324.956131E-3
324.805641E-3
324.720955E-3
324.442291E-3
324.266624E-3
324.007416E-3
323.768234E-3
323.563957E-3
323.207474E-3
323.065567E-3
322.806358E-3
322.510529E-3
322.374344E-3
322.064781E-3
322.103119E-3
321.967506E-3
321.887970E-3
321.927452E-3
321.676826E-3
321.565247E-3
321.395874E-3
321.312904E-3
321.284866E-3
321.196747E-3
321.257401E-3
321.046257E-3
320.787621E-3
320.569038E-3
320.251465E-3
320.301247E-3
320.257759E-3
320.465469E-3
320.684052E-3
320.958710E-3
321.202469E-3
321.243095E-3
321.185875E-3
321.012497E-3
320.606804E-3
320.399094E-3
320.302963E-3
320.012856E-3
319.952774E-3
319.726753E-3
319.621468E-3
319.541931E-3
319.410324E-3
319.262695E-3
319.186592E-3
319.194031E-3
319.179726E-3
319.301605E-3
319.612312E-3
320.096397E-3
321.418190E-3
322.881889E-3
324.794197E-3
327.080727E-3
329.224777E-3
331.510735E-3
333.183289E-3
334.210396E-3
334.582901E-3
334.201813E-3
333.583832E-3
332.512093E-3
331.407738E-3
330.345726E-3
329.268265E-3
328.532982E-3
327.802849E-3
327.268982E-3
327.091026E-3
326.955414E-3
326.941109E-3
326.856422E-3
326.842690E-3
326.926804E-3
326.619530E-3
326.407814E-3
326.087952E-3
325.663948E-3
325.413895E-3
325.227928E-3
325.276566E-3
325.353241E-3
325.618172E-3
326.058769E-3
326.334572E-3
326.593208E-3
326.741982E-3
326.644707E-3
326.672173E-3
326.436424E-3
326.243019E-3
326.137733E-3
325.885391E-3
325.682831E-3
325.369263E-3
325.148392E-3
324.846268E-3
324.569893E-3
324.391365E-3
324.184227E-3
324.122429E-3
323.912430E-3
323.751640E-3
323.768806E-3
323.593712E-3
323.708153E-3
323.681831E-3
323.471260E-3
323.482132E-3
323.356247E-3
323.301888E-3
323.300743E-3
323.278427E-3
323.440933E-3
323.430061E-3
323.306465E-3
323.356247E-3
323.311043E-3
323.426628E-3
323.403740E-3
323.509598E-3
323.537064E-3
323.408890E-3
323.569679E-3
323.525620E-3
323.605156E-3
323.583984E-3
323.523331E-3
323.493576E-3
323.277855E-3
323.138809E-3
322.948837E-3
322.774887E-3
322.804642E-3
322.634125E-3
322.685051E-3
322.873306E-3
323.363113E-3
324.452591E-3
325.871086E-3
327.863503E-3
330.153465E-3
332.263756E-3
334.393501E-3
335.799408E-3
336.764145E-3
337.027931E-3
336.486626E-3
335.869789E-3
334.703064E-3
333.553505E-3
332.499504E-3
331.483841E-3
330.820656E-3
330.098534E-3
329.617882E-3
329.289436E-3
329.106331E-3
329.071426E-3
328.870010E-3
328.804779E-3
328.769875E-3
328.348160E-3
327.912712E-3
327.326775E-3
326.828957E-3
326.434135E-3
326.181221E-3
326.168633E-3
326.118851E-3
326.512527E-3
326.578903E-3
326.799202E-3
327.027512E-3
327.020073E-3
327.026367E-3
326.954842E-3
326.721954E-3
326.554298E-3
326.190948E-3
325.990677E-3
325.623322E-3
325.269699E-3
325.033379E-3
324.578476E-3
324.355888E-3
324.100685E-3
323.666954E-3
323.499870E-3
323.239517E-3
323.073578E-3
323.062706E-3
322.784615E-3
322.681618E-3
322.493362E-3
322.409821E-3
322.348595E-3
322.162628E-3
322.218704E-3
322.023582E-3
322.008705E-3
321.927452E-3
321.784973E-3
321.796989E-3
321.749496E-3
321.735191E-3
321.658516E-3
321.592712E-3
321.628189E-3
321.496582E-3
321.529770E-3
321.586418E-3
321.478271E-3
321.492004E-3
321.343231E-3
321.339798E-3
321.432495E-3
321.208763E-3
321.285439E-3
321.153259E-3
321.003914E-3
320.870018E-3
320.597649E-3
320.581055E-3
320.175934E-3
320.190811E-3
320.142174E-3
320.092964E-3
320.393372E-3
320.851135E-3
321.982384E-3
323.566246E-3
325.508881E-3
327.884674E-3
330.192947E-3
332.438850E-3
334.166336E-3
335.247231E-3
335.679245E-3
335.382271E-3
334.488487E-3
333.555222E-3
332.302666E-3
331.197166E-3
330.233002E-3
329.520607E-3
328.949547E-3
328.494644E-3
328.285217E-3
328.060341E-3
328.115273E-3
328.220558E-3
328.123856E-3
328.236008E-3
328.062057E-3
327.676392E-3
327.193451E-3
326.493073E-3
326.062775E-3
325.570679E-3
325.348663E-3
325.464821E-3
325.370407E-3
325.650787E-3
325.749207E-3
325.919151E-3
326.133156E-3
326.040459E-3
326.192665E-3
325.875664E-3
325.726891E-3
325.696564E-3
325.428200E-3
325.280571E-3
324.989319E-3
324.684906E-3
324.393654E-3
324.032021E-3
323.789978E-3
323.527336E-3
323.302460E-3
323.154259E-3
322.909927E-3
322.854996E-3
322.770309E-3
322.634697E-3
322.626114E-3
322.346878E-3
322.365189E-3
322.241020E-3
322.232437E-3
322.110558E-3
322.044182E-3
321.956635E-3
321.941185E-3
321.788406E-3
321.898270E-3
321.814156E-3
321.815872E-3
321.763802E-3
321.752930E-3
321.794701E-3
321.575546E-3
321.666527E-3
321.654510E-3
321.569252E-3
321.726036E-3
321.564102E-3
321.621323E-3
321.616745E-3
321.574974E-3
321.554375E-3
321.449089E-3
321.421051E-3
321.205330E-3
321.039963E-3
320.958710E-3
320.729256E-3
320.722389E-3
320.711517E-3
320.827103E-3
320.909500E-3
321.085739E-3
321.764946E-3
322.813797E-3
324.520683E-3
326.661873E-3
328.829956E-3
331.180573E-3
333.262825E-3
334.680748E-3
335.569954E-3
335.584831E-3
335.199738E-3
334.268188E-3
333.145523E-3
332.033730E-3
330.960274E-3
330.153465E-3
329.476547E-3
329.018784E-3
328.770447E-3
328.455734E-3
328.488350E-3
328.570747E-3
328.622818E-3
328.674316E-3
328.401375E-3
328.157616E-3
327.723312E-3
327.131653E-3
326.795197E-3
326.398659E-3
326.467896E-3
326.534843E-3
326.728821E-3
327.077866E-3
327.289009E-3
327.645493E-3
327.713013E-3
327.720451E-3
327.840042E-3
327.561378E-3
327.492714E-3
327.198601E-3
326.873016E-3
326.647568E-3
326.272202E-3
326.098824E-3
325.832176E-3
325.549507E-3
325.430489E-3
325.086594E-3
325.023651E-3
324.860573E-3
324.746132E-3
324.651146E-3
324.445724E-3
324.563599E-3
324.422264E-3
324.278641E-3
324.270630E-3
324.038887E-3
324.096680E-3
323.969650E-3
323.879814E-3
323.924446E-3
323.891830E-3
323.959923E-3
323.870087E-3
323.797989E-3
323.773384E-3
323.573112E-3
323.668098E-3
323.646927E-3
323.765945E-3
323.839188E-3
323.830032E-3
323.873520E-3
323.770523E-3
323.724747E-3
323.808289E-3
323.618317E-3
323.668671E-3
323.466682E-3
323.368263E-3
323.332787E-3
322.980881E-3
322.951698E-3
322.880173E-3
322.862434E-3
322.897911E-3
322.794914E-3
323.082733E-3
323.641205E-3
324.625397E-3
326.236725E-3
328.191376E-3
330.515671E-3
332.761002E-3
334.717941E-3
336.152458E-3
336.894035E-3
336.956406E-3
336.412811E-3
335.442924E-3
334.451866E-3
333.317184E-3
332.418823E-3
331.526756E-3
330.774307E-3
330.290222E-3
329.974937E-3
329.810715E-3
329.757500E-3
329.865074E-3
330.018997E-3
329.903984E-3
329.738045E-3
329.376984E-3
328.958130E-3
328.585052E-3
328.231430E-3
328.074646E-3
328.222275E-3
328.253746E-3
328.646278E-3
328.894043E-3
329.316902E-3
329.546356E-3
329.655647E-3
329.886246E-3
329.673386E-3
329.579544E-3
329.427338E-3
329.192734E-3
328.889465E-3
328.582764E-3
328.265762E-3
327.955627E-3
327.619743E-3
327.533340E-3
327.216911E-3
327.149391E-3
326.974869E-3
326.836395E-3
326.778603E-3
326.603508E-3
326.530266E-3
326.418114E-3
326.275635E-3
326.391792E-3
326.165771E-3
326.166344E-3
326.112556E-3
326.019287E-3
326.160049E-3
326.103401E-3
326.007271E-3
325.943756E-3
325.888252E-3
325.964928E-3
325.742912E-3
325.798988E-3
325.673676E-3
325.618744E-3
325.717735E-3
325.591850E-3
325.697708E-3
325.753784E-3
325.641632E-3
325.635338E-3
325.508308E-3
325.445366E-3
325.435066E-3
325.178146E-3
325.191879E-3
324.837685E-3
324.755859E-3
324.559593E-3
324.258614E-3
324.164200E-3
324.064636E-3
324.069786E-3
324.141312E-3
324.228859E-3
324.906921E-3
325.986099E-3
327.603149E-3
329.650497E-3
331.969643E-3
334.510231E-3
336.585045E-3
338.242722E-3
339.269829E-3
339.430046E-3
339.210892E-3
338.318253E-3
337.345505E-3
336.218262E-3
335.177422E-3
334.335709E-3
333.476830E-3
333.008194E-3
332.644272E-3
332.385063E-3
332.385635E-3
332.376480E-3
332.431984E-3
332.497787E-3
332.444000E-3
332.347870E-3
331.967354E-3
331.483841E-3
330.829239E-3
330.140877E-3
329.650497E-3
329.340363E-3
329.125214E-3
329.120636E-3
329.058838E-3
329.358673E-3
329.372406E-3
329.494286E-3
329.604149E-3
329.507446E-3
329.475975E-3
329.203606E-3
329.052544E-3
328.919220E-3
328.476906E-3
328.302383E-3
327.851486E-3
327.576256E-3
327.152252E-3
326.826668E-3
326.646423E-3
326.383781E-3
326.148605E-3
326.004982E-3
325.673676E-3
325.646210E-3
325.441933E-3
325.328636E-3
325.200462E-3
325.035095E-3
324.943542E-3
324.865723E-3
324.739838E-3
324.750710E-3
324.551582E-3
324.562454E-3
324.362183E-3
324.481201E-3
324.370766E-3
324.171066E-3
324.254608E-3
324.134445E-3
324.078941E-3
324.045181E-3
324.028587E-3
324.016571E-3
323.806000E-3
323.724747E-3
323.717880E-3
323.630333E-3
323.704720E-3
323.567390E-3
323.541641E-3
323.545647E-3
323.423767E-3
323.520470E-3
323.270988E-3
323.114777E-3
323.100471E-3
322.719955E-3
322.594643E-3
322.282791E-3
322.175789E-3
322.321701E-3
322.144890E-3
322.286797E-3
322.341728E-3
322.903061E-3
323.938751E-3
325.422478E-3
327.725601E-3
330.039024E-3
332.430267E-3
334.794044E-3
336.535835E-3
337.731171E-3
338.018990E-3
337.818146E-3
337.195015E-3
336.075211E-3
334.976578E-3
333.894539E-3
332.952118E-3
332.236862E-3
331.622314E-3
331.391144E-3
331.147957E-3
331.146240E-3
331.229782E-3
331.150246E-3
331.303024E-3
331.293297E-3
331.197166E-3
331.007767E-3
330.404091E-3
329.817009E-3
329.109192E-3
328.593636E-3
328.183365E-3
327.743340E-3
327.757645E-3
327.679253E-3
327.862930E-3
328.017998E-3
328.045464E-3
328.205681E-3
328.135300E-3
328.082085E-3
328.071213E-3
327.834892E-3
327.714729E-3
327.549362E-3
327.296448E-3
327.115631E-3
326.605797E-3
326.509666E-3
326.117706E-3
325.876236E-3
325.703430E-3
325.406456E-3
325.369263E-3
325.130653E-3
325.041962E-3
324.871445E-3
324.660873E-3
324.564171E-3
324.425125E-3
324.277496E-3
324.331856E-3
324.153328E-3
324.225426E-3
324.067497E-3
324.090958E-3
324.046898E-3
323.939896E-3
323.991394E-3
323.927307E-3
323.858643E-3
323.896408E-3
323.830032E-3
323.879242E-3
323.751640E-3
323.659515E-3
323.630333E-3
323.391151E-3
323.465538E-3
323.478699E-3
323.403168E-3
323.487282E-3
323.392868E-3
323.466682E-3
323.341370E-3
323.281860E-3
323.236656E-3
323.062706E-3
323.233223E-3
323.018074E-3
322.899628E-3
322.832108E-3
322.668457E-3
322.612953E-3
322.567177E-3
322.416687E-3
322.413254E-3
322.219849E-3
322.276497E-3
322.317123E-3
322.528839E-3
323.197174E-3
324.239731E-3
325.988388E-3
327.971649E-3
330.206680E-3
332.621384E-3
334.586334E-3
336.216545E-3
337.100029E-3
337.156105E-3
336.701775E-3
335.786819E-3
334.882736E-3
333.766937E-3
332.729530E-3
331.825447E-3
330.960274E-3
330.487061E-3
330.288506E-3
329.994392E-3
330.028725E-3
329.905128E-3
330.222702E-3
330.351448E-3
330.227280E-3
329.943466E-3
329.519463E-3
329.025650E-3
328.475761E-3
328.055191E-3
327.926445E-3
327.909279E-3
328.017998E-3
328.159904E-3
328.260040E-3
328.617096E-3
328.621101E-3
328.891754E-3
328.819656E-3
328.645706E-3
328.544998E-3
328.347015E-3
328.220558E-3
327.938461E-3
327.607155E-3
327.428627E-3
327.098465E-3
326.930237E-3
326.556587E-3
326.419830E-3
326.277924E-3
325.992966E-3
325.908852E-3
325.773239E-3
325.639343E-3
325.537491E-3
325.304604E-3
325.170135E-3
325.219345E-3
325.004768E-3
325.006485E-3
324.846268E-3
324.937248E-3
324.818802E-3
324.779320E-3
324.848557E-3
324.751282E-3
324.696922E-3
324.751282E-3
324.628830E-3
324.688339E-3
324.527550E-3
324.546432E-3
324.523544E-3
324.491501E-3
324.635124E-3
324.631119E-3
324.628830E-3
324.645996E-3
324.462891E-3
324.545288E-3
324.377632E-3
324.405098E-3
324.400520E-3
324.245453E-3
324.294090E-3
324.155045E-3
324.131012E-3
323.981094E-3
323.799706E-3
323.765945E-3
323.616600E-3
323.482704E-3
323.587418E-3
323.491287E-3
323.552513E-3
323.637199E-3
324.081802E-3
324.914360E-3
326.245880E-3
328.197670E-3
330.303383E-3
332.624817E-3
334.776306E-3
336.512947E-3
337.823296E-3
338.159180E-3
337.987518E-3
337.291718E-3
336.123848E-3
335.339355E-3
334.193802E-3
333.270264E-3
332.445145E-3
331.845474E-3
331.434059E-3
331.116486E-3
330.994606E-3
331.065559E-3
331.129646E-3
331.289291E-3
331.034088E-3
330.969429E-3
330.567741E-3
330.096817E-3
329.671669E-3
329.192162E-3
329.015923E-3
328.983307E-3
329.068565E-3
329.388428E-3
329.538918E-3
329.906845E-3
330.131149E-3
330.043602E-3
330.204964E-3
330.009270E-3
329.950905E-3
329.758072E-3
329.423904E-3
329.344940E-3
328.960419E-3
328.650284E-3
328.368759E-3
327.964783E-3
327.748489E-3
327.348518E-3
327.079010E-3
326.935959E-3
326.781464E-3
326.743698E-3
326.530266E-3
326.249886E-3
326.184082E-3
326.090813E-3
325.996971E-3
325.864220E-3
325.769806E-3
325.684547E-3
325.449944E-3
325.584412E-3
325.392151E-3
325.298309E-3
325.209618E-3
325.044250E-3
325.078011E-3
325.019073E-3
324.995613E-3
325.026512E-3
324.805069E-3
324.820518E-3
324.601936E-3
324.616241E-3
324.560165E-3
324.525261E-3
324.516678E-3
324.351883E-3
324.333572E-3
324.279785E-3
324.183083E-3
324.243736E-3
324.159622E-3
324.068642E-3
324.071503E-3
323.973656E-3
323.998260E-3
323.732185E-3
323.614883E-3
323.615456E-3
323.317337E-3
323.325348E-3
323.089600E-3
323.029518E-3
323.099899E-3
323.038673E-3
323.430061E-3
324.063492E-3
325.291443E-3
327.045250E-3
329.081726E-3
331.655502E-3
333.979225E-3
336.142159E-3
337.766647E-3
338.513947E-3
338.786888E-3
338.214111E-3
337.375832E-3
336.373329E-3
335.191727E-3
334.245872E-3
333.305740E-3
332.640839E-3
332.225990E-3
331.759071E-3
331.629181E-3
331.582260E-3
331.646347E-3
331.896400E-3
331.942177E-3
332.028580E-3
331.765938E-3
331.479836E-3
330.986595E-3
330.334854E-3
329.810143E-3
329.303169E-3
328.947258E-3
328.814507E-3
328.605652E-3
328.636551E-3
328.595352E-3
328.775024E-3
329.074287E-3
329.184723E-3
329.421043E-3
329.129219E-3
328.973007E-3
328.827667E-3
328.446579E-3
328.234291E-3
327.833748E-3
327.549362E-3
327.345657E-3
326.975441E-3
326.870155E-3
326.521683E-3
326.356888E-3
326.096535E-3
325.851059E-3
325.636482E-3
325.425339E-3
325.258827E-3
325.153542E-3
324.843979E-3
324.969292E-3
324.759865E-3
324.750137E-3
324.633408E-3
324.557304E-3
324.486351E-3
324.381638E-3
324.308968E-3
324.358177E-3
324.161339E-3
324.253464E-3
324.097824E-3
324.151039E-3
324.164200E-3
324.041748E-3
324.135590E-3
323.967361E-3
323.907280E-3
323.854065E-3
323.763084E-3
323.818016E-3
323.681259E-3
323.656082E-3
323.627472E-3
323.571396E-3
323.541641E-3
323.371696E-3
323.263550E-3
323.282433E-3
323.037529E-3
322.943115E-3
322.689056E-3
322.715950E-3
322.776031E-3
322.705078E-3
322.843552E-3
322.878456E-3
323.114204E-3
323.736191E-3
324.615097E-3
326.114845E-3
328.059196E-3
330.295372E-3
332.668877E-3
335.051537E-3
336.548424E-3
337.472534E-3
