Notes :


2023-11-10 ¿ÀÈÄ 9:58:05
Volts
Ch : LED 2,
376.407051E-3
376.465416E-3
376.141548E-3
375.876045E-3
375.349045E-3
374.906731E-3
374.656677E-3
374.201202E-3
373.913956E-3
373.524284E-3
373.245621E-3
372.968674E-3
372.743797E-3
372.549248E-3
372.114372E-3
371.655464E-3
371.323586E-3
370.931625E-3
370.618057E-3
370.303345E-3
370.077324E-3
370.076180E-3
369.956017E-3
369.842720E-3
369.590378E-3
369.284821E-3
368.974113E-3
368.319511E-3
368.271446E-3
368.263435E-3
368.596458E-3
368.932915E-3
369.087982E-3
369.237328E-3
368.966675E-3
368.544388E-3
368.253708E-3
367.915535E-3
367.671776E-3
367.510986E-3
367.697525E-3
367.988205E-3
368.130112E-3
368.215942E-3
368.029404E-3
367.643166E-3
367.362213E-3
366.911888E-3
366.669846E-3
366.475296E-3
366.296768E-3
366.340828E-3
366.499901E-3
367.478943E-3
369.149780E-3
371.856880E-3
375.036049E-3
378.284454E-3
381.435013E-3
384.152412E-3
386.136246E-3
387.193680E-3
387.408829E-3
386.841202E-3
385.445023E-3
383.683205E-3
382.027245E-3
380.447388E-3
379.245758E-3
378.259850E-3
377.556038E-3
377.251625E-3
377.082825E-3
377.194977E-3
377.445030E-3
377.721977E-3
378.041267E-3
378.064728E-3
377.994919E-3
377.484512E-3
376.936913E-3
376.463127E-3
376.017380E-3
375.791359E-3
375.719833E-3
375.893211E-3
376.147842E-3
376.530647E-3
376.845932E-3
377.177238E-3
377.378082E-3
377.465057E-3
377.232742E-3
377.019310E-3
376.649666E-3
376.396179E-3
376.097488E-3
375.657463E-3
375.349045E-3
374.921608E-3
374.687004E-3
374.494743E-3
374.182892E-3
373.889923E-3
373.653603E-3
373.291397E-3
373.148918E-3
372.878265E-3
372.735786E-3
372.588730E-3
372.462273E-3
372.315216E-3
372.239685E-3
372.027969E-3
371.955872E-3
371.895218E-3
371.814537E-3
371.672058E-3
371.627998E-3
371.553040E-3
371.506119E-3
371.480370E-3
371.459198E-3
371.282959E-3
371.300697E-3
371.292686E-3
371.299553E-3
371.161079E-3
371.058655E-3
371.077538E-3
370.870972E-3
370.794868E-3
370.517921E-3
370.375443E-3
370.068741E-3
369.821548E-3
369.611549E-3
369.299698E-3
369.116592E-3
369.206429E-3
369.656754E-3
370.900726E-3
372.809601E-3
375.625992E-3
378.867531E-3
382.305336E-3
385.489082E-3
388.114357E-3
389.824677E-3
390.557098E-3
390.567398E-3
389.919090E-3
388.616180E-3
387.133598E-3
385.475922E-3
384.010506E-3
382.970810E-3
382.087898E-3
381.476784E-3
381.182671E-3
381.242752E-3
381.475067E-3
381.665039E-3
382.079887E-3
382.328224E-3
382.434654E-3
382.328796E-3
381.932259E-3
381.361771E-3
380.518341E-3
379.701805E-3
379.032898E-3
378.566551E-3
378.349113E-3
378.321648E-3
378.457260E-3
378.612328E-3
378.751945E-3
379.001427E-3
379.204559E-3
379.274368E-3
379.329300E-3
378.960228E-3
378.690147E-3
378.319931E-3
377.972603E-3
377.552032E-3
377.160072E-3
376.862526E-3
376.538658E-3
376.275444E-3
375.944710E-3
375.490379E-3
375.156212E-3
374.822617E-3
374.567413E-3
374.362564E-3
374.208641E-3
374.130249E-3
373.814964E-3
373.667336E-3
373.432159E-3
373.237610E-3
373.144341E-3
373.084831E-3
373.028183E-3
373.044777E-3
372.938919E-3
372.774124E-3
372.733498E-3
372.701454E-3
372.655678E-3
372.556686E-3
372.463417E-3
372.345543E-3
372.161293E-3
372.078896E-3
372.022820E-3
372.072029E-3
371.999359E-3
371.968460E-3
371.867180E-3
371.616554E-3
371.403694E-3
371.244049E-3
370.903015E-3
370.751953E-3
370.517349E-3
370.476723E-3
370.394325E-3
370.127678E-3
369.917679E-3
369.706535E-3
369.749451E-3
370.421219E-3
371.908379E-3
374.392891E-3
377.400398E-3
381.057358E-3
384.597015E-3
387.598801E-3
389.889908E-3
391.114998E-3
391.652298E-3
391.266060E-3
390.166283E-3
388.671684E-3
386.919594E-3
385.415268E-3
384.042549E-3
382.913017E-3
382.542801E-3
382.105064E-3
381.935692E-3
381.963730E-3
382.161140E-3
382.420921E-3
382.653236E-3
382.977676E-3
383.089828E-3
382.826042E-3
382.266998E-3
381.450462E-3
380.708885E-3
379.947281E-3
379.373360E-3
379.119873E-3
379.040337E-3
379.046059E-3
379.189682E-3
379.314995E-3
379.491234E-3
379.709816E-3
379.816246E-3
379.817390E-3
379.643440E-3
379.435158E-3
379.106712E-3
378.832054E-3
378.417206E-3
377.935982E-3
377.653313E-3
377.217293E-3
377.026749E-3
376.750946E-3
376.532364E-3
376.270294E-3
375.749016E-3
375.525856E-3
375.302696E-3
375.068665E-3
375.028038E-3
374.721336E-3
374.580002E-3
374.408340E-3
374.100494E-3
373.996925E-3
373.815536E-3
373.701668E-3
373.477364E-3
373.331451E-3
373.328590E-3
373.338890E-3
373.509979E-3
373.404694E-3
373.287392E-3
373.224449E-3
373.103142E-3
373.100853E-3
373.089981E-3
373.057365E-3
373.093414E-3
372.969246E-3
372.970390E-3
372.845650E-3
372.698021E-3
372.604179E-3
372.280884E-3
372.084618E-3
371.888351E-3
371.730423E-3
371.613693E-3
371.466637E-3
371.302414E-3
371.156502E-3
371.084404E-3
371.653748E-3
372.814178E-3
374.720192E-3
377.569199E-3
380.841637E-3
384.277725E-3
387.398529E-3
389.921379E-3
391.765022E-3
392.376137E-3
392.420769E-3
391.517830E-3
390.388298E-3
388.925743E-3
387.260628E-3
385.981750E-3
384.713745E-3
383.916664E-3
383.474350E-3
383.338737E-3
383.418274E-3
383.594513E-3
383.992767E-3
384.095192E-3
384.201622E-3
384.538651E-3
384.238243E-3
383.758163E-3
382.977676E-3
382.079887E-3
381.164932E-3
380.445099E-3
380.125237E-3
379.898643E-3
379.870033E-3
379.884338E-3
379.915237E-3
380.097771E-3
380.231667E-3
380.204201E-3
380.390167E-3
380.109215E-3
379.892349E-3
379.621696E-3
379.210854E-3
379.026031E-3
378.466988E-3
378.136253E-3
377.723694E-3
377.180672E-3
376.849365E-3
376.451683E-3
376.169014E-3
375.846863E-3
375.266647E-3
375.165939E-3
374.868965E-3
374.723625E-3
374.611473E-3
374.371719E-3
374.225235E-3
373.925400E-3
373.710251E-3
373.645592E-3
373.569489E-3
373.678780E-3
373.533440E-3
373.468781E-3
373.325157E-3
373.063087E-3
373.044777E-3
372.875404E-3
372.890282E-3
373.060799E-3
372.951508E-3
372.862816E-3
372.823334E-3
372.684288E-3
372.597313E-3
372.359848E-3
372.122955E-3
371.836853E-3
371.530724E-3
371.337318E-3
371.186829E-3
371.087837E-3
370.883560E-3
370.664406E-3
370.687294E-3
370.984268E-3
372.199631E-3
374.296188E-3
377.126312E-3
380.337524E-3
383.564758E-3
386.509323E-3
388.738632E-3
390.376854E-3
390.794563E-3
390.364265E-3
389.283943E-3
387.729263E-3
386.041832E-3
384.508896E-3
383.252335E-3
382.344818E-3
381.464195E-3
381.056213E-3
380.919456E-3
380.966949E-3
381.234741E-3
381.529427E-3
381.869316E-3
382.052422E-3
381.826401E-3
381.225014E-3
380.462265E-3
379.612541E-3
378.979683E-3
378.593445E-3
378.598595E-3
378.587151E-3
378.874397E-3
379.284096E-3
379.546165E-3
379.910660E-3
380.116653E-3
380.098343E-3
379.947281E-3
379.631996E-3
379.397392E-3
379.333305E-3
379.034042E-3
378.635216E-3
378.222656E-3
377.877045E-3
377.395821E-3
377.005577E-3
376.691437E-3
376.355553E-3
376.305771E-3
376.000214E-3
375.725555E-3
375.561333E-3
375.433731E-3
375.344467E-3
375.187683E-3
374.969673E-3
374.777985E-3
374.503899E-3
374.574280E-3
374.379158E-3
374.278450E-3
374.135399E-3
373.986626E-3
373.992920E-3
373.964310E-3
374.008942E-3
373.985481E-3
373.939705E-3
373.986053E-3
373.831558E-3
373.768616E-3
373.652458E-3
373.472786E-3
373.389816E-3
373.172379E-3
372.803879E-3
372.622490E-3
372.379875E-3
372.345543E-3
372.032547E-3
371.838570E-3
371.771049E-3
371.837425E-3
372.236824E-3
373.492813E-3
375.799942E-3
378.603172E-3
381.915665E-3
385.278511E-3
388.211060E-3
390.570831E-3
392.090034E-3
392.639351E-3
392.429352E-3
391.343307E-3
389.984322E-3
388.461113E-3
387.078094E-3
385.942841E-3
384.972382E-3
384.242821E-3
384.071732E-3
383.879471E-3
384.148979E-3
384.398460E-3
384.666824E-3
385.032463E-3
385.177803E-3
385.171509E-3
384.936905E-3
384.362411E-3
383.675766E-3
382.665825E-3
381.792641E-3
381.173515E-3
380.740356E-3
380.632210E-3
380.649948E-3
380.858231E-3
381.115723E-3
381.326294E-3
381.584358E-3
381.693649E-3
381.718826E-3
381.641006E-3
381.365204E-3
381.095123E-3
380.571556E-3
380.247116E-3
379.885483E-3
379.417419E-3
379.007149E-3
378.652954E-3
378.357697E-3
377.938271E-3
377.679634E-3
377.476501E-3
377.128601E-3
376.952934E-3
376.639938E-3
376.473427E-3
376.296616E-3
376.124382E-3
376.212502E-3
376.060295E-3
375.837135E-3
375.735855E-3
375.558472E-3
375.392532E-3
375.314140E-3
375.501823E-3
376.016235E-3
376.255989E-3
376.638222E-3
376.892281E-3
377.012444E-3
377.110863E-3
377.132607E-3
377.386665E-3
377.452469E-3
377.509689E-3
377.613258E-3
377.404404E-3
377.495956E-3
377.247620E-3
377.067375E-3
376.974106E-3
376.631355E-3
376.377296E-3
376.134109E-3
375.916672E-3
375.614548E-3
375.102425E-3
374.804306E-3
374.509048E-3
374.447823E-3
375.082970E-3
376.402473E-3
378.750229E-3
381.756592E-3
385.092545E-3
388.294601E-3
391.159058E-3
393.257332E-3
394.281006E-3
394.487000E-3
393.964005E-3
392.853928E-3
391.379356E-3
389.760017E-3
388.237953E-3
387.017441E-3
385.987473E-3
385.415268E-3
385.101128E-3
384.875107E-3
385.159492E-3
385.356331E-3
385.724258E-3
385.910225E-3
386.063004E-3
386.078453E-3
385.582352E-3
385.002136E-3
383.886909E-3
382.826042E-3
382.065582E-3
381.367493E-3
381.057930E-3
380.949211E-3
380.959511E-3
381.154633E-3
381.182671E-3
381.439590E-3
381.534576E-3
381.520844E-3
381.379509E-3
381.148338E-3
380.987549E-3
380.627632E-3
380.116653E-3
379.894638E-3
379.404831E-3
379.151917E-3
378.682137E-3
378.247261E-3
377.976036E-3
377.636719E-3
377.346039E-3
377.073097E-3
376.696587E-3
376.457405E-3
376.180458E-3
376.084900E-3
375.937843E-3
375.647163E-3
375.592804E-3
375.362778E-3
375.421143E-3
375.123596E-3
374.894714E-3
374.738503E-3
374.548531E-3
374.503326E-3
374.349976E-3
374.259567E-3
374.310493E-3
374.269295E-3
374.069023E-3
373.860741E-3
373.636436E-3
373.561478E-3
373.459625E-3
373.468208E-3
373.344612E-3
373.167801E-3
373.147774E-3
372.878838E-3
372.787285E-3
372.764969E-3
372.595024E-3
372.549820E-3
372.316933E-3
372.153854E-3
371.935272E-3
371.655464E-3
371.476364E-3
371.174240E-3
371.013451E-3
370.804596E-3
370.598030E-3
370.479012E-3
370.164299E-3
370.334244E-3
370.948219E-3
372.323227E-3
374.618340E-3
377.685928E-3
381.110001E-3
384.476280E-3
387.381935E-3
389.507103E-3
390.864372E-3
391.209984E-3
390.535927E-3
389.341736E-3
387.740707E-3
385.990906E-3
384.508324E-3
383.247185E-3
382.157707E-3
381.691933E-3
381.476784E-3
381.504822E-3
381.690788E-3
381.905937E-3
382.197189E-3
382.539368E-3
382.781982E-3
382.495880E-3
382.131958E-3
381.597519E-3
380.695152E-3
379.823112E-3
379.319572E-3
379.090691E-3
379.064369E-3
379.087830E-3
379.212570E-3
379.358482E-3
379.584503E-3
379.959297E-3
380.207634E-3
380.249405E-3
380.152702E-3
379.634857E-3
379.418564E-3
379.104996E-3
378.851509E-3
378.558540E-3
378.222084E-3
377.762032E-3
377.412415E-3
377.219582E-3
376.901436E-3
376.591301E-3
376.411629E-3
376.132965E-3
376.008797E-3
375.871468E-3
375.671768E-3
375.652885E-3
375.457191E-3
375.105286E-3
374.954796E-3
374.840927E-3
374.888420E-3
374.803162E-3
374.652100E-3
374.581718E-3
374.341965E-3
374.218941E-3
374.090767E-3
373.945427E-3
374.020386E-3
374.020386E-3
373.866463E-3
373.786926E-3
373.567200E-3
373.457909E-3
373.402977E-3
373.479080E-3
373.408699E-3
373.294258E-3
373.211861E-3
373.036766E-3
372.859383E-3
372.624207E-3
372.607613E-3
372.298622E-3
372.016525E-3
371.986771E-3
371.689796E-3
371.394539E-3
371.135330E-3
370.889854E-3
370.745659E-3
370.728493E-3
371.266365E-3
372.588158E-3
374.636650E-3
377.705956E-3
381.040192E-3
384.318352E-3
387.219429E-3
389.584923E-3
391.008568E-3
391.577911E-3
391.430283E-3
390.713882E-3
389.488792E-3
388.106918E-3
386.604309E-3
385.426140E-3
384.401894E-3
383.526421E-3
383.300972E-3
383.274078E-3
383.401108E-3
383.722687E-3
384.019089E-3
384.393311E-3
384.523201E-3
384.674835E-3
384.689140E-3
384.197617E-3
383.311844E-3
382.282448E-3
381.344032E-3
380.600166E-3
380.053711E-3
379.873466E-3
379.753876E-3
379.995918E-3
380.204773E-3
380.371284E-3
380.688858E-3
380.799294E-3
380.834198E-3
380.817604E-3
380.671692E-3
380.409050E-3
380.003357E-3
379.712105E-3
379.186249E-3
378.730202E-3
378.353119E-3
377.917099E-3
377.622414E-3
377.313995E-3
377.136040E-3
376.820183E-3
376.521492E-3
376.194191E-3
375.993347E-3
375.696373E-3
375.628281E-3
375.403404E-3
375.219154E-3
375.275803E-3
375.113869E-3
375.055504E-3
374.840355E-3
374.713326E-3
374.580574E-3
374.418640E-3
374.345398E-3
374.457550E-3
374.300766E-3
374.245262E-3
374.176598E-3
374.129105E-3
373.962593E-3
373.841286E-3
373.814964E-3
373.559189E-3
373.427010E-3
373.188400E-3
373.127174E-3
373.022461E-3
372.983551E-3
372.943497E-3
372.897148E-3
372.882843E-3
372.790718E-3
372.580719E-3
372.462845E-3
372.338104E-3
372.247696E-3
372.108078E-3
371.894646E-3
371.743584E-3
371.598816E-3
371.296692E-3
371.155357E-3
370.881844E-3
370.718765E-3
370.547676E-3
370.758820E-3
371.434021E-3
372.799873E-3
375.216866E-3
378.113937E-3
381.491089E-3
384.958076E-3
387.864304E-3
390.192604E-3
391.465187E-3
391.990471E-3
391.633415E-3
390.308762E-3
389.088821E-3
387.615967E-3
386.195183E-3
384.978676E-3
383.959579E-3
383.473206E-3
383.056641E-3
382.964516E-3
383.270073E-3
383.370781E-3
383.743858E-3
383.993340E-3
384.177589E-3
384.350395E-3
384.045410E-3
383.706093E-3
382.991982E-3
382.091904E-3
381.191826E-3
380.294609E-3
379.850006E-3
379.507828E-3
379.358482E-3
379.392815E-3
379.323006E-3
379.578781E-3
379.767036E-3
379.974174E-3
379.953575E-3
379.782486E-3
379.558182E-3
379.316139E-3
379.013443E-3
378.654671E-3
378.136826E-3
377.803230E-3
377.350044E-3
377.030754E-3
376.708603E-3
376.266861E-3
376.079750E-3
375.730705E-3
375.402260E-3
375.188828E-3
374.807167E-3
374.696159E-3
374.434090E-3
374.216652E-3
374.088478E-3
373.964882E-3
373.937416E-3
373.857307E-3
373.612976E-3
373.441315E-3
373.275948E-3
373.154640E-3
372.994995E-3
372.921181E-3
372.911453E-3
372.746086E-3
372.676277E-3
372.663116E-3
372.449684E-3
372.239685E-3
371.946144E-3
371.934128E-3
371.736145E-3
371.760750E-3
371.606255E-3
371.325302E-3
371.234894E-3
371.032333E-3
370.991707E-3
370.876694E-3
370.658684E-3
370.539093E-3
370.412636E-3
370.247841E-3
370.281029E-3
370.123100E-3
369.946861E-3
369.924545E-3
369.660759E-3
369.528580E-3
369.343185E-3
369.087982E-3
368.824768E-3
368.794441E-3
368.653679E-3
368.300629E-3
368.142128E-3
368.050003E-3
368.226814E-3
369.175529E-3
371.153069E-3
373.600388E-3
376.543808E-3
379.760742E-3
382.947922E-3
385.517693E-3
387.303543E-3
388.091469E-3
388.015938E-3
387.241173E-3
385.844994E-3
384.362411E-3
382.904434E-3
381.544304E-3
380.489731E-3
379.524994E-3
379.101562E-3
378.818893E-3
378.839493E-3
379.147911E-3
379.201126E-3
379.552460E-3
379.705811E-3
379.954147E-3
379.974174E-3
379.744720E-3
379.034042E-3
378.133965E-3
377.385521E-3
376.812172E-3
376.515770E-3
