Notes :


2023-11-10 ¿ÀÈÄ 10:15:49
Volts
Ch : LED 2,
306.492805E-3
307.521057E-3
308.942986E-3
310.424995E-3
311.965370E-3
313.491440E-3
314.496231E-3
315.255547E-3
315.613174E-3
315.471268E-3
314.898491E-3
313.982391E-3
313.041115E-3
312.472916E-3
311.765099E-3
311.115646E-3
310.525131E-3
310.235023E-3
310.015297E-3
309.927177E-3
309.894562E-3
309.988403E-3
310.097122E-3
310.192680E-3
310.003281E-3
309.824753E-3
309.412766E-3
309.095764E-3
308.849144E-3
308.579063E-3
308.531570E-3
308.286095E-3
308.486366E-3
308.653450E-3
308.690643E-3
308.894920E-3
308.973312E-3
309.023666E-3
308.994484E-3
308.742714E-3
308.598518E-3
308.312988E-3
308.135605E-3
307.873535E-3
307.672691E-3
307.555389E-3
307.324791E-3
307.067299E-3
306.849289E-3
306.605530E-3
306.479645E-3
306.261635E-3
306.219292E-3
306.122589E-3
306.041908E-3
306.033897E-3
305.890846E-3
305.940628E-3
305.902863E-3
305.790710E-3
305.708885E-3
305.665398E-3
305.665398E-3
305.547523E-3
305.550957E-3
305.508614E-3
305.463982E-3
305.457115E-3
305.489159E-3
305.483437E-3
305.445099E-3
305.350113E-3
305.361557E-3
305.333519E-3
305.191612E-3
305.147552E-3
304.976463E-3
304.926682E-3
304.747009E-3
304.654312E-3
304.675484E-3
304.562759E-3
304.589081E-3
304.389954E-3
304.133034E-3
304.114723E-3
303.964806E-3
303.781700E-3
303.600311E-3
303.428078E-3
303.295898E-3
303.190613E-3
303.172874E-3
303.270149E-3
303.294754E-3
303.838348E-3
304.673767E-3
305.946922E-3
307.352257E-3
308.767319E-3
310.289955E-3
311.351395E-3
312.096405E-3
312.363052E-3
312.145042E-3
311.649513E-3
310.843277E-3
309.911728E-3
308.988190E-3
308.155632E-3
307.448959E-3
306.761169E-3
306.475067E-3
306.138039E-3
305.893135E-3
305.865669E-3
305.941772E-3
306.000710E-3
306.040764E-3
305.916595E-3
305.689430E-3
305.429649E-3
305.219078E-3
305.053711E-3
304.927826E-3
304.959869E-3
304.986763E-3
305.230522E-3
305.413628E-3
305.571556E-3
305.908012E-3
305.937767E-3
305.985832E-3
305.873680E-3
305.609894E-3
305.504036E-3
305.116653E-3
304.868889E-3
304.643440E-3
304.415131E-3
304.188538E-3
303.916740E-3
303.805733E-3
303.679276E-3
303.574562E-3
303.459549E-3
303.367424E-3
303.243828E-3
303.223228E-3
303.150558E-3
303.218651E-3
303.155708E-3
303.271294E-3
303.234673E-3
303.141975E-3
303.211212E-3
303.165436E-3
303.224373E-3
303.378868E-3
303.503609E-3
303.683281E-3
303.693581E-3
303.838348E-3
303.943634E-3
304.031181E-3
304.242325E-3
304.292679E-3
304.375648E-3
304.439163E-3
304.418564E-3
304.384232E-3
304.424286E-3
304.423714E-3
304.289246E-3
304.290390E-3
304.347038E-3
304.296112E-3
304.427147E-3
304.397964E-3
304.367638E-3
304.466629E-3
304.356766E-3
304.423714E-3
304.268646E-3
304.273224E-3
304.426003E-3
304.672623E-3
305.427933E-3
306.476212E-3
307.930756E-3
309.778976E-3
311.424065E-3
313.139534E-3
314.529991E-3
315.494728E-3
315.906715E-3
315.850639E-3
315.493011E-3
314.816666E-3
313.975525E-3
313.254547E-3
312.622261E-3
312.167358E-3
311.805725E-3
311.533356E-3
311.466408E-3
311.373711E-3
311.392021E-3
311.535072E-3
311.617470E-3
311.681557E-3
311.588860E-3
311.539650E-3
311.174583E-3
310.756302E-3
310.483360E-3
310.108566E-3
310.026169E-3
310.005569E-3
309.996414E-3
310.122871E-3
310.197830E-3
310.375214E-3
310.469055E-3
310.513115E-3
310.606384E-3
310.462189E-3
310.276222E-3
310.132599E-3
309.871674E-3
309.654808E-3
309.402466E-3
309.193039E-3
308.850288E-3
308.554459E-3
308.438873E-3
308.171654E-3
308.144760E-3
308.104706E-3
307.996559E-3
308.030891E-3
307.911873E-3
307.845497E-3
307.714462E-3
307.601166E-3
307.651520E-3
307.521057E-3
307.561684E-3
307.605171E-3
307.468987E-3
307.602310E-3
307.526779E-3
307.509613E-3
307.507896E-3
307.486153E-3
307.426071E-3
307.321358E-3
307.343102E-3
307.305908E-3
307.282448E-3
307.485008E-3
307.320213E-3
307.442093E-3
307.371712E-3
307.264709E-3
307.330513E-3
307.224655E-3
307.273865E-3
307.211494E-3
307.148552E-3
307.146263E-3
307.010078E-3
307.092476E-3
307.043839E-3
306.892204E-3
306.852150E-3
306.617546E-3
306.590080E-3
306.575775E-3
306.485367E-3
306.550026E-3
306.629562E-3
307.182884E-3
307.951927E-3
309.016800E-3
310.578918E-3
312.230873E-3
314.100838E-3
315.682411E-3
316.892052E-3
317.817879E-3
318.187523E-3
318.182373E-3
317.638779E-3
316.850281E-3
316.129875E-3
315.126801E-3
314.546013E-3
313.929749E-3
313.414192E-3
313.224220E-3
312.995911E-3
312.958145E-3
312.972450E-3
312.956429E-3
313.167000E-3
313.069725E-3
312.963295E-3
312.711525E-3
312.225151E-3
311.795998E-3
311.243248E-3
310.926247E-3
310.653877E-3
310.415840E-3
310.598373E-3
310.550308E-3
310.695076E-3
310.947990E-3
310.926247E-3
310.965157E-3
310.815239E-3
310.661316E-3
310.442734E-3
310.182381E-3
310.028458E-3
309.714890E-3
309.508896E-3
309.279442E-3
308.932114E-3
308.766747E-3
308.436012E-3
308.310699E-3
308.177376E-3
308.048058E-3
307.987404E-3
307.850075E-3
307.857513E-3
307.787132E-3
307.582283E-3
307.646942E-3
307.489014E-3
307.491302E-3
307.479858E-3
307.300186E-3
307.412338E-3
307.258987E-3
307.291603E-3
307.336807E-3
307.140541E-3
307.156563E-3
307.166862E-3
307.100487E-3
307.047272E-3
306.887627E-3
307.020378E-3
306.865311E-3
306.861877E-3
306.806946E-3
306.717110E-3
306.782341E-3
306.765747E-3
306.590652E-3
306.524277E-3
306.484795E-3
306.441879E-3
306.361198E-3
306.285667E-3
306.199837E-3
306.048775E-3
306.103134E-3
305.881119E-3
305.784416E-3
305.581284E-3
305.401039E-3
305.395317E-3
305.272865E-3
305.346107E-3
305.506325E-3
305.820465E-3
306.746864E-3
307.870102E-3
309.453964E-3
311.121941E-3
312.803078E-3
314.288521E-3
315.347672E-3
316.077232E-3
316.041756E-3
315.518188E-3
314.829826E-3
313.928604E-3
313.148689E-3
312.316704E-3
311.513329E-3
311.090469E-3
310.546875E-3
310.261917E-3
310.137749E-3
310.119438E-3
310.248184E-3
310.217285E-3
310.351181E-3
310.224152E-3
309.948921E-3
309.690285E-3
309.177017E-3
308.872032E-3
308.720970E-3
308.556175E-3
308.639145E-3
308.770180E-3
309.036827E-3
309.204483E-3
309.329224E-3
309.499741E-3
309.397888E-3
309.403038E-3
309.303474E-3
308.950996E-3
308.819389E-3
308.496094E-3
308.367920E-3
308.050346E-3
307.710457E-3
307.569122E-3
307.274437E-3
307.186890E-3
307.010078E-3
306.782341E-3
306.819534E-3
306.691360E-3
306.650734E-3
306.570053E-3
306.464195E-3
306.556892E-3
306.491661E-3
306.433296E-3
306.449318E-3
306.344032E-3
306.380081E-3
306.323433E-3
306.374359E-3
306.456184E-3
306.298256E-3
306.424713E-3
306.293678E-3
306.225586E-3
306.150627E-3
306.170082E-3
306.298256E-3
306.148911E-3
306.245041E-3
306.206131E-3
306.104851E-3
306.187248E-3
306.138039E-3
306.128311E-3
306.096840E-3
305.971527E-3
305.989265E-3
305.970383E-3
305.956078E-3
305.912590E-3
305.738640E-3
305.791855E-3
305.565262E-3
305.508614E-3
305.513763E-3
305.478859E-3
305.561829E-3
305.533218E-3
305.728912E-3
306.214714E-3
307.086182E-3
308.369637E-3
309.974670E-3
311.836052E-3
313.613319E-3
315.317345E-3
316.771317E-3
317.568398E-3
317.853928E-3
317.544365E-3
316.973305E-3
316.168213E-3
315.223503E-3
314.425850E-3
313.842773E-3
313.241386E-3
312.974739E-3
312.689209E-3
312.716103E-3
312.698364E-3
312.690353E-3
313.015366E-3
313.014221E-3
313.068581E-3
312.906075E-3
312.522697E-3
312.171936E-3
311.638069E-3
311.178017E-3
310.896492E-3
310.736847E-3
310.772324E-3
310.786629E-3
310.997772E-3
311.180878E-3
311.272430E-3
311.379433E-3
311.302757E-3
311.321640E-3
311.136818E-3
310.839272E-3
310.697365E-3
310.470772E-3
310.218430E-3
309.974098E-3
309.583282E-3
309.425926E-3
309.155273E-3
308.981895E-3
308.846855E-3
308.629417E-3
308.691216E-3
308.473206E-3
308.481216E-3
308.405685E-3
308.311844E-3
308.258629E-3
308.163643E-3
308.135033E-3
308.108711E-3
307.982826E-3
308.170509E-3
308.094978E-3
308.020592E-3
308.047485E-3
307.900429E-3
307.961655E-3
307.842636E-3
307.806587E-3
307.740211E-3
307.782555E-3
307.968521E-3
307.776260E-3
307.727051E-3
307.727051E-3
307.582283E-3
307.674980E-3
307.508469E-3
307.524490E-3
307.475281E-3
307.339668E-3
307.397461E-3
307.322502E-3
307.296181E-3
307.249260E-3
307.114220E-3
307.226944E-3
307.106781E-3
307.090187E-3
306.979179E-3
306.707382E-3
306.717682E-3
306.605530E-3
306.605530E-3
306.620407E-3
306.784630E-3
307.166862E-3
307.797432E-3
308.996773E-3
310.503387E-3
312.191391E-3
314.177513E-3
315.917015E-3
317.534637E-3
318.510246E-3
318.844986E-3
318.993187E-3
318.464470E-3
317.780113E-3
316.898346E-3
316.071510E-3
315.347099E-3
314.611244E-3
314.146042E-3
313.883972E-3
313.705444E-3
313.746643E-3
313.627625E-3
313.776398E-3
313.861084E-3
313.843346E-3
313.894844E-3
313.439369E-3
313.033104E-3
312.565041E-3
311.966515E-3
311.708450E-3
311.387444E-3
311.189461E-3
311.226654E-3
311.129951E-3
311.317062E-3
311.297035E-3
311.443520E-3
311.511040E-3
311.438370E-3
311.341095E-3
310.958862E-3
310.789490E-3
310.554314E-3
310.260201E-3
310.087967E-3
309.762955E-3
309.522057E-3
309.206772E-3
308.769035E-3
308.710098E-3
308.464622E-3
308.444595E-3
308.271217E-3
308.080101E-3
308.125877E-3
307.986259E-3
307.945633E-3
307.781410E-3
307.640076E-3
307.768250E-3
307.628632E-3
307.724190E-3
307.630920E-3
307.545090E-3
307.586861E-3
307.433510E-3
307.376862E-3
307.378006E-3
307.344818E-3
307.360840E-3
307.177734E-3
307.223511E-3
307.192612E-3
307.042122E-3
307.079887E-3
306.950569E-3
306.844139E-3
306.807518E-3
306.654167E-3
306.733704E-3
306.591225E-3
306.502533E-3
306.469917E-3
306.297684E-3
306.480217E-3
306.297684E-3
306.237602E-3
306.197548E-3
306.023026E-3
305.884552E-3
305.632782E-3
305.566978E-3
305.417633E-3
305.439949E-3
305.482292E-3
305.440521E-3
305.698013E-3
306.289673E-3
307.123947E-3
308.604240E-3
310.077667E-3
311.761665E-3
313.494873E-3
314.850426E-3
315.915871E-3
316.317558E-3
316.138458E-3
315.676689E-3
314.793205E-3
313.942337E-3
312.961578E-3
312.221146E-3
311.490440E-3
310.870171E-3
310.557175E-3
310.220146E-3
310.201836E-3
310.147476E-3
310.139465E-3
310.423279E-3
310.348892E-3
310.283089E-3
309.984970E-3
309.570122E-3
309.245682E-3
308.833122E-3
308.633995E-3
308.556175E-3
308.611107E-3
308.738136E-3
308.866882E-3
309.085464E-3
309.333229E-3
309.377861E-3
309.460258E-3
309.206772E-3
309.042549E-3
308.770180E-3
308.464050E-3
308.181953E-3
307.916451E-3
307.702446E-3
307.456970E-3
307.146263E-3
307.008362E-3
306.757736E-3
306.570053E-3
306.522560E-3
306.312561E-3
306.287956E-3
306.130028E-3
306.076241E-3
306.039619E-3
305.841637E-3
305.875969E-3
305.737495E-3
305.807877E-3
305.897713E-3
305.858803E-3
305.958366E-3
305.813599E-3
305.702019E-3
305.660820E-3
305.524635E-3
305.657959E-3
305.575562E-3
305.652809E-3
305.592728E-3
305.521202E-3
305.767822E-3
305.611038E-3
305.581856E-3
305.612755E-3
305.438232E-3
305.518913E-3
305.496025E-3
305.459976E-3
305.444527E-3
305.330086E-3
305.320358E-3
305.214500E-3
305.134964E-3
305.054855E-3
304.890060E-3
304.888916E-3
304.743576E-3
304.730988E-3
304.738426E-3
304.878044E-3
305.349541E-3
306.111717E-3
307.283592E-3
308.888054E-3
310.518265E-3
312.371635E-3
313.993263E-3
315.341377E-3
316.187668E-3
316.455460E-3
316.346741E-3
315.817451E-3
314.997482E-3
314.186668E-3
313.331223E-3
312.676048E-3
312.083817E-3
311.615753E-3
311.409187E-3
311.239815E-3
311.310196E-3
311.221504E-3
311.370850E-3
311.537933E-3
311.511612E-3
311.569405E-3
311.194611E-3
310.811234E-3
310.505676E-3
310.051346E-3
309.956932E-3
309.847069E-3
309.831047E-3
309.976387E-3
310.000420E-3
310.315132E-3
310.428429E-3
310.498810E-3
310.552597E-3
310.433006E-3
310.446739E-3
310.200119E-3
309.994698E-3
309.784126E-3
309.423637E-3
309.325218E-3
309.008789E-3
308.843422E-3
308.577919E-3
308.265495E-3
308.176231E-3
307.950211E-3
307.856941E-3
307.835770E-3
307.664680E-3
307.742500E-3
307.593155E-3
307.622910E-3
307.511330E-3
307.459259E-3
307.455826E-3
307.419777E-3
307.396317E-3
307.360840E-3
307.336807E-3
307.380295E-3
307.396317E-3
307.392311E-3
307.323647E-3
307.241821E-3
307.333946E-3
307.198906E-3
307.329369E-3
307.407761E-3
307.281876E-3
307.430649E-3
307.337952E-3
307.352829E-3
307.309914E-3
307.182884E-3
307.181740E-3
307.055283E-3
307.030678E-3
306.990051E-3
306.831551E-3
306.850433E-3
306.757736E-3
306.747437E-3
306.559181E-3
306.380081E-3
306.370926E-3
306.307411E-3
306.417847E-3
306.521416E-3
306.764030E-3
307.578278E-3
308.679199E-3
310.247612E-3
312.062073E-3
313.795853E-3
315.739059E-3
317.145538E-3
318.194962E-3
318.604660E-3
318.538284E-3
318.041611E-3
317.074585E-3
316.223717E-3
315.344238E-3
314.525986E-3
313.956642E-3
313.463974E-3
313.181877E-3
313.037109E-3
312.983322E-3
313.149261E-3
313.123512E-3
313.296318E-3
313.260269E-3
313.132095E-3
312.793350E-3
312.298393E-3
311.742210E-3
311.331940E-3
310.814095E-3
310.739708E-3
310.537148E-3
310.525131E-3
310.566330E-3
310.552597E-3
310.669899E-3
310.724831E-3
310.721970E-3
310.690498E-3
310.404968E-3
310.233879E-3
309.857941E-3
309.583855E-3
309.364128E-3
308.805084E-3
308.426857E-3
307.775116E-3
307.307625E-3
306.842422E-3
306.492233E-3
306.243324E-3
305.738640E-3
305.570412E-3
305.362701E-3
305.157852E-3
304.997063E-3
304.874611E-3
304.821396E-3
304.812813E-3
304.668045E-3
304.586220E-3
304.347038E-3
304.222298E-3
304.190826E-3
304.124451E-3
304.197693E-3
304.093552E-3
304.179955E-3
304.199409E-3
304.042625E-3
303.997993E-3
303.894997E-3
303.832054E-3
303.824615E-3
303.872681E-3
304.002571E-3
303.952789E-3
303.916168E-3
304.034042E-3
303.909874E-3
303.873253E-3
303.628349E-3
303.591156E-3
303.484154E-3
303.366280E-3
303.416061E-3
303.160858E-3
303.121948E-3
302.990341E-3
302.791786E-3
302.804375E-3
302.720833E-3
302.767754E-3
302.921677E-3
303.219223E-3
304.185677E-3
305.274582E-3
306.865883E-3
308.760452E-3
310.536575E-3
312.124443E-3
313.185883E-3
313.959503E-3
314.043045E-3
313.616753E-3
312.942123E-3
311.913872E-3
310.834694E-3
310.036469E-3
309.144402E-3
308.728981E-3
308.173370E-3
308.044624E-3
307.859230E-3
307.769394E-3
307.899857E-3
307.871819E-3
308.001709E-3
307.973671E-3
307.621765E-3
307.324791E-3
306.963158E-3
306.579208E-3
306.378937E-3
306.151772E-3
306.303406E-3
306.239319E-3
306.532288E-3
306.747437E-3
306.988335E-3
307.125664E-3
307.093620E-3
307.004929E-3
306.879044E-3
306.539154E-3
306.383514E-3
306.122589E-3
305.782127E-3
305.648232E-3
305.340385E-3
305.148697E-3
304.747009E-3
304.507256E-3
304.396248E-3
304.130745E-3
304.079819E-3
303.937912E-3
303.875542E-3
303.816605E-3
303.564262E-3
303.576279E-3
303.482437E-3
303.442955E-3
303.519630E-3
303.380585E-3
303.488159E-3
303.408623E-3
303.371429E-3
303.377724E-3
303.282166E-3
303.347397E-3
303.202057E-3
303.212357E-3
303.283310E-3
303.237534E-3
303.285027E-3
303.187180E-3
303.199196E-3
303.260994E-3
