Notes :


2023-11-13 ¿ÀÀü 12:54:57
Volts
Ch : LED 2,
901.655388E-3
901.488304E-3
901.308632E-3
901.166725E-3
901.337242E-3
901.132965E-3
901.222229E-3
900.971603E-3
900.941849E-3
901.084900E-3
901.150131E-3
901.187325E-3
901.177025E-3
901.197052E-3
901.226234E-3
901.096344E-3
901.276016E-3
901.126099E-3
901.093483E-3
901.011658E-3
901.001358E-3
900.918388E-3
900.762177E-3
900.783348E-3
900.636292E-3
900.643158E-3
900.410843E-3
900.088120E-3
899.764252E-3
899.748230E-3
899.281883E-3
898.995209E-3
898.566055E-3
898.267365E-3
898.119164E-3
897.782135E-3
897.687721E-3
897.772408E-3
898.419571E-3
899.654961E-3
901.355553E-3
903.410912E-3
905.407333E-3
906.932831E-3
908.074951E-3
908.815956E-3
909.309196E-3
909.658813E-3
909.683418E-3
909.904861E-3
909.580421E-3
909.381866E-3
909.081459E-3
908.652878E-3
908.446312E-3
908.097267E-3
907.864380E-3
907.620049E-3
907.434654E-3
907.447815E-3
907.241821E-3
907.328224E-3
907.110214E-3
907.069588E-3
907.081032E-3
906.734276E-3
906.483078E-3
906.305695E-3
905.758667E-3
905.679131E-3
905.384445E-3
905.209351E-3
905.180168E-3
905.174446E-3
905.271721E-3
905.319786E-3
905.366707E-3
905.347252E-3
905.215645E-3
905.387306E-3
905.314064E-3
905.350685E-3
905.063438E-3
904.812813E-3
904.785347E-3
904.459763E-3
904.390526E-3
904.018593E-3
903.816605E-3
903.698158E-3
903.283882E-3
903.072166E-3
902.865601E-3
902.435875E-3
902.443886E-3
902.106285E-3
901.931763E-3
901.721764E-3
901.325798E-3
901.245117E-3
901.016808E-3
900.783920E-3
900.514984E-3
900.371361E-3
900.138474E-3
899.991989E-3
899.880981E-3
899.708176E-3
899.308205E-3
899.352264E-3
898.999786E-3
898.948288E-3
898.836136E-3
898.491096E-3
898.361778E-3
898.076248E-3
898.004150E-3
897.792435E-3
897.637367E-3
897.596169E-3
897.251701E-3
897.216225E-3
897.231674E-3
896.923828E-3
896.954155E-3
896.648598E-3
896.601677E-3
896.466064E-3
896.227455E-3
895.829773E-3
895.583153E-3
895.397186E-3
895.121384E-3
894.831848E-3
894.684792E-3
894.249344E-3
894.103432E-3
893.942070E-3
894.125748E-3
894.671059E-3
895.557404E-3
897.325516E-3
899.639511E-3
901.506615E-3
903.163147E-3
903.917313E-3
904.656601E-3
904.991341E-3
905.326080E-3
905.530930E-3
905.406761E-3
905.360413E-3
905.232811E-3
904.871178E-3
904.975891E-3
904.523277E-3
904.229164E-3
904.049492E-3
903.909874E-3
903.939629E-3
903.707886E-3
903.738213E-3
903.643799E-3
903.678131E-3
903.705597E-3
903.490448E-3
903.322792E-3
903.054428E-3
902.663040E-3
902.525139E-3
902.148056E-3
902.133751E-3
902.086830E-3
902.018166E-3
902.098846E-3
902.111435E-3
902.169228E-3
902.246475E-3
902.274513E-3
902.400970E-3
902.199554E-3
902.057076E-3
901.865387E-3
901.491165E-3
901.523781E-3
900.984192E-3
900.704384E-3
900.349045E-3
900.012016E-3
899.653816E-3
899.530792E-3
899.125671E-3
899.263000E-3
899.225807E-3
899.174881E-3
898.758316E-3
898.520851E-3
898.285103E-3
897.949219E-3
897.885704E-3
897.586441E-3
897.434807E-3
897.193336E-3
896.922684E-3
896.714973E-3
896.467209E-3
896.420288E-3
896.234894E-3
896.116447E-3
896.027756E-3
895.747948E-3
895.669556E-3
895.602608E-3
895.365143E-3
895.266151E-3
895.015526E-3
894.918823E-3
894.899940E-3
894.494247E-3
894.460487E-3
894.231033E-3
894.099426E-3
894.011307E-3
893.664551E-3
893.590164E-3
893.428230E-3
893.088341E-3
892.769051E-3
892.399979E-3
892.216873E-3
891.816902E-3
891.535950E-3
891.325378E-3
891.015816E-3
891.012955E-3
890.928841E-3
891.466713E-3
892.809105E-3
894.625282E-3
896.444321E-3
897.937202E-3
898.828697E-3
899.616051E-3
899.847221E-3
900.109291E-3
900.220871E-3
900.428581E-3
900.506401E-3
900.284958E-3
900.280380E-3
900.054932E-3
899.951935E-3
899.826622E-3
899.493599E-3
899.577713E-3
899.375725E-3
899.382591E-3
899.278450E-3
898.999214E-3
899.139977E-3
899.086761E-3
899.106216E-3
898.974609E-3
898.750877E-3
898.503113E-3
898.243904E-3
897.913742E-3
897.776985E-3
897.683716E-3
897.830200E-3
897.780991E-3
897.922897E-3
897.873116E-3
897.873116E-3
897.984123E-3
898.020744E-3
897.965240E-3
898.064804E-3
897.723770E-3
897.743225E-3
897.530365E-3
897.241974E-3
896.988487E-3
896.769905E-3
896.636009E-3
896.234894E-3
895.967102E-3
895.844078E-3
895.456123E-3
895.260429E-3
895.111656E-3
894.801521E-3
894.764328E-3
894.473076E-3
894.403839E-3
894.095993E-3
893.876266E-3
893.774414E-3
893.641663E-3
893.515778E-3
893.255997E-3
893.068314E-3
893.134117E-3
892.830849E-3
892.804527E-3
892.622566E-3
892.605400E-3
892.432022E-3
892.242622E-3
892.216301E-3
891.922760E-3
891.897583E-3
891.842651E-3
891.693878E-3
891.699028E-3
891.506767E-3
891.380310E-3
891.437531E-3
891.267014E-3
891.154861E-3
891.010094E-3
890.872192E-3
890.828133E-3
890.507126E-3
890.486526E-3
890.062523E-3
889.867973E-3
889.544678E-3
889.308929E-3
889.090347E-3
888.694382E-3
888.412285E-3
888.453484E-3
888.681793E-3
889.732361E-3
891.231537E-3
893.066025E-3
894.792366E-3
895.959663E-3
896.733856E-3
897.116089E-3
897.528648E-3
897.941208E-3
897.910881E-3
898.265648E-3
898.279381E-3
898.172379E-3
898.194695E-3
898.042488E-3
897.989273E-3
897.954369E-3
897.833633E-3
897.917175E-3
897.856522E-3
897.873688E-3
897.929764E-3
897.886276E-3
897.984123E-3
897.860527E-3
897.881126E-3
897.897148E-3
897.812462E-3
897.583580E-3
897.479439E-3
897.407913E-3
897.403908E-3
897.291756E-3
897.362709E-3
897.189331E-3
897.253990E-3
897.301483E-3
897.474861E-3
897.391319E-3
897.305489E-3
897.481155E-3
897.421646E-3
897.275734E-3
897.332382E-3
897.073746E-3
897.145271E-3
897.043991E-3
896.834564E-3
896.678925E-3
896.246338E-3
896.195984E-3
896.031761E-3
895.823479E-3
895.877266E-3
895.499611E-3
895.338249E-3
895.254135E-3
895.207787E-3
895.025253E-3
894.890785E-3
894.750595E-3
894.610977E-3
894.486809E-3
894.481087E-3
894.248199E-3
894.236755E-3
894.007301E-3
893.908882E-3
893.943214E-3
893.818474E-3
893.686295E-3
893.558121E-3
893.578720E-3
893.502045E-3
893.237686E-3
893.341255E-3
893.077469E-3
893.134689E-3
892.924118E-3
892.853165E-3
892.841721E-3
892.635727E-3
892.650604E-3
892.604256E-3
892.333031E-3
892.299843E-3
892.197418E-3
892.235756E-3
891.975403E-3
891.716766E-3
891.625214E-3
891.408348E-3
891.281319E-3
891.007805E-3
890.642738E-3
890.471649E-3
890.283966E-3
890.190125E-3
890.275383E-3
890.273666E-3
891.115952E-3
892.657471E-3
894.327736E-3
896.047783E-3
897.408485E-3
898.397827E-3
898.975754E-3
899.658966E-3
899.844933E-3
899.982834E-3
900.220871E-3
900.341034E-3
900.470352E-3
900.579071E-3
900.528145E-3
900.488663E-3
900.526428E-3
900.536728E-3
900.481796E-3
900.422287E-3
900.591660E-3
900.601959E-3
900.778198E-3
900.903511E-3
900.995636E-3
901.095772E-3
901.120377E-3
901.035118E-3
901.123810E-3
900.875473E-3
900.894356E-3
900.938988E-3
901.020241E-3
901.014519E-3
901.046562E-3
901.277161E-3
901.433945E-3
901.630211E-3
901.735497E-3
901.919746E-3
902.092552E-3
902.231598E-3
902.319145E-3
902.417564E-3
902.310562E-3
902.281380E-3
902.209282E-3
902.145195E-3
902.180672E-3
902.023315E-3
902.133179E-3
901.934052E-3
901.690292E-3
901.784706E-3
901.548958E-3
901.473999E-3
901.419067E-3
901.395035E-3
901.387596E-3
901.227379E-3
901.322365E-3
901.244545E-3
901.163292E-3
901.173019E-3
901.040840E-3
901.128960E-3
901.193619E-3
901.098633E-3
900.798798E-3
901.090622E-3
901.177025E-3
901.130676E-3
901.058006E-3
901.204491E-3
901.191330E-3
901.420212E-3
901.449966E-3
901.340103E-3
901.474571E-3
901.396179E-3
901.535225E-3
901.525497E-3
901.591873E-3
901.863098E-3
902.169228E-3
902.146339E-3
902.091980E-3
902.030754E-3
902.110863E-3
902.159500E-3
902.241325E-3
902.168655E-3
902.047920E-3
902.152634E-3
901.922607E-3
901.260567E-3
900.354767E-3
900.029182E-3
899.864388E-3
899.973106E-3
900.107574E-3
900.698090E-3
901.598167E-3
903.247833E-3
905.275154E-3
907.137108E-3
908.665466E-3
909.596443E-3
910.430717E-3
910.806084E-3
911.208916E-3
911.511040E-3
911.417770E-3
911.301613E-3
911.022949E-3
910.953712E-3
910.661316E-3
910.288811E-3
910.039330E-3
909.661102E-3
909.681129E-3
909.576416E-3
909.333801E-3
909.241104E-3
909.176445E-3
909.191895E-3
909.019089E-3
908.799934E-3
908.450317E-3
908.010864E-3
907.728195E-3
907.432365E-3
907.329941E-3
907.346535E-3
907.379723E-3
907.535362E-3
907.279587E-3
907.565689E-3
907.832909E-3
907.832909E-3
907.972527E-3
907.894135E-3
907.725334E-3
907.491302E-3
907.359123E-3
907.111931E-3
906.788635E-3
906.368637E-3
906.100845E-3
905.756378E-3
905.530930E-3
905.204201E-3
904.970169E-3
904.760742E-3
904.071236E-3
904.035759E-3
903.864098E-3
903.638649E-3
903.523636E-3
903.297043E-3
903.211212E-3
902.899933E-3
902.744865E-3
902.212715E-3
902.177811E-3
902.210999E-3
901.954651E-3
901.783562E-3
901.730347E-3
901.571274E-3
901.392746E-3
901.306343E-3
901.447678E-3
901.115799E-3
900.903511E-3
900.670052E-3
900.569916E-3
900.314713E-3
900.270081E-3
899.990273E-3
899.874687E-3
899.717903E-3
899.484444E-3
899.459839E-3
899.138832E-3
899.107933E-3
898.951721E-3
898.731422E-3
898.523140E-3
898.209572E-3
897.914314E-3
897.584724E-3
897.213364E-3
897.166443E-3
896.760178E-3
896.733856E-3
896.543884E-3
896.565628E-3
897.094917E-3
898.058510E-3
899.737358E-3
901.680565E-3
903.184319E-3
904.570770E-3
905.383873E-3
905.974960E-3
906.378365E-3
906.489372E-3
906.810951E-3
906.605530E-3
906.640434E-3
906.566620E-3
906.295395E-3
906.217003E-3
905.813599E-3
905.845070E-3
905.689430E-3
905.572128E-3
905.515480E-3
905.423355E-3
905.435944E-3
905.284882E-3
905.313492E-3
905.368996E-3
905.443382E-3
905.228233E-3
904.858589E-3
904.540443E-3
904.332733E-3
904.130745E-3
904.030037E-3
904.175377E-3
903.997993E-3
904.048347E-3
904.174805E-3
904.380798E-3
904.409409E-3
904.428864E-3
904.634857E-3
904.451752E-3
904.355621E-3
904.259491E-3
904.379082E-3
904.137611E-3
903.678131E-3
903.407478E-3
903.233528E-3
902.907944E-3
902.964592E-3
902.684212E-3
902.313995E-3
902.004433E-3
901.793861E-3
901.719475E-3
901.543808E-3
901.297188E-3
901.100922E-3
900.866890E-3
901.012802E-3
900.681496E-3
900.468063E-3
900.372505E-3
900.066948E-3
900.135040E-3
899.874115E-3
899.836349E-3
899.616623E-3
899.566841E-3
899.558830E-3
899.337387E-3
899.323082E-3
899.192619E-3
899.064445E-3
899.070168E-3
898.887062E-3
898.851585E-3
898.591232E-3
898.475075E-3
898.544884E-3
898.358345E-3
898.265076E-3
898.124313E-3
898.093414E-3
897.983551E-3
897.790146E-3
897.826195E-3
897.630501E-3
897.284317E-3
897.233391E-3
896.816254E-3
896.589088E-3
896.448326E-3
896.088409E-3
895.818329E-3
895.545387E-3
895.384598E-3
895.371437E-3
895.592880E-3
896.451759E-3
897.845078E-3
899.812889E-3
901.705170E-3
903.206635E-3
904.363060E-3
905.033112E-3
905.667686E-3
905.891991E-3
906.096840E-3
906.407547E-3
906.323433E-3
906.433868E-3
906.267357E-3
905.853653E-3
905.683136E-3
905.376434E-3
905.418777E-3
905.321503E-3
905.224228E-3
905.260849E-3
904.990196E-3
905.207062E-3
905.296898E-3
905.365562E-3
905.402184E-3
905.353546E-3
905.140686E-3
904.987335E-3
904.745865E-3
904.838562E-3
904.522705E-3
904.386520E-3
904.391670E-3
904.403687E-3
904.515266E-3
904.529572E-3
904.740143E-3
904.916954E-3
904.950714E-3
905.093193E-3
905.046272E-3
905.101776E-3
904.929543E-3
904.852867E-3
904.706955E-3
904.398537E-3
904.375648E-3
904.123306E-3
903.891563E-3
903.886414E-3
903.683281E-3
903.496742E-3
903.197479E-3
903.045273E-3
902.997208E-3
902.803802E-3
903.088188E-3
902.664185E-3
902.422714E-3
902.479362E-3
902.077675E-3
902.141762E-3
901.891708E-3
901.607323E-3
901.593018E-3
901.437950E-3
901.520348E-3
901.474571E-3
901.435661E-3
901.401901E-3
901.183891E-3
901.171303E-3
900.774765E-3
900.904083E-3
900.948143E-3
900.818825E-3
900.858879E-3
900.743866E-3
900.531578E-3
900.581932E-3
900.419998E-3
900.203705E-3
900.251770E-3
900.172234E-3
900.139618E-3
900.086403E-3
900.032616E-3
899.978828E-3
899.879837E-3
899.795151E-3
899.934196E-3
899.673271E-3
899.260139E-3
899.055862E-3
899.042130E-3
898.739433E-3
898.638725E-3
898.372078E-3
898.165512E-3
898.553467E-3
898.188972E-3
898.415565E-3
899.207497E-3
900.534439E-3
902.616692E-3
904.569626E-3
906.341171E-3
907.681847E-3
909.001923E-3
909.479713E-3
909.697723E-3
910.004997E-3
910.074234E-3
910.086250E-3
909.891129E-3
909.599876E-3
909.349823E-3
909.340668E-3
908.898926E-3
908.794785E-3
908.592796E-3
908.453178E-3
908.381653E-3
908.350182E-3
908.990479E-3
908.576775E-3
908.432007E-3
908.421707E-3
908.123589E-3
908.056068E-3
907.558823E-3
907.273293E-3
906.947136E-3
907.147408E-3
907.070732E-3
906.895065E-3
906.935120E-3
907.236671E-3
907.451820E-3
907.557678E-3
907.569695E-3
907.561684E-3
907.730484E-3
907.490158E-3
907.460976E-3
906.970596E-3
906.689644E-3
906.595230E-3
906.220436E-3
906.020164E-3
905.565834E-3
905.489159E-3
905.131531E-3
904.706955E-3
904.410553E-3
904.248619E-3
903.971100E-3
903.719330E-3
903.391457E-3
903.301048E-3
902.874756E-3
902.895355E-3
902.771759E-3
902.527428E-3
902.424431E-3
902.116585E-3
902.109718E-3
901.903725E-3
901.685143E-3
901.463699E-3
901.455688E-3
901.276016E-3
901.083755E-3
900.987625E-3
900.908661E-3
900.748444E-3
900.354195E-3
900.387383E-3
900.070381E-3
900.057220E-3
899.840355E-3
899.674416E-3
899.677277E-3
899.464417E-3
899.407196E-3
898.839569E-3
898.798943E-3
898.838997E-3
898.594093E-3
898.445320E-3
898.241615E-3
897.937202E-3
897.719765E-3
897.326088E-3
896.852303E-3
896.726990E-3
896.609688E-3
896.519852E-3
896.344185E-3
896.432877E-3
896.892929E-3
897.902870E-3
899.736786E-3
901.243401E-3
903.316498E-3
904.502678E-3
905.631638E-3
906.349754E-3
906.484222E-3
906.913376E-3
907.077026E-3
907.081032E-3
907.274437E-3
906.861305E-3
906.783485E-3
906.492805E-3
906.334877E-3
905.984688E-3
905.676842E-3
905.674553E-3
905.573273E-3
905.686569E-3
905.630493E-3
905.549812E-3
905.557823E-3
905.475426E-3
905.390167E-3
905.458832E-3
905.041122E-3
904.841995E-3
904.137611E-3
904.239464E-3
904.073524E-3
903.932190E-3
903.979111E-3
903.989410E-3
904.151344E-3
904.336739E-3
904.281235E-3
904.323006E-3
904.440308E-3
904.379654E-3
904.367638E-3
904.154205E-3
903.986549E-3
903.810883E-3
903.299332E-3
903.180313E-3
902.914810E-3
902.725983E-3
902.422142E-3
902.260780E-3
902.071381E-3
901.626205E-3
901.574135E-3
901.438522E-3
901.241684E-3
901.131248E-3
900.719261E-3
900.747299E-3
900.506973E-3
900.255775E-3
900.128174E-3
899.972534E-3
899.968529E-3
899.804306E-3
899.628067E-3
899.473572E-3
899.285316E-3
899.202919E-3
899.130821E-3
899.088478E-3
898.954582E-3
898.682785E-3
898.761749E-3
898.673058E-3
898.567200E-3
898.413277E-3
898.310852E-3
898.294258E-3
898.028183E-3
897.909164E-3
898.252487E-3
897.763824E-3
897.500610E-3
897.303772E-3
897.129250E-3
897.248840E-3
896.951294E-3
896.939278E-3
896.779633E-3
