Notes :


2023-10-26 ¿ÀÈÄ 10:37:50
Volts
Ch : LED 2,
382.930756E-3
383.560753E-3
383.683205E-3
383.003998E-3
384.762383E-3
383.692932E-3
384.406471E-3
384.816742E-3
384.344673E-3
386.020660E-3
385.429573E-3
385.861588E-3
386.507607E-3
386.096764E-3
387.843132E-3
387.063217E-3
387.360191E-3
387.794495E-3
387.240028E-3
388.108635E-3
386.025810E-3
384.096336E-3
381.218719E-3
376.631927E-3
374.235535E-3
369.472504E-3
366.400337E-3
364.679146E-3
362.939072E-3
364.073181E-3
363.688660E-3
364.706039E-3
366.206932E-3
366.367149E-3
368.761253E-3
368.501472E-3
368.787003E-3
369.309998E-3
368.646812E-3
369.109154E-3
367.948723E-3
367.723274E-3
367.254639E-3
366.309929E-3
367.678642E-3
366.818619E-3
367.821121E-3
369.403267E-3
368.303490E-3
371.680641E-3
372.101212E-3
372.903442E-3
373.332024E-3
372.191620E-3
373.493385E-3
372.433090E-3
372.173309E-3
371.886635E-3
371.111870E-3
372.939491E-3
372.605324E-3
373.124886E-3
374.178314E-3
373.575211E-3
375.600243E-3
375.437164E-3
376.277733E-3
377.577209E-3
376.605034E-3
378.536224E-3
378.083611E-3
378.418922E-3
378.805733E-3
378.054428E-3
379.721832E-3
379.233170E-3
379.464912E-3
380.086899E-3
379.039192E-3
380.535507E-3
380.226517E-3
380.242538E-3
380.946350E-3
379.859161E-3
381.602097E-3
381.239891E-3
381.382942E-3
381.904221E-3
380.758667E-3
382.145691E-3
381.650734E-3
381.603813E-3
381.898499E-3
380.794144E-3
382.227516E-3
381.910515E-3
381.964874E-3
382.632637E-3
381.765175E-3
383.396530E-3
383.113289E-3
383.572197E-3
384.245110E-3
382.982826E-3
384.928894E-3
384.712601E-3
384.784126E-3
385.423279E-3
384.393883E-3
385.731697E-3
384.660530E-3
383.321571E-3
381.354332E-3
377.381516E-3
375.203705E-3
370.942497E-3
367.521858E-3
365.427017E-3
362.600327E-3
363.363075E-3
362.896729E-3
363.315010E-3
364.786148E-3
364.844513E-3
367.584801E-3
367.936134E-3
368.543243E-3
369.346046E-3
368.134117E-3
369.446182E-3
368.804169E-3
368.093491E-3
368.315506E-3
366.858101E-3
368.597603E-3
368.437958E-3
368.686295E-3
370.100784E-3
370.409203E-3
373.090553E-3
373.336601E-3
373.477364E-3
374.088478E-3
372.788429E-3
374.145126E-3
373.065376E-3
372.501755E-3
372.695160E-3
371.819115E-3
373.718262E-3
373.401260E-3
373.361778E-3
374.388885E-3
373.851585E-3
375.877762E-3
375.985909E-3
376.068878E-3
376.444244E-3
376.436806E-3
378.497887E-3
378.368568E-3
378.164864E-3
379.030609E-3
378.176308E-3
380.147552E-3
379.765320E-3
379.527283E-3
380.285454E-3
379.598236E-3
381.365204E-3
380.951500E-3
380.525208E-3
380.993271E-3
380.292892E-3
381.983185E-3
381.492233E-3
381.159782E-3
381.703377E-3
380.872536E-3
382.309341E-3
381.777191E-3
381.325722E-3
381.991768E-3
381.409264E-3
382.901001E-3
382.828903E-3
382.519341E-3
383.569908E-3
383.097267E-3
384.709167E-3
384.681129E-3
384.360123E-3
385.240746E-3
384.799576E-3
386.040688E-3
385.561752E-3
384.776688E-3
384.576988E-3
382.628632E-3
381.443024E-3
377.929115E-3
373.587799E-3
370.488167E-3
366.660118E-3
365.538025E-3
363.313293E-3
361.518288E-3
362.882423E-3
363.292122E-3
365.655899E-3
366.683006E-3
367.035484E-3
368.730927E-3
368.685150E-3
370.292473E-3
369.776344E-3
369.079971E-3
369.243622E-3
368.202209E-3
369.247627E-3
368.774414E-3
368.542671E-3
370.001793E-3
370.441818E-3
372.551537E-3
373.405266E-3
372.779846E-3
374.248123E-3
373.435593E-3
374.346542E-3
373.682213E-3
372.718620E-3
372.932625E-3
372.039413E-3
373.116875E-3
373.015022E-3
372.596741E-3
373.681641E-3
373.463631E-3
375.168228E-3
375.308990E-3
375.303268E-3
376.508331E-3
376.201630E-3
377.575493E-3
377.776909E-3
377.481651E-3
378.587723E-3
377.869606E-3
379.111862E-3
378.941917E-3
378.778267E-3
379.651451E-3
379.003143E-3
380.112076E-3
380.089188E-3
379.110146E-3
380.205917E-3
379.597092E-3
380.858803E-3
380.811882E-3
380.071449E-3
380.811882E-3
379.887199E-3
380.890846E-3
380.585861E-3
380.031395E-3
380.798721E-3
380.141258E-3
381.528854E-3
381.393814E-3
380.916595E-3
382.089615E-3
381.694221E-3
383.054352E-3
383.274078E-3
382.658958E-3
383.779907E-3
383.305550E-3
384.594154E-3
384.336090E-3
382.709885E-3
383.806229E-3
382.181740E-3
381.340599E-3
377.974892E-3
373.587799E-3
370.716476E-3
366.117096E-3
363.963318E-3
361.689377E-3
360.084915E-3
360.947800E-3
360.979843E-3
363.205719E-3
364.406204E-3
364.334679E-3
366.979408E-3
367.119598E-3
368.812180E-3
368.970680E-3
368.202209E-3
369.045067E-3
367.953300E-3
368.697166E-3
368.197060E-3
367.823982E-3
369.773483E-3
369.981194E-3
371.770477E-3
372.693443E-3
372.507477E-3
374.103355E-3
373.111725E-3
373.246765E-3
372.417068E-3
370.041847E-3
371.812248E-3
370.644951E-3
371.405983E-3
371.405983E-3
370.949364E-3
372.983551E-3
372.486877E-3
373.770332E-3
374.556541E-3
374.170876E-3
376.138687E-3
375.522995E-3
376.670265E-3
376.849365E-3
376.492310E-3
378.374290E-3
377.228737E-3
378.198624E-3
378.305626E-3
377.682495E-3
379.268646E-3
378.183746E-3
378.988266E-3
378.893280E-3
377.891922E-3
379.724121E-3
378.697586E-3
379.335022E-3
379.630852E-3
378.994560E-3
380.438805E-3
379.487228E-3
379.964447E-3
379.995346E-3
379.482079E-3
380.940056E-3
379.697800E-3
380.431938E-3
380.532646E-3
379.852295E-3
381.551170E-3
380.554962E-3
381.399536E-3
381.967163E-3
381.547737E-3
383.247757E-3
382.474709E-3
383.378220E-3
383.930397E-3
383.282089E-3
384.824753E-3
383.660316E-3
383.691216E-3
382.603455E-3
379.686928E-3
378.166008E-3
372.573853E-3
368.369865E-3
364.343262E-3
360.177612E-3
359.232903E-3
356.336403E-3
356.385612E-3
357.198715E-3
356.914902E-3
360.231972E-3
360.476875E-3
362.230682E-3
363.359642E-3
363.460350E-3
365.297127E-3
363.908386E-3
364.043427E-3
363.885498E-3
362.961960E-3
364.132690E-3
362.525368E-3
363.224030E-3
363.896942E-3
364.334679E-3
367.185974E-3
367.088699E-3
368.819618E-3
369.634438E-3
369.397545E-3
370.841789E-3
369.090271E-3
369.186974E-3
368.870544E-3
368.154144E-3
369.458771E-3
368.208504E-3
368.828201E-3
369.459343E-3
368.560982E-3
370.957375E-3
370.508766E-3
371.662331E-3
372.589302E-3
372.413063E-3
374.381447E-3
373.403549E-3
374.061012E-3
374.492455E-3
374.540520E-3
376.199341E-3
375.096130E-3
375.690079E-3
376.205063E-3
374.735641E-3
376.999283E-3
376.138115E-3
376.756096E-3
377.099419E-3
376.642227E-3
378.062439E-3
376.877403E-3
377.661896E-3
378.004646E-3
377.599525E-3
378.830338E-3
377.919960E-3
378.080177E-3
378.574562E-3
378.066444E-3
379.389381E-3
378.166008E-3
378.551674E-3
378.781128E-3
378.569984E-3
379.936981E-3
378.983688E-3
379.511261E-3
380.175591E-3
379.871178E-3
381.602669E-3
380.910301E-3
381.503105E-3
382.048416E-3
380.390167E-3
382.866096E-3
382.266426E-3
382.657814E-3
382.735062E-3
381.290245E-3
380.947495E-3
376.974678E-3
373.567772E-3
369.311714E-3
364.062881E-3
361.207008E-3
356.778145E-3
355.100441E-3
354.262733E-3
353.796959E-3
355.979347E-3
356.302643E-3
357.963753E-3
359.547615E-3
360.197067E-3
362.330246E-3
361.715698E-3
362.292480E-3
362.531662E-3
361.504555E-3
362.496758E-3
360.952950E-3
360.841370E-3
361.117744E-3
360.824203E-3
362.989426E-3
363.415718E-3
364.989281E-3
366.674423E-3
366.977692E-3
369.019890E-3
368.244553E-3
368.423080E-3
368.310928E-3
367.209435E-3
368.150711E-3
366.959953E-3
367.246056E-3
367.354774E-3
366.894722E-3
368.678284E-3
368.260574E-3
369.072533E-3
370.004082E-3
369.861031E-3
371.927261E-3
371.383667E-3
371.982765E-3
372.928047E-3
372.215652E-3
374.138260E-3
373.750877E-3
374.039268E-3
374.621773E-3
374.137688E-3
375.586510E-3
375.042343E-3
375.398827E-3
375.999641E-3
375.481224E-3
376.807594E-3
376.124382E-3
376.344109E-3
376.883125E-3
376.329231E-3
377.466202E-3
376.807022E-3
377.125168E-3
377.652168E-3
376.963234E-3
378.439522E-3
377.811241E-3
378.026962E-3
378.689575E-3
377.887344E-3
379.256058E-3
378.452682E-3
378.845787E-3
379.179955E-3
378.187180E-3
379.986191E-3
379.543304E-3
379.686356E-3
380.408478E-3
379.599380E-3
381.481934E-3
381.075096E-3
381.430435E-3
382.089043E-3
381.268501E-3
382.926178E-3
382.723045E-3
382.746506E-3
383.325005E-3
381.689072E-3
382.316780E-3
380.017662E-3
377.017021E-3
373.673058E-3
368.035698E-3
364.926910E-3
360.270309E-3
356.881142E-3
355.221748E-3
353.386688E-3
355.194283E-3
355.735588E-3
357.473946E-3
359.667778E-3
360.003090E-3
362.891006E-3
363.403702E-3
363.917542E-3
364.517784E-3
363.379669E-3
364.252853E-3
363.301849E-3
362.980270E-3
363.190842E-3
362.151718E-3
364.136696E-3
364.679146E-3
365.682220E-3
367.398834E-3
367.331886E-3
369.441032E-3
369.299126E-3
368.932915E-3
369.090271E-3
367.537880E-3
368.611336E-3
367.644310E-3
367.378235E-3
367.813683E-3
366.934204E-3
368.982697E-3
368.965530E-3
369.351196E-3
370.445251E-3
369.798088E-3
372.135544E-3
372.002220E-3
372.212219E-3
373.289108E-3
372.373009E-3
374.416351E-3
374.088478E-3
374.046135E-3
374.985123E-3
374.044991E-3
375.900650E-3
375.634575E-3
375.374222E-3
376.106644E-3
375.092697E-3
377.040482E-3
376.516342E-3
376.207352E-3
377.049637E-3
375.989342E-3
377.683067E-3
377.194977E-3
377.119446E-3
377.673340E-3
376.736641E-3
378.511620E-3
378.134537E-3
377.798653E-3
378.630638E-3
377.807808E-3
379.617119E-3
379.150772E-3
378.686714E-3
379.510117E-3
378.738213E-3
380.419350E-3
379.825974E-3
379.214859E-3
379.915810E-3
379.676628E-3
381.457901E-3
381.114578E-3
380.977249E-3
381.865311E-3
381.482506E-3
382.969666E-3
382.965088E-3
382.267570E-3
383.062363E-3
382.772827E-3
384.098053E-3
383.650017E-3
381.943130E-3
381.622124E-3
378.996849E-3
377.012444E-3
372.521782E-3
367.176819E-3
363.291550E-3
358.847809E-3
357.611275E-3
355.802536E-3
354.936790E-3
356.409073E-3
356.990433E-3
359.918976E-3
361.429024E-3
362.484169E-3
364.452553E-3
364.698029E-3
366.309357E-3
366.093636E-3
364.748955E-3
365.360641E-3
364.439964E-3
365.303993E-3
364.956665E-3
364.678001E-3
365.876198E-3
366.326523E-3
368.788719E-3
369.804955E-3
369.940567E-3
370.842934E-3
370.182610E-3
370.835495E-3
370.332527E-3
369.167519E-3
369.197273E-3
368.225098E-3
369.319153E-3
368.915749E-3
368.598175E-3
369.894218E-3
369.903374E-3
371.565628E-3
371.827698E-3
371.948433E-3
373.386955E-3
373.231316E-3
374.715614E-3
374.822617E-3
374.091339E-3
375.231743E-3
375.137901E-3
376.651382E-3
376.764679E-3
376.327515E-3
377.439308E-3
376.751518E-3
377.958870E-3
377.483940E-3
377.220154E-3
378.293037E-3
377.497673E-3
378.808022E-3
378.550529E-3
377.942848E-3
378.498459E-3
377.949715E-3
379.185677E-3
379.300690E-3
378.755379E-3
379.560471E-3
379.042625E-3
380.326653E-3
380.382156E-3
379.442024E-3
380.673981E-3
380.229378E-3
381.322861E-3
381.402397E-3
380.794144E-3
381.671906E-3
381.189537E-3
382.305336E-3
382.324219E-3
381.616974E-3
382.556534E-3
381.892204E-3
383.077240E-3
383.077812E-3
382.418060E-3
383.560753E-3
383.355904E-3
384.692574E-3
384.660530E-3
384.170151E-3
384.936905E-3
384.705734E-3
385.881042E-3
385.890198E-3
385.166931E-3
385.400963E-3
383.484077E-3
382.160568E-3
378.701019E-3
373.605537E-3
370.159721E-3
364.483452E-3
361.377525E-3
358.276176E-3
355.610847E-3
356.167603E-3
355.809975E-3
358.069038E-3
359.608269E-3
359.716415E-3
363.104439E-3
363.270378E-3
365.229607E-3
365.722275E-3
365.038490E-3
366.443825E-3
364.964104E-3
365.102577E-3
364.399338E-3
363.231468E-3
364.651108E-3
363.769913E-3
365.098000E-3
366.207504E-3
366.395760E-3
369.185829E-3
369.062805E-3
370.551109E-3
370.591736E-3
369.688225E-3
371.228027E-3
369.774055E-3
370.093918E-3
369.814110E-3
367.986488E-3
370.284462E-3
369.447899E-3
370.449829E-3
370.762253E-3
370.537949E-3
372.859955E-3
372.206497E-3
373.439026E-3
373.796654E-3
372.570992E-3
375.196838E-3
374.666977E-3
375.833130E-3
376.387596E-3
375.837135E-3
377.562332E-3
376.728630E-3
377.277374E-3
377.617836E-3
376.280022E-3
378.635788E-3
377.906227E-3
378.548813E-3
378.681564E-3
378.095627E-3
379.973602E-3
378.790855E-3
379.305840E-3
379.508400E-3
378.961372E-3
380.562973E-3
379.356194E-3
379.950142E-3
380.347252E-3
379.726410E-3
381.452751E-3
380.446815E-3
381.112862E-3
381.532860E-3
380.998993E-3
382.626915E-3
381.838989E-3
382.403755E-3
382.758522E-3
381.384659E-3
383.758163E-3
382.612038E-3
383.161354E-3
383.425713E-3
382.945061E-3
384.595299E-3
383.329010E-3
383.926392E-3
384.416199E-3
384.273148E-3
385.871315E-3
384.912300E-3
385.582924E-3
386.251259E-3
385.994911E-3
387.324715E-3
386.085320E-3
386.693001E-3
386.596870E-3
385.570335E-3
385.549164E-3
381.792641E-3
378.576851E-3
374.283600E-3
367.933846E-3
365.872192E-3
361.403847E-3
359.517860E-3
358.562279E-3
358.055305E-3
360.126686E-3
360.532379E-3
362.689018E-3
364.620209E-3
365.717125E-3
367.972755E-3
367.695236E-3
368.712044E-3
369.106293E-3
368.266869E-3
369.061089E-3
367.436028E-3
367.251205E-3
367.581367E-3
367.112160E-3
368.599319E-3
368.459702E-3
370.109940E-3
371.395111E-3
371.727562E-3
373.674202E-3
372.851944E-3
372.937202E-3
372.974968E-3
371.224022E-3
372.815895E-3
371.661758E-3
371.902084E-3
372.145271E-3
371.704102E-3
373.305130E-3
372.563553E-3
373.441887E-3
374.240112E-3
374.204063E-3
376.118660E-3
375.669479E-3
376.322937E-3
377.125168E-3
377.078247E-3
378.789711E-3
377.995491E-3
378.429794E-3
378.943062E-3
378.251266E-3
379.958153E-3
379.211426E-3
379.776764E-3
380.248833E-3
379.712105E-3
381.412125E-3
380.567551E-3
380.904007E-3
381.118584E-3
380.576706E-3
381.945992E-3
381.004143E-3
381.452179E-3
381.744576E-3
381.043053E-3
382.537651E-3
381.648445E-3
382.079315E-3
382.514763E-3
381.238747E-3
383.304977E-3
382.645798E-3
382.927895E-3
383.434296E-3
381.881332E-3
384.013939E-3
383.700371E-3
384.115219E-3
384.453964E-3
383.936119E-3
385.442734E-3
384.629059E-3
385.237885E-3
385.386658E-3
383.788490E-3
386.283875E-3
385.907936E-3
386.501884E-3
387.011719E-3
386.540222E-3
387.954140E-3
387.391663E-3
387.524986E-3
387.914085E-3
386.959076E-3
387.438011E-3
384.813309E-3
382.107925E-3
378.817177E-3
373.888206E-3
371.130753E-3
366.188049E-3
363.283539E-3
362.339401E-3
359.462929E-3
362.277031E-3
363.109589E-3
364.911461E-3
367.148209E-3
368.335533E-3
371.094704E-3
371.554756E-3
372.444534E-3
373.016739E-3
372.478294E-3
373.531723E-3
372.481155E-3
372.300339E-3
372.385025E-3
371.776772E-3
373.631859E-3
373.482513E-3
374.603462E-3
375.850868E-3
375.468636E-3
377.165222E-3
376.227379E-3
376.165581E-3
376.056290E-3
374.460411E-3
375.346184E-3
374.478722E-3
374.367142E-3
374.831200E-3
373.951149E-3
375.634575E-3
375.515556E-3
376.229668E-3
377.457619E-3
376.799583E-3
378.846931E-3
378.866959E-3
379.494667E-3
380.260849E-3
379.543877E-3
381.370354E-3
380.975533E-3
381.165504E-3
381.959152E-3
381.157494E-3
382.808876E-3
382.482719E-3
382.303047E-3
382.888412E-3
381.723976E-3
383.365631E-3
382.755089E-3
382.997704E-3
383.628845E-3
