Notes :


2023-11-10 ¿ÀÈÄ 10:24:04
Volts
Ch : LED 2,
230.023384E-3
229.943848E-3
229.837418E-3
229.963303E-3
230.035400E-3
230.103493E-3
229.936981E-3
229.501534E-3
229.091835E-3
228.416061E-3
227.815819E-3
227.289963E-3
226.899147E-3
226.699448E-3
226.697159E-3
226.850510E-3
226.928902E-3
226.997566E-3
227.194405E-3
227.239037E-3
227.255058E-3
227.148056E-3
226.911163E-3
226.694298E-3
226.420784E-3
226.049995E-3
225.790787E-3
225.508118E-3
225.274658E-3
225.009155E-3
224.719048E-3
224.612617E-3
224.253273E-3
224.042130E-3
223.663330E-3
223.588371E-3
223.487091E-3
223.285675E-3
223.241615E-3
223.303413E-3
223.156357E-3
223.180962E-3
223.049355E-3
223.218155E-3
222.945786E-3
222.817039E-3
222.784424E-3
222.710609E-3
222.654533E-3
222.598457E-3
222.533226E-3
222.526360E-3
222.441673E-3
222.528076E-3
222.486877E-3
222.449112E-3
222.478867E-3
222.410202E-3
222.332954E-3
222.219658E-3
222.151566E-3
222.385025E-3
222.141266E-3
222.164726E-3
222.129822E-3
222.019386E-3
222.048569E-3
221.908951E-3
221.817398E-3
221.632576E-3
221.499252E-3
221.431160E-3
221.248627E-3
221.323586E-3
221.309853E-3
221.338463E-3
221.483231E-3
221.635437E-3
222.574997E-3
223.839569E-3
225.634575E-3
227.914238E-3
230.052567E-3
232.166862E-3
233.860016E-3
234.958076E-3
235.304260E-3
235.263634E-3
234.735489E-3
233.978462E-3
233.160210E-3
232.441521E-3
231.502533E-3
230.845642E-3
230.344391E-3
229.978752E-3
229.918098E-3
229.710388E-3
229.886055E-3
229.982758E-3
230.102921E-3
230.117226E-3
229.946136E-3
229.611397E-3
229.207420E-3
228.511047E-3
227.974892E-3
227.551460E-3
227.453041E-3
227.402115E-3
227.514839E-3
227.775192E-3
227.969742E-3
228.335953E-3
228.382874E-3
228.354836E-3
228.412056E-3
228.281021E-3
228.046989E-3
227.881050E-3
227.499962E-3
227.267075E-3
226.953506E-3
226.653099E-3
226.356125E-3
226.058006E-3
225.981331E-3
225.810814E-3
225.663757E-3
225.525284E-3
225.394821E-3
225.283241E-3
225.151062E-3
224.931335E-3
224.930763E-3
224.779129E-3
224.753952E-3
224.751663E-3
224.762535E-3
224.652100E-3
224.522781E-3
224.547958E-3
224.565697E-3
224.642944E-3
224.617195E-3
224.556541E-3
224.491310E-3
224.447823E-3
224.444962E-3
224.442101E-3
224.351120E-3
224.450111E-3
224.371147E-3
224.482155E-3
224.372864E-3
224.335098E-3
224.414062E-3
224.352837E-3
224.254990E-3
224.137115E-3
224.098778E-3
224.052429E-3
223.866463E-3
223.776054E-3
223.605537E-3
223.445320E-3
223.463058E-3
223.365784E-3
223.473358E-3
223.412132E-3
223.375511E-3
223.686218E-3
224.291039E-3
225.387383E-3
227.168655E-3
229.164505E-3
231.413269E-3
233.500671E-3
235.356331E-3
236.625481E-3
237.223434E-3
237.242889E-3
236.844635E-3
236.167145E-3
235.296249E-3
234.371567E-3
233.631706E-3
232.780266E-3
232.228661E-3
231.702232E-3
231.408119E-3
231.205559E-3
231.126022E-3
231.055069E-3
231.104279E-3
231.048203E-3
230.728340E-3
230.332375E-3
229.684639E-3
229.082108E-3
228.487587E-3
228.190041E-3
227.866173E-3
227.828407E-3
227.903938E-3
227.998924E-3
228.137970E-3
228.247833E-3
228.414345E-3
228.319359E-3
228.265572E-3
228.085899E-3
227.907944E-3
227.681923E-3
227.521133E-3
227.058220E-3
226.630783E-3
226.218224E-3
225.874329E-3
225.470352E-3
225.040627E-3
224.857521E-3
224.654388E-3
224.399185E-3
224.333382E-3
224.205780E-3
224.054718E-3
223.776054E-3
223.616982E-3
223.693085E-3
223.568344E-3
223.353195E-3
223.281097E-3
223.219872E-3
223.198700E-3
223.110580E-3
223.152924E-3
223.283386E-3
223.052216E-3
222.932625E-3
222.885132E-3
222.859383E-3
222.609329E-3
222.598457E-3
222.739792E-3
222.647095E-3
222.540665E-3
222.432518E-3
222.463989E-3
222.588158E-3
222.403336E-3
222.396469E-3
222.405052E-3
222.338104E-3
222.211075E-3
222.122955E-3
222.149849E-3
221.988487E-3
221.781921E-3
221.703529E-3
221.438026E-3
221.476364E-3
221.284103E-3
221.298409E-3
221.304131E-3
221.194267E-3
221.281242E-3
221.543312E-3
222.250557E-3
223.459053E-3
225.088120E-3
227.197266E-3
229.548454E-3
231.856155E-3
233.984184E-3
235.406685E-3
236.260414E-3
236.497879E-3
236.222076E-3
235.523987E-3
234.479713E-3
233.532143E-3
232.704163E-3
231.922531E-3
231.303978E-3
230.869102E-3
230.738640E-3
230.747795E-3
230.699730E-3
230.739784E-3
230.818176E-3
230.977249E-3
230.784416E-3
230.551529E-3
230.283737E-3
229.459190E-3
228.678131E-3
228.057861E-3
227.707672E-3
227.351189E-3
227.175522E-3
227.175522E-3
227.333450E-3
227.477074E-3
227.528000E-3
227.579498E-3
227.562332E-3
227.498817E-3
227.272224E-3
227.149773E-3
226.853943E-3
226.574135E-3
226.237679E-3
226.018524E-3
225.691795E-3
225.231743E-3
225.025749E-3
224.772263E-3
224.413490E-3
224.164009E-3
224.015808E-3
223.910522E-3
223.592949E-3
223.418999E-3
223.459053E-3
223.318863E-3
223.240471E-3
223.134613E-3
223.070526E-3
222.967529E-3
222.875404E-3
222.817039E-3
222.656822E-3
222.516060E-3
222.480011E-3
222.419930E-3
222.469711E-3
222.381020E-3
222.373009E-3
222.406769E-3
222.348976E-3
222.293472E-3
222.225952E-3
222.088051E-3
222.060585E-3
221.922112E-3
222.001076E-3
221.909523E-3
221.853447E-3
221.828842E-3
221.733284E-3
221.756172E-3
221.725273E-3
221.616554E-3
221.567345E-3
221.379089E-3
221.402550E-3
221.373940E-3
221.222878E-3
221.107864E-3
220.997429E-3
220.955086E-3
220.889282E-3
220.917320E-3
220.969391E-3
220.966530E-3
221.197128E-3
221.795082E-3
222.859955E-3
224.538803E-3
226.706886E-3
229.143333E-3
231.545448E-3
233.502960E-3
235.135460E-3
235.914803E-3
236.106491E-3
235.812950E-3
235.204124E-3
234.341240E-3
233.473206E-3
232.615471E-3
231.632423E-3
230.961227E-3
230.592155E-3
230.279732E-3
230.189323E-3
230.205917E-3
230.331230E-3
230.584717E-3
230.631065E-3
230.762100E-3
230.435371E-3
229.922676E-3
229.400253E-3
228.636360E-3
228.173447E-3
227.763748E-3
227.592659E-3
227.548599E-3
227.566910E-3
227.735138E-3
227.995491E-3
228.188896E-3
228.281021E-3
228.279305E-3
228.254700E-3
228.046417E-3
227.816963E-3
227.779198E-3
227.340889E-3
226.991844E-3
226.737785E-3
226.313782E-3
226.068878E-3
225.844574E-3
225.672340E-3
225.440025E-3
225.210571E-3
225.105858E-3
224.901009E-3
224.810028E-3
224.707603E-3
224.559402E-3
224.464989E-3
224.416351E-3
224.284744E-3
224.210930E-3
224.092484E-3
224.060440E-3
223.985481E-3
223.920822E-3
223.992348E-3
223.946571E-3
224.099350E-3
223.917961E-3
223.932266E-3
223.907661E-3
223.832703E-3
223.833275E-3
223.756599E-3
223.769188E-3
223.628998E-3
223.655891E-3
223.666191E-3
223.547173E-3
223.435020E-3
223.409271E-3
223.400116E-3
223.334312E-3
223.257637E-3
223.191261E-3
223.195267E-3
223.102570E-3
223.151207E-3
222.988129E-3
222.943497E-3
222.878838E-3
222.709465E-3
222.775841E-3
222.545815E-3
222.435951E-3
222.371292E-3
222.361565E-3
222.332954E-3
222.307777E-3
222.562981E-3
223.073387E-3
223.936272E-3
225.508690E-3
227.457047E-3
229.773903E-3
232.120514E-3
234.177589E-3
235.696793E-3
236.596298E-3
236.850357E-3
236.783981E-3
236.083603E-3
235.294533E-3
234.329224E-3
233.358192E-3
232.546234E-3
231.754875E-3
231.159782E-3
230.780983E-3
230.520058E-3
230.525780E-3
230.450249E-3
230.614471E-3
230.597878E-3
230.481720E-3
230.193329E-3
229.684639E-3
229.168510E-3
228.366280E-3
228.060150E-3
227.874184E-3
227.657890E-3
227.647591E-3
227.746582E-3
227.917099E-3
227.971458E-3
228.016663E-3
228.032684E-3
227.901077E-3
227.831841E-3
227.762032E-3
227.477074E-3
227.241325E-3
226.861382E-3
226.444817E-3
226.098061E-3
225.542450E-3
225.259209E-3
224.909019E-3
224.727631E-3
224.434662E-3
224.137115E-3
223.974037E-3
223.598099E-3
223.379517E-3
223.265648E-3
223.145485E-3
223.037910E-3
222.894287E-3
222.791290E-3
222.617912E-3
222.520065E-3
222.402763E-3
222.348976E-3
222.254562E-3
222.195053E-3
222.067451E-3
222.066879E-3
221.994209E-3
222.055435E-3
221.938133E-3
221.746445E-3
221.747589E-3
221.701813E-3
221.694374E-3
221.681213E-3
221.542168E-3
221.546173E-3
221.401405E-3
221.432304E-3
221.299553E-3
221.270370E-3
221.191978E-3
221.114731E-3
221.034622E-3
220.928764E-3
220.955658E-3
220.945358E-3
220.890999E-3
220.798302E-3
220.822334E-3
220.659828E-3
220.541382E-3
220.309067E-3
220.215797E-3
220.167160E-3
219.976616E-3
220.105934E-3
220.108223E-3
220.103645E-3
220.505333E-3
221.161652E-3
222.493172E-3
224.082184E-3
226.221085E-3
228.497314E-3
230.760956E-3
232.901573E-3
234.348106E-3
235.177231E-3
235.440445E-3
234.964371E-3
234.272003E-3
233.391953E-3
232.379723E-3
231.454468E-3
230.550957E-3
229.971886E-3
229.547882E-3
229.325294E-3
229.195976E-3
229.110146E-3
229.243469E-3
229.373932E-3
229.339600E-3
229.384804E-3
229.207420E-3
229.057503E-3
228.385162E-3
227.715683E-3
227.176094E-3
226.479721E-3
226.190186E-3
225.985336E-3
225.933266E-3
225.840569E-3
225.917244E-3
226.140404E-3
226.207924E-3
226.288033E-3
226.254845E-3
226.127243E-3
225.968742E-3
225.733566E-3
225.541878E-3
225.310135E-3
224.941063E-3
224.577141E-3
224.165726E-3
223.874474E-3
223.750877E-3
223.420143E-3
223.209572E-3
222.969246E-3
222.841072E-3
222.721481E-3
222.508621E-3
222.349548E-3
222.194481E-3
222.109795E-3
222.061157E-3
221.947289E-3
221.876907E-3
221.787643E-3
221.607399E-3
221.555328E-3
221.442032E-3
221.409416E-3
221.355057E-3
221.348190E-3
221.294975E-3
221.217728E-3
221.209717E-3
221.178246E-3
221.125603E-3
220.947647E-3
220.925331E-3
220.953941E-3
220.892143E-3
220.849228E-3
220.750237E-3
220.638084E-3
220.563698E-3
220.429802E-3
220.294189E-3
220.344543E-3
220.206070E-3
220.301628E-3
220.243835E-3
220.188904E-3
220.215225E-3
220.035553E-3
219.999504E-3
219.989777E-3
219.834137E-3
219.731712E-3
219.657898E-3
219.654465E-3
219.462204E-3
219.429588E-3
219.326591E-3
219.365501E-3
219.460487E-3
219.823837E-3
220.596313E-3
221.816254E-3
223.562050E-3
225.766754E-3
228.006363E-3
230.304909E-3
232.176590E-3
233.382225E-3
234.138680E-3
234.146118E-3
233.680916E-3
233.048630E-3
232.048416E-3
231.130600E-3
230.199051E-3
229.440880E-3
228.758812E-3
228.331375E-3
228.088760E-3
228.100204E-3
228.073883E-3
228.180885E-3
228.293610E-3
228.504181E-3
228.404617E-3
228.202629E-3
227.838135E-3
227.252197E-3
226.771545E-3
226.302338E-3
225.850868E-3
225.730705E-3
225.610542E-3
225.701523E-3
225.724411E-3
225.956154E-3
226.137543E-3
226.298904E-3
226.433372E-3
226.384735E-3
226.225090E-3
226.143265E-3
225.786781E-3
225.591660E-3
225.231171E-3
224.859810E-3
224.664116E-3
224.336243E-3
224.201202E-3
224.024391E-3
223.737144E-3
223.591232E-3
223.320007E-3
223.160362E-3
222.986984E-3
222.906303E-3
222.883415E-3
222.723198E-3
222.691154E-3
222.608757E-3
222.471428E-3
222.427368E-3
222.323799E-3
222.341537E-3
222.330093E-3
222.247696E-3
222.257996E-3
222.175598E-3
222.184181E-3
222.198486E-3
222.088051E-3
222.206497E-3
222.195053E-3
222.168159E-3
222.209930E-3
222.109795E-3
222.153282E-3
222.012520E-3
221.992493E-3
221.934128E-3
221.921539E-3
221.940422E-3
221.879196E-3
221.809387E-3
221.879196E-3
221.797371E-3
221.812248E-3
221.789932E-3
221.672058E-3
221.604538E-3
221.560478E-3
221.511269E-3
221.406555E-3
221.234894E-3
221.249771E-3
221.146774E-3
221.189117E-3
221.171379E-3
221.196556E-3
221.301270E-3
221.778488E-3
222.896004E-3
224.332237E-3
226.373291E-3
228.474998E-3
230.533218E-3
232.446671E-3
233.842278E-3
234.638786E-3
234.879112E-3
234.612465E-3
234.129524E-3
233.297539E-3
232.428932E-3
231.499672E-3
230.497169E-3
229.809380E-3
229.252625E-3
228.949928E-3
228.720474E-3
228.608894E-3
228.729057E-3
228.705597E-3
228.779984E-3
228.670120E-3
228.411484E-3
227.987480E-3
227.439880E-3
226.936340E-3
226.586723E-3
226.451683E-3
226.427650E-3
226.412201E-3
226.492310E-3
226.560974E-3
226.816177E-3
226.971245E-3
226.971245E-3
226.912880E-3
226.888847E-3
226.690865E-3
226.490021E-3
226.113510E-3
225.767326E-3
225.375366E-3
225.027466E-3
224.724197E-3
224.296761E-3
224.034691E-3
223.762321E-3
223.519135E-3
223.326302E-3
222.961807E-3
222.730064E-3
222.579575E-3
222.389603E-3
222.355843E-3
222.243118E-3
222.196198E-3
222.117233E-3
221.939278E-3
221.934128E-3
221.827126E-3
221.721268E-3
221.681786E-3
221.603966E-3
221.593094E-3
221.535873E-3
221.511841E-3
221.414566E-3
221.258926E-3
221.376228E-3
221.195984E-3
221.224022E-3
221.163940E-3
221.121025E-3
221.088982E-3
220.973396E-3
220.890427E-3
220.901871E-3
220.779991E-3
220.758820E-3
220.674133E-3
220.703316E-3
220.691299E-3
220.631790E-3
220.624352E-3
220.613480E-3
220.648956E-3
220.503616E-3
220.309067E-3
220.174599E-3
220.052147E-3
219.867897E-3
219.887352E-3
219.717979E-3
219.783211E-3
219.675064E-3
219.645309E-3
219.844437E-3
220.333099E-3
221.225166E-3
222.738647E-3
224.670410E-3
226.873398E-3
228.993988E-3
231.073952E-3
232.808304E-3
233.785629E-3
234.188461E-3
234.031105E-3
233.463478E-3
232.645798E-3
231.740570E-3
230.747223E-3
229.703522E-3
229.111862E-3
228.480148E-3
228.178596E-3
227.938271E-3
227.906227E-3
227.898788E-3
227.717972E-3
227.968597E-3
227.981186E-3
227.974892E-3
227.743149E-3
227.305412E-3
226.837349E-3
226.243973E-3
225.715828E-3
225.346756E-3
225.120735E-3
225.162506E-3
225.119019E-3
225.106430E-3
225.275803E-3
225.357628E-3
225.429153E-3
225.500107E-3
225.505829E-3
225.338173E-3
225.078392E-3
224.871826E-3
224.660110E-3
224.387169E-3
224.055290E-3
223.642159E-3
223.436737E-3
223.101997E-3
222.830772E-3
222.690582E-3
222.374153E-3
222.184753E-3
222.137833E-3
221.935844E-3
221.759605E-3
221.638870E-3
221.568489E-3
221.416283E-3
221.377945E-3
221.226883E-3
221.092415E-3
221.077538E-3
220.939636E-3
220.663261E-3
220.825195E-3
220.896149E-3
220.779419E-3
220.801163E-3
220.642090E-3
220.613480E-3
220.572281E-3
220.591164E-3
220.612907E-3
220.406914E-3
220.333672E-3
220.269585E-3
220.192909E-3
220.269585E-3
220.164871E-3
220.129395E-3
220.045280E-3
219.996071E-3
219.931412E-3
219.821548E-3
219.708252E-3
219.616699E-3
219.627571E-3
219.665909E-3
219.573212E-3
219.558334E-3
219.517708E-3
219.412994E-3
219.330025E-3
219.168091E-3
219.156647E-3
219.025040E-3
218.955231E-3
218.933487E-3
218.811607E-3
218.823051E-3
219.020462E-3
219.503403E-3
220.493889E-3
221.928406E-3
223.933983E-3
226.157570E-3
228.404045E-3
230.451393E-3
231.962013E-3
232.848358E-3
233.227730E-3
232.903862E-3
232.357407E-3
231.418419E-3
230.546379E-3
229.684067E-3
228.746223E-3
228.017807E-3
227.457047E-3
227.030182E-3
226.833916E-3
226.837921E-3
226.976395E-3
226.982117E-3
227.148628E-3
227.227592E-3
227.108002E-3
226.958084E-3
226.534081E-3
226.028824E-3
225.560188E-3
225.247765E-3
225.023460E-3
224.951363E-3
225.083542E-3
225.185966E-3
225.248337E-3
225.450897E-3
225.597954E-3
225.751305E-3
225.750732E-3
225.753021E-3
225.707817E-3
225.434875E-3
225.142479E-3
224.837494E-3
224.603462E-3
224.335670E-3
223.982620E-3
223.773766E-3
223.556900E-3
