Notes :


2023-11-10 ¿ÀÈÄ 10:17:32
Volts
Ch : LED 2,
284.592819E-3
284.271812E-3
284.336472E-3
284.384537E-3
284.329033E-3
284.363937E-3
284.310150E-3
284.125900E-3
284.214592E-3
284.090996E-3
283.785439E-3
283.799744E-3
283.763123E-3
283.699036E-3
283.584023E-3
283.474159E-3
283.324242E-3
283.249855E-3
283.178902E-3
283.253288E-3
283.069038E-3
283.097076E-3
283.134842E-3
283.576012E-3
284.286690E-3
285.299492E-3
286.547470E-3
287.691307E-3
288.838005E-3
289.924049E-3
290.595818E-3
290.907669E-3
290.760612E-3
290.486526E-3
289.842224E-3
289.331818E-3
288.685799E-3
288.074112E-3
287.577438E-3
287.039566E-3
286.736870E-3
286.537743E-3
286.387253E-3
286.380386E-3
286.387825E-3
286.517715E-3
286.379814E-3
286.336327E-3
286.260223E-3
285.897446E-3
285.586739E-3
285.331535E-3
285.131264E-3
285.255432E-3
285.221672E-3
285.217667E-3
285.313225E-3
285.433960E-3
285.600471E-3
285.615921E-3
285.796738E-3
285.682869E-3
285.884857E-3
285.701180E-3
285.489464E-3
285.340691E-3
285.276031E-3
285.023689E-3
284.941292E-3
284.705544E-3
284.536743E-3
284.340477E-3
284.259224E-3
284.167099E-3
283.937645E-3
283.908463E-3
283.832932E-3
283.663559E-3
283.646393E-3
283.550835E-3
283.482170E-3
283.519936E-3
283.401489E-3
283.510208E-3
283.311653E-3
283.265305E-3
283.252144E-3
283.232689E-3
283.278465E-3
282.933426E-3
283.026123E-3
283.072472E-3
283.116531E-3
283.151436E-3
283.066177E-3
283.079338E-3
283.046150E-3
282.996941E-3
282.769203E-3
282.871628E-3
282.897377E-3
282.884216E-3
282.828712E-3
282.850456E-3
282.889366E-3
282.883644E-3
282.811546E-3
282.781219E-3
282.747459E-3
282.652473E-3
282.769203E-3
282.694817E-3
282.558632E-3
282.553482E-3
282.532883E-3
282.323456E-3
282.269096E-3
282.223892E-3
282.280540E-3
282.309151E-3
282.439613E-3
282.787514E-3
283.344269E-3
284.191704E-3
285.340691E-3
286.612129E-3
288.000870E-3
289.177322E-3
290.287971E-3
290.944862E-3
291.287613E-3
291.198349E-3
290.814400E-3
290.419579E-3
289.737511E-3
289.148140E-3
288.616562E-3
288.196564E-3
287.928200E-3
287.626648E-3
287.539673E-3
287.294197E-3
287.489891E-3
287.577438E-3
287.714767E-3
287.797165E-3
287.837791E-3
287.640953E-3
287.535667E-3
287.079048E-3
286.859894E-3
286.448479E-3
286.236763E-3
286.231613E-3
286.236191E-3
286.279106E-3
286.273956E-3
286.297989E-3
286.496544E-3
286.257935E-3
286.517715E-3
286.696243E-3
286.571503E-3
286.596680E-3
286.512566E-3
286.380959E-3
286.170959E-3
286.053085E-3
285.872841E-3
285.755539E-3
285.715485E-3
285.538673E-3
285.415649E-3
285.340691E-3
285.124397E-3
285.031128E-3
285.016823E-3
284.862900E-3
284.867477E-3
284.697533E-3
284.651756E-3
284.714127E-3
284.622574E-3
284.721565E-3
284.805679E-3
284.638023E-3
284.587097E-3
284.430885E-3
284.442902E-3
284.407425E-3
284.409714E-3
284.391403E-3
284.337044E-3
284.290695E-3
284.303856E-3
284.292984E-3
284.350777E-3
284.249496E-3
284.303284E-3
284.242058E-3
284.182549E-3
284.163666E-3
283.982849E-3
284.115601E-3
284.014320E-3
284.046364E-3
284.076118E-3
284.022903E-3
283.959389E-3
283.973122E-3
283.941078E-3
284.169960E-3
283.931351E-3
283.884430E-3
283.837509E-3
283.859825E-3
283.842659E-3
283.760834E-3
283.776283E-3
283.703041E-3
283.694458E-3
283.535957E-3
283.411789E-3
283.426666E-3
283.444405E-3
283.530235E-3
283.747673E-3
284.113884E-3
284.997368E-3
286.025620E-3
287.392044E-3
288.760757E-3
290.001297E-3
291.344833E-3
292.214012E-3
292.815971E-3
292.921829E-3
292.656898E-3
292.208290E-3
291.614342E-3
290.944862E-3
290.333748E-3
289.747810E-3
289.366722E-3
288.976479E-3
288.950157E-3
288.812828E-3
288.663483E-3
288.714409E-3
288.655472E-3
288.767624E-3
288.868332E-3
288.791084E-3
288.669777E-3
288.446617E-3
287.952805E-3
287.598038E-3
287.242699E-3
287.167168E-3
287.008095E-3
286.983490E-3
287.029839E-3
287.071609E-3
287.181473E-3
287.250137E-3
287.380600E-3
287.389183E-3
287.353134E-3
287.369728E-3
287.220383E-3
287.117386E-3
287.016678E-3
286.612701E-3
286.629868E-3
286.411858E-3
286.348343E-3
286.225319E-3
286.050224E-3
285.953522E-3
285.706902E-3
285.646248E-3
285.568428E-3
285.437965E-3
285.450554E-3
285.293770E-3
285.177040E-3
285.155869E-3
285.084915E-3
285.026550E-3
284.868622E-3
284.894943E-3
284.859467E-3
284.765625E-3
284.723854E-3
284.675217E-3
284.638023E-3
284.637451E-3
284.592819E-3
284.565353E-3
284.779930E-3
284.595108E-3
284.524727E-3
284.430885E-3
284.386253E-3
284.300423E-3
284.209442E-3
284.295845E-3
284.147072E-3
284.081268E-3
284.009171E-3
283.959961E-3
283.927917E-3
283.757401E-3
283.776283E-3
283.676147E-3
283.688164E-3
283.649826E-3
283.438110E-3
283.477020E-3
283.454132E-3
283.360291E-3
283.293915E-3
283.265877E-3
283.193207E-3
283.143425E-3
282.923126E-3
282.919693E-3
282.744598E-3
282.642174E-3
282.619858E-3
282.620430E-3
282.658768E-3
282.687950E-3
283.220100E-3
283.848381E-3
284.789658E-3
285.955811E-3
287.206078E-3
288.537598E-3
289.567566E-3
290.271378E-3
290.645027E-3
290.645599E-3
290.276527E-3
289.700317E-3
289.110947E-3
288.667488E-3
287.895012E-3
287.454987E-3
286.949730E-3
286.627579E-3
286.708832E-3
286.252785E-3
286.260796E-3
286.113739E-3
286.173820E-3
286.295700E-3
286.202431E-3
286.067963E-3
285.771561E-3
285.671997E-3
285.312080E-3
285.018539E-3
285.003090E-3
284.958458E-3
285.064316E-3
285.130692E-3
285.286903E-3
285.500908E-3
285.548401E-3
285.587311E-3
285.586739E-3
285.506630E-3
285.499191E-3
285.267448E-3
285.238838E-3
285.248566E-3
284.977341E-3
284.886932E-3
284.600830E-3
284.405708E-3
284.401703E-3
284.149361E-3
284.112167E-3
283.907318E-3
283.855247E-3
283.831215E-3
283.704185E-3
283.697891E-3
283.566856E-3
283.521652E-3
283.472443E-3
283.444405E-3
283.388329E-3
283.078766E-3
283.185196E-3
283.231544E-3
283.105087E-3
283.206940E-3
283.136559E-3
283.120537E-3
283.107948E-3
283.027267E-3
283.257866E-3
283.160019E-3
283.126259E-3
283.083344E-3
282.988358E-3
283.087921E-3
283.009529E-3
282.921410E-3
282.999802E-3
282.650757E-3
282.815552E-3
282.858467E-3
282.852745E-3
282.946014E-3
282.835007E-3
282.857895E-3
282.776642E-3
282.819557E-3
283.010674E-3
282.764053E-3
282.844734E-3
282.728004E-3
282.616425E-3
282.533455E-3
282.370377E-3
282.456779E-3
282.424736E-3
282.396126E-3
282.600403E-3
282.685089E-3
283.314514E-3
284.153366E-3
285.206795E-3
286.589813E-3
287.534523E-3
289.052582E-3
290.243912E-3
291.087341E-3
291.599464E-3
291.637230E-3
291.486168E-3
290.982056E-3
290.388107E-3
290.038490E-3
289.357567E-3
288.829422E-3
288.451195E-3
288.158798E-3
288.121605E-3
287.849808E-3
287.851524E-3
287.866974E-3
287.936211E-3
288.007164E-3
287.975121E-3
288.066101E-3
287.964249E-3
287.575722E-3
287.379456E-3
286.961174E-3
286.750603E-3
286.705971E-3
286.653328E-3
286.652184E-3
286.585808E-3
286.728859E-3
286.829567E-3
286.948013E-3
287.094498E-3
287.125397E-3
286.931992E-3
287.000656E-3
287.055016E-3
286.994934E-3
286.759758E-3
286.663628E-3
286.505699E-3
286.289978E-3
286.268806E-3
285.975838E-3
285.885429E-3
285.796165E-3
285.665131E-3
285.607338E-3
285.607338E-3
285.589600E-3
285.535812E-3
285.413933E-3
285.412788E-3
285.256577E-3
285.223389E-3
285.241127E-3
285.252571E-3
285.272598E-3
285.188484E-3
285.521507E-3
285.328674E-3
285.246849E-3
285.207367E-3
285.068893E-3
285.164452E-3
285.077477E-3
285.062027E-3
285.147858E-3
285.177040E-3
285.099792E-3
285.013962E-3
284.993362E-3
285.062599E-3
284.948158E-3
284.989929E-3
284.960175E-3
284.878349E-3
284.648895E-3
284.786797E-3
284.937286E-3
284.876633E-3
284.829712E-3
284.948730E-3
284.930420E-3
284.842300E-3
284.809685E-3
284.955025E-3
284.895515E-3
284.635735E-3
284.622574E-3
284.551048E-3
284.489822E-3
284.447479E-3
284.274101E-3
284.326172E-3
284.259224E-3
284.315872E-3
284.498405E-3
284.601974E-3
285.170746E-3
286.029625E-3
287.140274E-3
288.526726E-3
289.786720E-3
291.223526E-3
292.245483E-3
293.039703E-3
293.631363E-3
293.490601E-3
293.344116E-3
292.862320E-3
292.162514E-3
291.506767E-3
290.783501E-3
290.298271E-3
289.858246E-3
289.648819E-3
289.414787E-3
289.268875E-3
289.270020E-3
289.348984E-3
289.330101E-3
289.462852E-3
289.373016E-3
289.346123E-3
289.183617E-3
288.822556E-3
288.538170E-3
288.133049E-3
288.094139E-3
287.913322E-3
287.806892E-3
287.865257E-3
287.817192E-3
287.996864E-3
288.087273E-3
288.103867E-3
288.109016E-3
288.090706E-3
288.111877E-3
288.101578E-3
287.915039E-3
287.948227E-3
287.736511E-3
287.594604E-3
287.362862E-3
287.187195E-3
286.708832E-3
286.817551E-3
286.684799E-3
286.609840E-3
286.468506E-3
286.493683E-3
286.271667E-3
286.209869E-3
286.081123E-3
286.098289E-3
285.915184E-3
285.734940E-3
285.693741E-3
285.630226E-3
285.517502E-3
285.484314E-3
285.459709E-3
285.429955E-3
285.531235E-3
285.352707E-3
285.363007E-3
285.286903E-3
285.251427E-3
285.230827E-3
285.183907E-3
285.190773E-3
285.135269E-3
284.975624E-3
285.005379E-3
284.878349E-3
284.825706E-3
284.771347E-3
284.810257E-3
284.749603E-3
284.767914E-3
284.669495E-3
284.542465E-3
284.482956E-3
284.462929E-3
284.425163E-3
284.380531E-3
284.238052E-3
284.250069E-3
284.029770E-3
283.903313E-3
283.848381E-3
283.739662E-3
283.707619E-3
283.590889E-3
283.505058E-3
283.473015E-3
283.360291E-3
283.507919E-3
284.034920E-3
284.829712E-3
285.927200E-3
287.035561E-3
288.299561E-3
289.409637E-3
290.358353E-3
290.997505E-3
290.854454E-3
291.118240E-3
290.768623E-3
290.282249E-3
289.735794E-3
289.081192E-3
288.591957E-3
288.025475E-3
287.599182E-3
287.182617E-3
286.940002E-3
286.922836E-3
286.792946E-3
286.669350E-3
286.749458E-3
286.758614E-3
286.786079E-3
286.565208E-3
286.511993E-3
286.106873E-3
285.800743E-3
285.700035E-3
285.693741E-3
285.701180E-3
285.796165E-3
285.775566E-3
285.995865E-3
286.020470E-3
286.225319E-3
286.295128E-3
286.239052E-3
286.164665E-3
286.182976E-3
286.100006E-3
285.966682E-3
285.821342E-3
285.763550E-3
285.532951E-3
285.325813E-3
285.178757E-3
284.950447E-3
284.876060E-3
284.771919E-3
284.883499E-3
284.756470E-3
284.525871E-3
284.464645E-3
284.355354E-3
284.355927E-3
284.295273E-3
284.181976E-3
284.210014E-3
284.116745E-3
284.135056E-3
284.179115E-3
284.071541E-3
284.134483E-3
284.052086E-3
284.003448E-3
284.065819E-3
284.125328E-3
284.354782E-3
284.151077E-3
284.113312E-3
284.166527E-3
284.061241E-3
284.203720E-3
284.014893E-3
283.973122E-3
283.957100E-3
283.677864E-3
283.906174E-3
283.862114E-3
283.827209E-3
283.851242E-3
283.906174E-3
283.898163E-3
283.950233E-3
283.890724E-3
283.907318E-3
283.767128E-3
283.765984E-3
283.785439E-3
283.619499E-3
283.585739E-3
283.415222E-3
283.456993E-3
283.459854E-3
283.198357E-3
283.555412E-3
283.876419E-3
284.674072E-3
285.625076E-3
286.732292E-3
288.240623E-3
289.401627E-3
290.736580E-3
291.735649E-3
292.314720E-3
292.751884E-3
292.590523E-3
292.275238E-3
291.706467E-3
291.067314E-3
290.692520E-3
290.022469E-3
289.554405E-3
289.172745E-3
288.947868E-3
288.866043E-3
288.714409E-3
288.763618E-3
288.813400E-3
288.697243E-3
288.982201E-3
288.950729E-3
288.882065E-3
288.680077E-3
288.294983E-3
288.110733E-3
287.817764E-3
287.650108E-3
287.444687E-3
287.400055E-3
287.593460E-3
287.485313E-3
287.668991E-3
287.771988E-3
287.886429E-3
288.020897E-3
288.016319E-3
288.273239E-3
287.991142E-3
287.797165E-3
287.825775E-3
287.679291E-3
287.553978E-3
287.410355E-3
287.151718E-3
287.030983E-3
287.065315E-3
286.839294E-3
286.675072E-3
286.542892E-3
286.560631E-3
286.385536E-3
286.426163E-3
286.298561E-3
286.146927E-3
286.346626E-3
286.103439E-3
286.121750E-3
286.044502E-3
285.942078E-3
286.058807E-3
285.973549E-3
285.988998E-3
285.907745E-3
286.034775E-3
285.910606E-3
285.769844E-3
285.894012E-3
285.793877E-3
285.780144E-3
285.821915E-3
285.705757E-3
285.765266E-3
285.958672E-3
285.789871E-3
285.707474E-3
285.644531E-3
285.655975E-3
285.606766E-3
285.538673E-3
285.788155E-3
285.658836E-3
285.559273E-3
285.476875E-3
285.444260E-3
285.506630E-3
285.393906E-3
285.409927E-3
285.347557E-3
285.431671E-3
285.401344E-3
285.223961E-3
285.164452E-3
285.151291E-3
285.005379E-3
284.939003E-3
284.875488E-3
284.870338E-3
285.179901E-3
285.516357E-3
286.340332E-3
287.242699E-3
288.482094E-3
289.757538E-3
291.043854E-3
292.273521E-3
293.172455E-3
293.997574E-3
293.994141E-3
293.680000E-3
293.337822E-3
292.696953E-3
292.062378E-3
291.444969E-3
290.821838E-3
290.390396E-3
289.702034E-3
289.698029E-3
289.617348E-3
289.590454E-3
289.668274E-3
289.588165E-3
289.663124E-3
289.699745E-3
289.622498E-3
289.266014E-3
289.065742E-3
288.738441E-3
288.502121E-3
288.242340E-3
288.109016E-3
287.909317E-3
287.950516E-3
288.016319E-3
287.777710E-3
288.057518E-3
288.206291E-3
288.299561E-3
288.418007E-3
288.315010E-3
288.334465E-3
288.059807E-3
288.033485E-3
287.878418E-3
287.674141E-3
287.598038E-3
287.381744E-3
287.243843E-3
287.105370E-3
286.879349E-3
286.663628E-3
286.601257E-3
286.533737E-3
286.427879E-3
286.331749E-3
286.356926E-3
286.219597E-3
286.261940E-3
286.046791E-3
286.001015E-3
285.932350E-3
285.840797E-3
285.785866E-3
285.781860E-3
285.666275E-3
285.725212E-3
285.604477E-3
285.587311E-3
285.492897E-3
285.520363E-3
285.654831E-3
285.467720E-3
285.463715E-3
285.450554E-3
285.391617E-3
285.376167E-3
285.282898E-3
284.930420E-3
285.037994E-3
284.980774E-3
285.042572E-3
284.961891E-3
284.890938E-3
284.842873E-3
284.776497E-3
284.804535E-3
284.722710E-3
284.736443E-3
284.706688E-3
284.596825E-3
284.512711E-3
284.325600E-3
284.263802E-3
284.199142E-3
283.988571E-3
284.082985E-3
283.898163E-3
283.897591E-3
283.891869E-3
283.910179E-3
284.328461E-3
285.116386E-3
286.168098E-3
287.306786E-3
288.163376E-3
289.615059E-3
290.607834E-3
291.355705E-3
291.677284E-3
291.542244E-3
291.153717E-3
290.520859E-3
289.905739E-3
289.157867E-3
288.687515E-3
288.310432E-3
287.865257E-3
287.512779E-3
287.368011E-3
287.145424E-3
287.124252E-3
287.114525E-3
287.125397E-3
287.167740E-3
287.020683E-3
287.008095E-3
286.641312E-3
286.301422E-3
286.116028E-3
285.766411E-3
285.884285E-3
285.904312E-3
285.947800E-3
286.204147E-3
286.291122E-3
286.512566E-3
286.596107E-3
286.668205E-3
286.860466E-3
286.624146E-3
286.606979E-3
286.398697E-3
286.327744E-3
286.192703E-3
285.967255E-3
285.853958E-3
285.658264E-3
285.440254E-3
285.391617E-3
285.170174E-3
285.159874E-3
285.009384E-3
284.868622E-3
284.765625E-3
284.751320E-3
284.695816E-3
284.332466E-3
284.485817E-3
284.426308E-3
284.442902E-3
284.475517E-3
284.416580E-3
284.436607E-3
284.423447E-3
284.296417E-3
284.465790E-3
284.378815E-3
284.339333E-3
284.359360E-3
284.306717E-3
284.317589E-3
284.311295E-3
284.349060E-3
284.405136E-3
284.216309E-3
284.275818E-3
284.227180E-3
284.212875E-3
284.317589E-3
284.232903E-3
284.311295E-3
284.206009E-3
284.175682E-3
