Notes :


2023-11-13 ¿ÀÀü 12:08:11
Volts
Ch : LED 2,
1.012617E+0
1.012577E+0
1.012284E+0
1.012172E+0
1.012061E+0
1.012111E+0
1.011966E+0
1.011770E+0
1.011711E+0
1.011456E+0
1.011304E+0
1.011283E+0
1.011009E+0
1.010979E+0
1.010723E+0
1.010678E+0
1.010546E+0
1.010516E+0
1.010406E+0
1.010226E+0
1.010331E+0
1.010332E+0
1.010186E+0
1.010254E+0
1.009985E+0
1.009856E+0
1.009915E+0
1.009725E+0
1.009637E+0
1.009387E+0
1.009221E+0
1.008988E+0
1.008553E+0
1.008460E+0
1.008234E+0
1.008217E+0
1.008208E+0
1.008153E+0
1.008504E+0
1.009334E+0
1.010920E+0
1.013093E+0
1.015196E+0
1.017412E+0
1.019329E+0
1.020946E+0
1.022094E+0
1.022738E+0
1.022989E+0
1.022714E+0
1.022428E+0
1.021828E+0
1.021189E+0
1.020643E+0
1.019934E+0
1.019495E+0
1.019190E+0
1.018942E+0
1.018801E+0
1.018467E+0
1.018674E+0
1.018775E+0
1.018660E+0
1.018729E+0
1.018516E+0
1.018277E+0
1.017858E+0
1.017229E+0
1.016478E+0
1.015922E+0
1.015443E+0
1.015137E+0
1.015108E+0
1.015241E+0
1.015292E+0
1.015772E+0
1.015785E+0
1.015742E+0
1.015928E+0
1.015854E+0
1.015869E+0
1.015695E+0
1.015428E+0
1.015242E+0
1.014999E+0
1.014878E+0
1.014730E+0
1.014536E+0
1.014351E+0
1.014110E+0
1.014004E+0
1.014015E+0
1.013751E+0
1.013509E+0
1.013350E+0
1.013145E+0
1.013007E+0
1.012673E+0
1.012529E+0
1.012225E+0
1.012009E+0
1.011745E+0
1.011595E+0
1.011493E+0
1.011219E+0
1.011115E+0
1.011101E+0
1.010965E+0
1.010785E+0
1.010718E+0
1.010433E+0
1.010616E+0
1.010203E+0
1.009927E+0
1.009764E+0
1.009574E+0
1.009452E+0
1.009375E+0
1.009542E+0
1.009327E+0
1.009180E+0
1.009155E+0
1.009036E+0
1.009080E+0
1.008977E+0
1.008888E+0
1.008916E+0
1.008761E+0
1.008857E+0
1.008829E+0
1.008749E+0
1.008624E+0
1.008260E+0
1.008147E+0
1.007776E+0
1.007592E+0
1.007256E+0
1.007276E+0
1.007314E+0
1.007614E+0
1.008428E+0
1.009756E+0
1.011572E+0
1.013812E+0
1.016021E+0
1.018212E+0
1.019803E+0
1.021160E+0
1.022020E+0
1.022227E+0
1.022206E+0
1.021868E+0
1.021248E+0
1.020705E+0
1.019915E+0
1.019429E+0
1.019019E+0
1.018524E+0
1.018347E+0
1.018081E+0
1.018082E+0
1.018154E+0
1.018142E+0
1.018294E+0
1.018347E+0
1.018280E+0
1.018209E+0
1.017929E+0
1.017440E+0
1.016826E+0
1.015942E+0
1.015580E+0
1.015228E+0
1.015126E+0
1.015261E+0
1.015466E+0
1.015708E+0
1.015860E+0
1.016111E+0
1.016176E+0
1.016073E+0
1.016149E+0
1.016061E+0
1.015949E+0
1.015858E+0
1.015763E+0
1.015661E+0
1.015484E+0
1.015227E+0
1.015180E+0
1.014962E+0
1.014817E+0
1.014625E+0
1.014465E+0
1.014272E+0
1.014059E+0
1.014050E+0
1.013584E+0
1.013477E+0
1.013451E+0
1.013132E+0
1.013028E+0
1.012915E+0
1.012837E+0
1.012706E+0
1.012590E+0
1.012617E+0
1.012221E+0
1.012026E+0
1.011916E+0
1.011642E+0
1.011650E+0
1.011366E+0
1.011212E+0
1.011128E+0
1.010975E+0
1.010952E+0
1.010830E+0
1.010725E+0
1.010790E+0
1.010615E+0
1.010601E+0
1.010451E+0
1.010405E+0
1.010205E+0
1.009949E+0
1.009865E+0
1.009640E+0
1.009521E+0
1.009344E+0
1.009139E+0
1.008886E+0
1.008797E+0
1.008671E+0
1.008381E+0
1.007980E+0
1.007926E+0
1.007723E+0
1.007707E+0
1.007748E+0
1.007889E+0
1.008789E+0
1.010358E+0
1.012420E+0
1.014593E+0
1.016717E+0
1.018597E+0
1.019888E+0
1.020959E+0
1.021882E+0
1.021671E+0
1.021614E+0
1.021153E+0
1.020613E+0
1.020083E+0
1.019422E+0
1.019025E+0
1.018496E+0
1.018066E+0
1.017906E+0
1.017775E+0
1.017899E+0
1.017852E+0
1.018082E+0
1.018133E+0
1.017610E+0
1.017623E+0
1.017210E+0
1.016484E+0
1.015857E+0
1.015248E+0
1.015146E+0
1.014788E+0
1.015034E+0
1.014854E+0
1.015224E+0
1.015740E+0
1.015838E+0
1.016055E+0
1.016170E+0
1.015995E+0
1.016083E+0
1.015625E+0
1.015153E+0
1.015008E+0
1.014838E+0
1.014710E+0
1.014308E+0
1.014074E+0
1.013958E+0
1.013705E+0
1.013501E+0
1.013413E+0
1.013143E+0
1.012990E+0
1.012768E+0
1.012788E+0
1.012518E+0
1.012368E+0
1.012156E+0
1.012058E+0
1.011876E+0
1.011635E+0
1.011474E+0
1.011278E+0
1.011037E+0
1.010959E+0
1.010803E+0
1.010708E+0
1.010453E+0
1.010324E+0
1.010281E+0
1.010007E+0
1.009912E+0
1.009900E+0
1.009787E+0
1.009735E+0
1.009807E+0
1.009671E+0
1.009523E+0
1.009337E+0
1.009488E+0
1.009371E+0
1.009138E+0
1.008943E+0
1.008860E+0
1.009143E+0
1.008786E+0
1.008654E+0
1.008409E+0
1.008228E+0
1.008120E+0
1.007953E+0
1.007661E+0
1.007585E+0
1.007697E+0
1.007675E+0
1.007753E+0
1.008504E+0
1.009675E+0
1.011460E+0
1.013734E+0
1.016026E+0
1.018111E+0
1.019649E+0
1.021092E+0
1.021997E+0
1.022415E+0
1.022388E+0
1.022211E+0
1.021535E+0
1.020986E+0
1.020416E+0
1.020118E+0
1.019492E+0
1.019043E+0
1.018830E+0
1.018671E+0
1.018561E+0
1.018672E+0
1.018595E+0
1.018855E+0
1.018817E+0
1.018703E+0
1.018676E+0
1.018349E+0
1.017825E+0
1.017011E+0
1.016459E+0
1.015956E+0
1.015483E+0
1.015469E+0
1.015437E+0
1.015660E+0
1.015886E+0
1.016123E+0
1.016245E+0
1.016319E+0
1.016745E+0
1.016373E+0
1.016215E+0
1.015994E+0
1.015931E+0
1.015802E+0
1.015580E+0
1.015342E+0
1.015209E+0
1.015057E+0
1.014764E+0
1.014589E+0
1.014143E+0
1.013988E+0
1.013769E+0
1.013600E+0
1.013402E+0
1.013232E+0
1.013423E+0
1.012980E+0
1.012636E+0
1.012615E+0
1.012299E+0
1.012197E+0
1.011960E+0
1.011877E+0
1.011580E+0
1.011416E+0
1.011339E+0
1.011174E+0
1.010984E+0
1.010987E+0
1.010734E+0
1.010703E+0
1.010179E+0
1.010218E+0
1.010219E+0
1.010063E+0
1.010161E+0
1.010154E+0
1.010223E+0
1.010180E+0
1.010032E+0
1.009982E+0
1.009908E+0
1.009745E+0
1.009594E+0
1.009434E+0
1.009317E+0
1.009155E+0
1.008956E+0
1.008983E+0
1.008750E+0
1.008450E+0
1.008320E+0
1.008144E+0
1.008068E+0
1.007894E+0
1.007921E+0
1.007901E+0
1.008406E+0
1.009406E+0
1.011203E+0
1.013310E+0
1.015722E+0
1.018035E+0
1.019925E+0
1.021423E+0
1.022419E+0
1.022788E+0
1.022642E+0
1.022499E+0
1.021932E+0
1.021421E+0
1.020683E+0
1.020061E+0
1.019596E+0
1.019306E+0
1.019128E+0
1.018902E+0
1.018692E+0
1.018747E+0
1.018676E+0
1.018882E+0
1.018885E+0
1.018797E+0
1.018609E+0
1.018209E+0
1.017804E+0
1.017032E+0
1.016303E+0
1.015914E+0
1.015564E+0
1.015516E+0
1.015358E+0
1.015506E+0
1.015685E+0
1.015697E+0
1.015938E+0
1.016026E+0
1.015967E+0
1.015863E+0
1.015660E+0
1.015466E+0
1.015016E+0
1.014981E+0
1.014760E+0
1.014516E+0
1.014436E+0
1.014317E+0
1.014147E+0
1.014057E+0
1.013910E+0
1.013727E+0
1.013709E+0
1.013421E+0
1.013215E+0
1.012870E+0
1.012770E+0
1.012455E+0
1.012182E+0
1.012025E+0
1.011575E+0
1.011630E+0
1.011368E+0
1.011127E+0
1.011136E+0
1.010853E+0
1.010899E+0
1.010787E+0
1.010491E+0
1.010532E+0
1.010390E+0
1.010400E+0
1.010236E+0
1.010322E+0
1.010217E+0
1.010125E+0
1.009986E+0
1.009959E+0
1.010088E+0
1.010057E+0
1.010080E+0
1.009993E+0
1.009871E+0
1.009851E+0
1.009690E+0
1.009287E+0
1.009317E+0
1.008975E+0
1.008994E+0
1.008778E+0
1.008616E+0
1.008488E+0
1.008376E+0
1.008363E+0
1.008679E+0
1.009052E+0
1.010304E+0
1.011994E+0
1.014064E+0
1.016365E+0
1.018416E+0
1.020156E+0
1.021229E+0
1.021865E+0
1.022130E+0
1.021933E+0
1.021658E+0
1.020954E+0
1.020286E+0
1.019678E+0
1.019064E+0
1.018514E+0
1.018076E+0
1.017860E+0
1.017751E+0
1.017474E+0
1.017570E+0
1.017470E+0
1.017473E+0
1.017528E+0
1.017131E+0
1.016762E+0
1.016146E+0
1.015534E+0
1.015069E+0
1.014635E+0
1.014538E+0
1.014394E+0
1.014199E+0
1.014523E+0
1.014623E+0
1.015054E+0
1.015166E+0
1.015196E+0
1.015322E+0
1.015141E+0
1.015169E+0
1.014835E+0
1.014622E+0
1.014527E+0
1.014274E+0
1.014147E+0
1.013848E+0
1.013640E+0
1.013534E+0
1.013307E+0
1.012941E+0
1.013057E+0
1.012766E+0
1.012745E+0
1.012421E+0
1.012331E+0
1.012091E+0
1.011811E+0
1.011741E+0
1.011479E+0
1.011300E+0
1.011179E+0
1.010955E+0
1.010830E+0
1.010502E+0
1.010354E+0
1.010284E+0
1.010052E+0
1.009955E+0
1.009905E+0
1.009808E+0
1.009693E+0
1.009594E+0
1.009407E+0
1.009107E+0
1.009073E+0
1.008978E+0
1.008913E+0
1.009027E+0
1.008852E+0
1.008838E+0
1.008795E+0
1.008760E+0
1.008648E+0
1.008537E+0
1.008377E+0
1.008177E+0
1.007958E+0
1.007815E+0
1.007518E+0
1.007257E+0
1.006970E+0
1.006672E+0
1.006443E+0
1.006382E+0
1.006561E+0
1.006876E+0
1.007842E+0
1.009291E+0
1.011177E+0
1.013500E+0
1.015826E+0
1.018142E+0
1.019744E+0
1.020870E+0
1.021758E+0
1.021984E+0
1.021803E+0
1.021543E+0
1.021197E+0
1.020516E+0
1.019648E+0
1.019005E+0
1.018640E+0
1.018369E+0
1.018201E+0
1.018176E+0
1.018328E+0
1.018544E+0
1.018656E+0
1.018811E+0
1.018925E+0
1.018862E+0
1.018683E+0
1.018167E+0
1.017620E+0
1.017007E+0
1.016697E+0
1.016003E+0
1.015588E+0
1.015475E+0
1.015560E+0
1.015667E+0
1.015924E+0
1.016052E+0
1.016321E+0
1.016282E+0
1.016163E+0
1.016072E+0
1.015738E+0
1.015510E+0
1.015410E+0
1.015290E+0
1.015106E+0
1.014913E+0
1.014774E+0
1.014708E+0
1.014387E+0
1.014325E+0
1.014002E+0
1.014001E+0
1.013819E+0
1.013630E+0
1.013541E+0
1.013374E+0
1.013278E+0
1.013065E+0
1.012840E+0
1.012645E+0
1.012412E+0
1.012259E+0
1.012415E+0
1.011960E+0
1.012054E+0
1.011928E+0
1.011846E+0
1.011776E+0
1.011622E+0
1.011534E+0
1.011538E+0
1.011380E+0
1.011298E+0
1.011114E+0
1.011128E+0
1.011019E+0
1.010785E+0
1.010786E+0
1.010439E+0
1.010343E+0
1.010332E+0
1.010217E+0
1.010001E+0
1.009779E+0
1.009618E+0
1.009370E+0
1.009308E+0
1.008982E+0
1.008642E+0
1.008712E+0
1.008323E+0
1.008091E+0
1.007970E+0
1.007918E+0
1.007903E+0
1.008189E+0
1.009016E+0
1.010595E+0
1.012293E+0
1.014700E+0
1.016895E+0
1.018858E+0
1.020265E+0
1.021227E+0
1.021776E+0
1.021973E+0
1.021790E+0
1.021454E+0
1.020643E+0
1.020220E+0
1.019424E+0
1.018867E+0
1.018415E+0
1.017852E+0
1.017472E+0
1.017537E+0
1.017633E+0
1.017645E+0
1.017619E+0
1.017648E+0
1.017620E+0
1.017381E+0
1.017032E+0
1.015966E+0
1.015555E+0
1.015051E+0
1.014706E+0
1.014553E+0
1.014681E+0
1.014863E+0
1.014940E+0
1.015162E+0
1.015589E+0
1.015586E+0
1.015834E+0
1.015847E+0
1.015969E+0
1.015996E+0
1.015709E+0
1.015644E+0
1.015324E+0
1.015434E+0
1.014949E+0
1.014606E+0
1.014443E+0
1.014286E+0
1.014084E+0
1.013846E+0
1.013535E+0
1.013453E+0
1.013153E+0
1.012988E+0
1.012707E+0
1.012485E+0
1.012279E+0
1.011943E+0
1.011665E+0
1.011662E+0
1.011261E+0
1.010981E+0
1.010810E+0
1.010656E+0
1.010732E+0
1.010387E+0
1.010315E+0
1.010197E+0
1.009854E+0
1.009695E+0
1.009427E+0
1.009404E+0
1.009312E+0
1.009253E+0
1.009150E+0
1.008973E+0
1.008860E+0
1.009149E+0
1.008713E+0
1.008559E+0
1.008356E+0
1.008178E+0
1.007879E+0
1.007623E+0
1.007528E+0
1.007414E+0
1.007514E+0
1.007435E+0
1.007435E+0
1.007724E+0
1.008378E+0
1.009669E+0
1.011429E+0
1.013538E+0
1.015807E+0
1.017940E+0
1.019678E+0
1.020897E+0
1.021825E+0
1.022230E+0
1.022219E+0
1.021949E+0
1.021501E+0
1.020662E+0
1.020030E+0
1.019395E+0
1.019005E+0
1.018682E+0
1.018554E+0
1.018680E+0
1.018515E+0
1.018418E+0
1.018480E+0
1.018385E+0
1.018315E+0
1.018010E+0
1.017678E+0
1.017299E+0
1.016570E+0
1.016085E+0
1.015396E+0
1.015019E+0
1.014726E+0
1.014494E+0
1.014519E+0
1.014536E+0
1.014594E+0
1.014606E+0
1.014896E+0
1.015094E+0
1.015065E+0
1.015153E+0
1.015126E+0
1.014972E+0
1.014856E+0
1.014532E+0
1.014199E+0
1.013934E+0
1.013928E+0
1.013652E+0
1.013374E+0
1.013339E+0
1.013255E+0
1.013012E+0
1.012923E+0
1.012508E+0
1.012442E+0
1.012091E+0
1.011726E+0
1.011534E+0
1.011088E+0
1.010975E+0
1.010686E+0
1.010457E+0
1.010207E+0
1.009992E+0
1.009946E+0
1.009872E+0
1.009638E+0
1.009668E+0
1.009537E+0
1.009573E+0
1.009421E+0
1.009519E+0
1.009390E+0
1.009175E+0
1.009133E+0
1.008921E+0
1.008865E+0
1.008999E+0
1.008813E+0
1.008785E+0
1.008885E+0
1.008627E+0
1.008598E+0
1.008262E+0
1.008097E+0
1.007746E+0
1.007316E+0
1.006998E+0
1.006622E+0
1.006195E+0
1.006265E+0
1.006383E+0
1.006532E+0
1.006883E+0
1.007850E+0
1.009230E+0
1.011172E+0
1.013467E+0
1.015509E+0
1.017626E+0
1.019249E+0
1.020476E+0
1.021252E+0
1.021606E+0
1.021850E+0
1.021810E+0
1.021162E+0
1.020577E+0
1.019956E+0
1.019320E+0
1.018804E+0
1.018430E+0
1.018466E+0
1.018469E+0
1.018730E+0
1.018857E+0
1.019040E+0
1.019187E+0
1.019001E+0
1.018786E+0
1.018346E+0
1.017874E+0
1.017308E+0
1.016636E+0
1.015934E+0
1.015510E+0
1.015384E+0
1.015513E+0
1.015565E+0
1.015775E+0
1.016047E+0
1.016076E+0
1.016131E+0
1.016146E+0
1.016059E+0
1.016008E+0
1.015966E+0
1.016056E+0
1.015945E+0
1.015882E+0
1.015854E+0
1.015958E+0
1.015676E+0
1.015471E+0
1.015304E+0
1.015097E+0
1.014967E+0
1.014906E+0
1.014951E+0
1.014802E+0
1.014548E+0
1.014420E+0
1.014186E+0
1.013854E+0
1.013743E+0
1.013621E+0
1.013341E+0
1.013368E+0
1.012976E+0
1.012670E+0
1.012432E+0
1.012101E+0
1.012130E+0
1.011895E+0
1.011766E+0
1.011685E+0
1.011843E+0
1.011661E+0
1.011308E+0
1.011205E+0
1.011016E+0
1.010700E+0
1.010620E+0
1.010220E+0
1.010144E+0
1.010169E+0
1.009951E+0
1.009842E+0
1.009580E+0
1.009504E+0
1.009299E+0
1.008908E+0
1.008717E+0
1.008468E+0
1.007809E+0
1.007651E+0
1.007500E+0
1.007441E+0
1.007355E+0
1.007483E+0
1.007958E+0
1.008984E+0
1.010734E+0
1.012742E+0
1.014904E+0
1.016944E+0
1.018646E+0
1.019853E+0
1.020418E+0
