Notes :


2023-11-10 ¿ÀÈÄ 10:28:43
Volts
Ch : LED 2,
207.804680E-3
207.926559E-3
207.882500E-3
207.685089E-3
207.677650E-3
207.362938E-3
207.116890E-3
206.866264E-3
206.738663E-3
206.415367E-3
206.132126E-3
205.926132E-3
205.673218E-3
205.451202E-3
205.357933E-3
205.135918E-3
205.040359E-3
204.776001E-3
204.751968E-3
204.750824E-3
204.612923E-3
204.623795E-3
204.535675E-3
204.402924E-3
204.358292E-3
204.286766E-3
204.379463E-3
204.260445E-3
204.196358E-3
204.211807E-3
204.049301E-3
204.114532E-3
204.166031E-3
204.171181E-3
204.204941E-3
204.041862E-3
204.013252E-3
204.029846E-3
203.931999E-3
203.918266E-3
203.747177E-3
203.701973E-3
203.930283E-3
203.664207E-3
203.585243E-3
203.483963E-3
203.442192E-3
203.374100E-3
203.346634E-3
203.335762E-3
203.274536E-3
203.195000E-3
203.171539E-3
203.001022E-3
202.936363E-3
202.878571E-3
202.795601E-3
202.712059E-3
202.554703E-3
202.498055E-3
202.503777E-3
202.405930E-3
202.591324E-3
203.143501E-3
204.277039E-3
205.877495E-3
207.875633E-3
209.946442E-3
211.940575E-3
213.518143E-3
214.651108E-3
215.374947E-3
215.488815E-3
215.132904E-3
214.492607E-3
213.627434E-3
212.694740E-3
211.877632E-3
211.001587E-3
210.333824E-3
209.775352E-3
209.453773E-3
209.264946E-3
209.169388E-3
209.260941E-3
209.247208E-3
209.205437E-3
209.043503E-3
208.814621E-3
208.460426E-3
208.068466E-3
207.698822E-3
207.492256E-3
207.342911E-3
207.333183E-3
207.327461E-3
207.461357E-3
207.664490E-3
207.788086E-3
207.943153E-3
208.022118E-3
208.003807E-3
208.036995E-3
208.091927E-3
207.853889E-3
207.590103E-3
207.221031E-3
206.896591E-3
206.524658E-3
206.322670E-3
205.972481E-3
205.762482E-3
205.678940E-3
205.305290E-3
205.141640E-3
204.967690E-3
204.758263E-3
204.671860E-3
204.590607E-3
204.454422E-3
204.408073E-3
204.605484E-3
204.423523E-3
204.266739E-3
204.239845E-3
204.175758E-3
204.084206E-3
204.025841E-3
203.921700E-3
203.990364E-3
204.242706E-3
204.026413E-3
204.025269E-3
203.920555E-3
203.847885E-3
203.815269E-3
203.774643E-3
203.732872E-3
203.666496E-3
203.799248E-3
203.604698E-3
203.570938E-3
203.598976E-3
203.421593E-3
203.442192E-3
203.331757E-3
203.227615E-3
203.241920E-3
202.883720E-3
203.073120E-3
203.152084E-3
203.061104E-3
203.059959E-3
203.005600E-3
203.071976E-3
202.942085E-3
202.896881E-3
203.145790E-3
202.848244E-3
202.607918E-3
202.474022E-3
202.417946E-3
202.369308E-3
202.368736E-3
202.912331E-3
203.335762E-3
204.371452E-3
206.094360E-3
208.014107E-3
210.225677E-3
212.380600E-3
214.274025E-3
215.686226E-3
216.537666E-3
216.741943E-3
216.452408E-3
215.739441E-3
214.900017E-3
213.880920E-3
212.913895E-3
212.061882E-3
211.364937E-3
211.070251E-3
210.598183E-3
210.407639E-3
210.449409E-3
210.439682E-3
210.429382E-3
210.542107E-3
210.552406E-3
210.619926E-3
210.447693E-3
210.091782E-3
209.496117E-3
209.034348E-3
208.598900E-3
208.313942E-3
208.185196E-3
208.046722E-3
208.096504E-3
207.895660E-3
208.199501E-3
208.432388E-3
208.527374E-3
208.570862E-3
208.424377E-3
208.243561E-3
208.147430E-3
207.856178E-3
207.582664E-3
207.325172E-3
207.007027E-3
206.793594E-3
206.525803E-3
206.318665E-3
206.070900E-3
205.816841E-3
205.556488E-3
205.436897E-3
205.270386E-3
205.123329E-3
204.966545E-3
204.928207E-3
204.838371E-3
204.765129E-3
204.583168E-3
204.488754E-3
204.491043E-3
204.374886E-3
204.321671E-3
204.234695E-3
204.141426E-3
204.121971E-3
204.040718E-3
204.113388E-3
204.082489E-3
204.005241E-3
204.020691E-3
203.970909E-3
203.942871E-3
203.879356E-3
203.717995E-3
203.704834E-3
203.903389E-3
203.716278E-3
203.613853E-3
203.461075E-3
203.446198E-3
203.293991E-3
203.256798E-3
203.261375E-3
203.161240E-3
202.972984E-3
203.019905E-3
203.023911E-3
203.004456E-3
202.979279E-3
202.882576E-3
202.837372E-3
202.705193E-3
202.594757E-3
202.594185E-3
202.494049E-3
202.290344E-3
202.187920E-3
202.139282E-3
201.984787E-3
202.025986E-3
202.050018E-3
202.416801E-3
203.146935E-3
204.359436E-3
206.084061E-3
208.105087E-3
210.242271E-3
212.334824E-3
213.905525E-3
214.955521E-3
215.417862E-3
215.139198E-3
214.716911E-3
214.081764E-3
213.182831E-3
212.257576E-3
211.243629E-3
210.483742E-3
209.904099E-3
209.478378E-3
209.155083E-3
209.140205E-3
209.160233E-3
209.170532E-3
209.263802E-3
209.304428E-3
209.401703E-3
209.024048E-3
208.814049E-3
208.471298E-3
208.010674E-3
207.645607E-3
207.447624E-3
207.420731E-3
207.543755E-3
207.512283E-3
207.820129E-3
207.992363E-3
208.035278E-3
208.135986E-3
208.078766E-3
208.140564E-3
208.082771E-3
207.798386E-3
207.658768E-3
207.318878E-3
207.040787E-3
206.724358E-3
206.468010E-3
206.178474E-3
205.854607E-3
205.705261E-3
205.578232E-3
205.439186E-3
205.342484E-3
205.182266E-3
205.113602E-3
204.937935E-3
204.804039E-3
204.751968E-3
204.651260E-3
204.602623E-3
204.614067E-3
204.544830E-3
204.497910E-3
204.408073E-3
204.416084E-3
204.337692E-3
204.269028E-3
204.370308E-3
204.294205E-3
204.269600E-3
204.081345E-3
204.200935E-3
204.270172E-3
204.195786E-3
204.199791E-3
204.255295E-3
204.174614E-3
204.112816E-3
203.981209E-3
203.760338E-3
203.911400E-3
203.850174E-3
203.812408E-3
203.788948E-3
203.697968E-3
203.693390E-3
203.525162E-3
203.564644E-3
203.483391E-3
203.326607E-3
203.287125E-3
203.161240E-3
203.069115E-3
203.033638E-3
202.995300E-3
203.216171E-3
202.924347E-3
202.932358E-3
203.192139E-3
204.037857E-3
205.327606E-3
206.976128E-3
209.048080E-3
211.085701E-3
213.114166E-3
214.445114E-3
215.246773E-3
215.671349E-3
215.635872E-3
215.222168E-3
214.650536E-3
213.779068E-3
212.864685E-3
211.965752E-3
211.241913E-3
210.612488E-3
210.249710E-3
210.072899E-3
209.912682E-3
209.892082E-3
210.014534E-3
210.016823E-3
210.273170E-3
209.929276E-3
209.579086E-3
209.115601E-3
208.640099E-3
208.263016E-3
208.007240E-3
207.899666E-3
207.962036E-3
207.718849E-3
208.026695E-3
208.280182E-3
208.470726E-3
208.559418E-3
208.533096E-3
208.516502E-3
208.443260E-3
208.268166E-3
207.988358E-3
207.833290E-3
207.576370E-3
207.282829E-3
207.020760E-3
206.799889E-3
206.399918E-3
206.207085E-3
205.874062E-3
205.717850E-3
205.542183E-3
205.348206E-3
205.265808E-3
205.088997E-3
205.055809E-3
205.088425E-3
204.645538E-3
204.761124E-3
204.720497E-3
204.625511E-3
204.652405E-3
204.456711E-3
204.396057E-3
204.351425E-3
204.318810E-3
204.141426E-3
204.243279E-3
204.306793E-3
204.230118E-3
204.172325E-3
204.230690E-3
204.131126E-3
204.074478E-3
204.135704E-3
204.173470E-3
204.065895E-3
203.964615E-3
203.908539E-3
203.842735E-3
203.732872E-3
203.717422E-3
203.601265E-3
203.629303E-3
203.457642E-3
203.489685E-3
203.501129E-3
203.391838E-3
203.335762E-3
203.316307E-3
203.169823E-3
203.149223E-3
202.959251E-3
202.889442E-3
202.800751E-3
202.641106E-3
202.653694E-3
202.713776E-3
202.763557E-3
203.011322E-3
203.559494E-3
204.826355E-3
206.065178E-3
208.445549E-3
210.608482E-3
212.820625E-3
214.528084E-3
215.821838E-3
216.502190E-3
216.633797E-3
216.299057E-3
215.788078E-3
214.885139E-3
213.999939E-3
213.083267E-3
212.242699E-3
211.789513E-3
211.311722E-3
211.098289E-3
211.025047E-3
211.024475E-3
211.166382E-3
211.181831E-3
211.332893E-3
211.450195E-3
211.280823E-3
211.035919E-3
210.916328E-3
210.151863E-3
209.637451E-3
209.192848E-3
209.023476E-3
208.832932E-3
208.851242E-3
208.939362E-3
208.937645E-3
209.218025E-3
209.129906E-3
209.168243E-3
209.275818E-3
209.150505E-3
209.069824E-3
208.843231E-3
208.657265E-3
208.388901E-3
208.123398E-3
207.849884E-3
207.424164E-3
207.231331E-3
206.999016E-3
206.700325E-3
206.519508E-3
206.291771E-3
206.074905E-3
205.697823E-3
205.764771E-3
205.676079E-3
205.527878E-3
205.475807E-3
205.365944E-3
205.197716E-3
205.167961E-3
205.019188E-3
204.677010E-3
204.854393E-3
204.750824E-3
204.742813E-3
204.631805E-3
204.546547E-3
204.569435E-3
204.401207E-3
204.318237E-3
204.222679E-3
204.178619E-3
204.181480E-3
204.085350E-3
204.054451E-3
203.867912E-3
203.775787E-3
203.633308E-3
203.539467E-3
203.482246E-3
203.425598E-3
203.271675E-3
203.255081E-3
203.149796E-3
203.150940E-3
203.026772E-3
202.803612E-3
203.011894E-3
202.864838E-3
202.949524E-3
202.797890E-3
202.634239E-3
202.522087E-3
202.376175E-3
202.346992E-3
202.467728E-3
202.274895E-3
202.221680E-3
202.153015E-3
202.300644E-3
202.662849E-3
203.510857E-3
204.916763E-3
206.573868E-3
208.992577E-3
210.918617E-3
212.735939E-3
214.205360E-3
215.011597E-3
215.381241E-3
215.127754E-3
214.520073E-3
213.773346E-3
213.210297E-3
212.132835E-3
211.192703E-3
210.498047E-3
209.930420E-3
209.545898E-3
209.399986E-3
209.461784E-3
209.537315E-3
209.721565E-3
209.780502E-3
209.826851E-3
209.717560E-3
209.437180E-3
208.997154E-3
208.533096E-3
208.100510E-3
207.789230E-3
207.555199E-3
207.601547E-3
207.608986E-3
207.806396E-3
207.962036E-3
208.196068E-3
208.442116E-3
208.391762E-3
208.371735E-3
208.460426E-3
208.243561E-3
208.003807E-3
207.677650E-3
207.486534E-3
207.181549E-3
206.865692E-3
206.411362E-3
206.291771E-3
206.211090E-3
206.025124E-3
205.909538E-3
205.791092E-3
205.578232E-3
205.482674E-3
205.331612E-3
205.566216E-3
205.383110E-3
205.214882E-3
205.149078E-3
205.016327E-3
205.002594E-3
205.024338E-3
204.904747E-3
204.858398E-3
204.899597E-3
204.829788E-3
204.837227E-3
204.805183E-3
204.806900E-3
204.706764E-3
204.670715E-3
204.701042E-3
204.652977E-3
204.332542E-3
204.551697E-3
204.410934E-3
204.521370E-3
204.436111E-3
204.414368E-3
204.424095E-3
204.360008E-3
204.335976E-3
204.513359E-3
204.319954E-3
204.180336E-3
204.074478E-3
203.992653E-3
203.792953E-3
203.658485E-3
203.548050E-3
203.438759E-3
203.590965E-3
203.297424E-3
203.343201E-3
203.303719E-3
203.310013E-3
203.719711E-3
204.521942E-3
205.927849E-3
207.639885E-3
209.380531E-3
211.610413E-3
213.395119E-3
214.791870E-3
215.665054E-3
215.945435E-3
215.780067E-3
215.458488E-3
214.685440E-3
213.890076E-3
213.104439E-3
212.206078E-3
211.489677E-3
211.027908E-3
210.581589E-3
210.425377E-3
210.405350E-3
210.471153E-3
210.605049E-3
210.534096E-3
210.524940E-3
210.294914E-3
209.939575E-3
209.498405E-3
208.958244E-3
208.562851E-3
208.408928E-3
208.255577E-3
208.343697E-3
208.446693E-3
208.617783E-3
208.812904E-3
208.941650E-3
209.013748E-3
208.723640E-3
208.859825E-3
208.833504E-3
208.675003E-3
208.398628E-3
208.161736E-3
207.821846E-3
207.547188E-3
207.185555E-3
207.170677E-3
206.750679E-3
206.387329E-3
206.213379E-3
205.938148E-3
205.747604E-3
205.600548E-3
205.446053E-3
205.442047E-3
205.466080E-3
205.349922E-3
205.201149E-3
205.058098E-3
205.076408E-3
204.939651E-3
204.964828E-3
204.980850E-3
204.896164E-3
205.201149E-3
204.954529E-3
204.844666E-3
204.743385E-3
204.671860E-3
204.678154E-3
204.633522E-3
204.527664E-3
204.547691E-3
204.453850E-3
204.457283E-3
204.388618E-3
204.396057E-3
204.283905E-3
204.239845E-3
204.221535E-3
204.229546E-3
204.238129E-3
204.077339E-3
203.923416E-3
203.989220E-3
203.903389E-3
203.895378E-3
203.915405E-3
203.745461E-3
203.399849E-3
203.355217E-3
203.261948E-3
203.278542E-3
203.162956E-3
203.232193E-3
203.165817E-3
203.199577E-3
203.486252E-3
204.339981E-3
205.317307E-3
206.914330E-3
208.799744E-3
210.983849E-3
213.031769E-3
214.916611E-3
216.137123E-3
216.982269E-3
217.438889E-3
216.974258E-3
216.442108E-3
215.587234E-3
214.766693E-3
213.922691E-3
213.119316E-3
212.596893E-3
212.202644E-3
211.730576E-3
211.877060E-3
212.005234E-3
212.213516E-3
212.309074E-3
212.412071E-3
212.406349E-3
212.205505E-3
211.942863E-3
211.707687E-3
210.970116E-3
210.341263E-3
209.787369E-3
209.478378E-3
209.211731E-3
209.140205E-3
209.296989E-3
209.341621E-3
209.481812E-3
209.532166E-3
209.502411E-3
209.425735E-3
209.264946E-3
209.109306E-3
208.835793E-3
208.502197E-3
208.341408E-3
208.022690E-3
207.726288E-3
207.473373E-3
207.162666E-3
207.021332E-3
206.640816E-3
206.499481E-3
205.981636E-3
206.017113E-3
205.961609E-3
205.876923E-3
205.768776E-3
205.673790E-3
205.587959E-3
205.469513E-3
205.533600E-3
205.508995E-3
205.312729E-3
205.165100E-3
205.170822E-3
205.086708E-3
205.064392E-3
204.993439E-3
204.995728E-3
205.026627E-3
204.723358E-3
204.879570E-3
204.836082E-3
204.776001E-3
204.831505E-3
204.805183E-3
204.802322E-3
204.701614E-3
204.638672E-3
204.933929E-3
204.641533E-3
204.601479E-3
204.567719E-3
204.485893E-3
204.422951E-3
204.257011E-3
204.346275E-3
204.296494E-3
204.111671E-3
204.183769E-3
204.077339E-3
204.005814E-3
203.997803E-3
203.818703E-3
203.717422E-3
203.734016E-3
203.636742E-3
203.510284E-3
203.520584E-3
203.552628E-3
203.520012E-3
203.849602E-3
204.438972E-3
205.638885E-3
207.608986E-3
209.389687E-3
211.639023E-3
213.546181E-3
215.247345E-3
216.434669E-3
216.996574E-3
217.007446E-3
216.578293E-3
215.604973E-3
215.008736E-3
214.127541E-3
213.436317E-3
212.666130E-3
212.083626E-3
211.764908E-3
211.575508E-3
211.670494E-3
211.419296E-3
211.667061E-3
211.782646E-3
211.823845E-3
211.891365E-3
211.616135E-3
211.184692E-3
210.626793E-3
210.111809E-3
209.844017E-3
209.504128E-3
209.448051E-3
209.565926E-3
209.582520E-3
209.750748E-3
209.899521E-3
210.058022E-3
210.128403E-3
210.174179E-3
210.062027E-3
209.901810E-3
209.751320E-3
209.463501E-3
209.159660E-3
208.931923E-3
208.637810E-3
208.407784E-3
208.086777E-3
207.784653E-3
207.698250E-3
207.519722E-3
207.353783E-3
207.202721E-3
207.088280E-3
207.084846E-3
206.965828E-3
206.842232E-3
206.772423E-3
206.554985E-3
206.630516E-3
206.567001E-3
206.486320E-3
206.518364E-3
206.451988E-3
206.566429E-3
206.470299E-3
206.414795E-3
206.423950E-3
206.308365E-3
206.308365E-3
206.205368E-3
206.210518E-3
206.202507E-3
206.068039E-3
206.163025E-3
206.058884E-3
206.036568E-3
205.972481E-3
205.891228E-3
205.931282E-3
205.849457E-3
205.524445E-3
205.638885E-3
205.519867E-3
205.545044E-3
205.543327E-3
205.347633E-3
205.337334E-3
205.182838E-3
205.143356E-3
204.933357E-3
204.825783E-3
204.690742E-3
204.641533E-3
204.617500E-3
204.600334E-3
204.560852E-3
204.607773E-3
204.866982E-3
205.973053E-3
207.000732E-3
208.690453E-3
210.781860E-3
212.860107E-3
214.940643E-3
216.538811E-3
217.730141E-3
218.329239E-3
218.213654E-3
218.060303E-3
217.497253E-3
216.688156E-3
215.883064E-3
214.985275E-3
214.407349E-3
213.793945E-3
213.393402E-3
213.313293E-3
213.179970E-3
213.284111E-3
213.332176E-3
213.375664E-3
213.520432E-3
213.327026E-3
213.371658E-3
212.835503E-3
212.103081E-3
211.529160E-3
210.978699E-3
210.615349E-3
210.411644E-3
210.388184E-3
210.369301E-3
210.253143E-3
210.550117E-3
210.741806E-3
210.819626E-3
210.873413E-3
210.821915E-3
210.677147E-3
210.554695E-3
210.326958E-3
209.933853E-3
209.676361E-3
209.363937E-3
208.978844E-3
208.731651E-3
208.490753E-3
208.187485E-3
207.964897E-3
207.769203E-3
207.765198E-3
207.516289E-3
207.308006E-3
207.180405E-3
