Notes :


2023-11-11 ¿ÀÀü 12:09:44
Volts
Ch : LED 2,
735.872269E-3
735.750389E-3
735.692024E-3
735.551262E-3
735.681725E-3
735.471153E-3
735.221100E-3
735.353851E-3
735.299492E-3
735.343552E-3
735.265160E-3
735.042572E-3
734.873199E-3
734.576797E-3
734.363365E-3
733.982277E-3
733.831215E-3
733.701897E-3
733.486176E-3
733.404922E-3
733.337402E-3
733.121681E-3
733.310509E-3
732.844162E-3
732.618141E-3
732.187843E-3
731.884003E-3
731.572723E-3
731.054306E-3
730.638885E-3
730.148506E-3
729.831505E-3
729.590034E-3
729.261589E-3
728.936005E-3
728.953171E-3
729.211235E-3
729.762840E-3
730.607986E-3
732.790375E-3
736.081696E-3
740.922546E-3
746.669197E-3
752.457047E-3
757.805443E-3
762.248039E-3
765.002632E-3
766.482353E-3
766.183662E-3
764.888191E-3
762.586784E-3
760.055351E-3
757.403755E-3
754.869461E-3
752.910233E-3
751.430511E-3
750.263786E-3
749.877548E-3
749.835205E-3
750.005150E-3
750.341606E-3
750.444031E-3
750.352478E-3
749.361992E-3
748.178101E-3
746.878624E-3
745.733070E-3
745.449257E-3
745.290756E-3
745.833206E-3
746.747017E-3
747.929764E-3
749.200630E-3
750.029182E-3
750.545883E-3
750.834846E-3
750.484085E-3
750.016594E-3
748.955154E-3
748.007584E-3
746.879768E-3
745.789146E-3
744.870186E-3
743.656540E-3
742.817688E-3
742.184258E-3
741.424370E-3
741.006660E-3
740.464783E-3
740.166092E-3
739.883995E-3
739.636230E-3
739.389610E-3
739.338112E-3
739.121819E-3
738.859177E-3
738.608551E-3
738.549614E-3
738.228035E-3
738.016319E-3
737.852097E-3
737.622643E-3
737.540817E-3
737.321091E-3
737.080765E-3
736.885071E-3
736.702538E-3
736.627579E-3
736.398125E-3
736.279106E-3
736.098289E-3
735.778427E-3
735.606194E-3
735.146141E-3
734.848022E-3
734.483528E-3
733.937645E-3
733.515930E-3
732.746315E-3
732.281685E-3
731.868553E-3
731.476593E-3
731.160164E-3
730.900955E-3
730.961037E-3
731.251717E-3
731.857109E-3
733.516502E-3
736.428452E-3
740.714264E-3
746.245766E-3
752.284813E-3
758.268929E-3
763.348389E-3
767.407036E-3
769.764519E-3
770.157623E-3
769.127083E-3
767.103767E-3
764.560890E-3
761.816025E-3
759.155846E-3
756.873894E-3
754.953003E-3
753.718185E-3
753.075600E-3
752.556610E-3
752.836418E-3
752.934265E-3
753.100777E-3
753.129387E-3
752.372932E-3
751.282310E-3
749.668121E-3
748.218155E-3
747.157288E-3
746.380806E-3
746.570206E-3
747.053719E-3
748.033905E-3
749.239540E-3
750.146484E-3
751.040268E-3
751.310349E-3
751.313782E-3
751.079750E-3
750.169373E-3
749.139404E-3
748.004150E-3
746.890640E-3
745.967674E-3
744.617271E-3
743.741798E-3
742.821693E-3
741.991997E-3
741.477585E-3
740.786934E-3
740.603828E-3
740.180397E-3
739.850807E-3
739.562416E-3
739.410782E-3
739.348412E-3
739.100647E-3
738.987350E-3
738.971329E-3
738.704109E-3
738.637733E-3
738.492966E-3
738.446617E-3
738.183975E-3
737.760544E-3
737.727356E-3
737.393761E-3
737.214088E-3
737.098503E-3
736.922264E-3
736.843872E-3
736.821556E-3
736.736870E-3
736.536598E-3
736.142349E-3
735.924911E-3
735.569572E-3
735.181618E-3
734.781647E-3
734.033203E-3
733.655548E-3
732.863045E-3
732.274818E-3
731.805611E-3
731.272316E-3
731.018829E-3
730.597115E-3
730.715561E-3
730.850029E-3
731.203079E-3
732.572365E-3
734.880638E-3
738.647461E-3
743.746376E-3
749.446106E-3
755.441666E-3
760.773468E-3
764.937973E-3
767.666245E-3
768.560600E-3
768.133163E-3
766.431427E-3
764.064217E-3
761.302185E-3
758.643150E-3
756.179237E-3
754.441452E-3
753.230667E-3
752.547455E-3
752.063370E-3
752.284241E-3
752.538872E-3
752.751160E-3
752.804375E-3
752.186394E-3
751.218224E-3
749.493027E-3
747.880554E-3
746.579361E-3
745.827484E-3
745.808601E-3
746.217155E-3
747.222519E-3
748.278809E-3
749.352264E-3
750.296974E-3
750.745010E-3
750.688362E-3
750.486946E-3
749.797440E-3
748.923111E-3
747.926903E-3
746.932983E-3
745.943642E-3
745.001793E-3
744.172096E-3
743.265724E-3
742.510414E-3
741.781998E-3
741.264725E-3
740.936852E-3
740.473938E-3
740.206146E-3
740.012741E-3
739.719200E-3
739.565277E-3
739.425659E-3
739.267731E-3
739.081764E-3
738.880348E-3
738.943291E-3
738.753891E-3
738.530731E-3
738.498116E-3
738.229752E-3
738.075256E-3
737.805748E-3
737.454987E-3
737.449837E-3
737.172318E-3
737.021255E-3
736.884499E-3
736.641884E-3
736.626434E-3
736.403275E-3
736.493683E-3
736.431885E-3
736.043358E-3
735.950089E-3
735.555840E-3
735.313225E-3
735.020256E-3
734.547043E-3
734.179687E-3
733.590889E-3
732.968330E-3
732.528305E-3
732.077980E-3
731.779861E-3
731.658554E-3
731.657410E-3
731.786156E-3
732.112312E-3
732.929420E-3
734.558487E-3
737.671280E-3
742.057800E-3
747.615623E-3
753.783417E-3
759.720039E-3
764.808083E-3
768.426132E-3
770.479774E-3
770.923233E-3
769.749641E-3
767.788124E-3
765.062141E-3
762.310410E-3
759.829330E-3
757.721329E-3
756.205559E-3
755.146408E-3
754.798508E-3
754.846001E-3
755.173874E-3
755.577278E-3
755.884552E-3
755.823898E-3
755.164146E-3
753.722763E-3
752.098846E-3
750.638008E-3
749.341393E-3
748.932838E-3
749.043846E-3
749.702454E-3
750.841713E-3
751.888275E-3
752.984619E-3
753.565979E-3
753.785133E-3
753.570557E-3
752.982903E-3
752.193260E-3
751.036835E-3
750.070953E-3
748.955154E-3
747.846222E-3
747.037697E-3
746.059799E-3
745.331955E-3
744.656181E-3
744.061089E-3
743.752098E-3
743.285179E-3
742.980194E-3
742.719269E-3
742.476654E-3
742.351913E-3
741.996002E-3
741.993141E-3
741.879272E-3
741.612625E-3
741.634941E-3
741.454697E-3
741.349411E-3
741.339684E-3
741.074753E-3
741.105652E-3
740.909958E-3
740.760612E-3
740.508842E-3
740.269661E-3
740.202713E-3
739.747810E-3
739.575005E-3
739.421082E-3
739.228249E-3
738.967896E-3
738.613701E-3
738.369370E-3
738.119316E-3
737.735367E-3
737.539101E-3
736.981773E-3
736.638451E-3
736.193848E-3
735.682297E-3
735.350990E-3
734.765625E-3
734.176826E-3
733.740807E-3
733.328819E-3
732.972336E-3
732.816124E-3
732.656479E-3
732.726860E-3
732.936859E-3
733.651543E-3
734.885216E-3
737.635231E-3
741.844940E-3
746.887779E-3
752.755737E-3
758.521843E-3
763.720894E-3
767.569542E-3
769.539070E-3
770.147324E-3
769.025230E-3
766.915512E-3
764.488792E-3
761.545944E-3
758.928680E-3
756.665039E-3
754.920387E-3
753.924179E-3
753.093338E-3
752.946854E-3
752.984619E-3
753.242111E-3
753.432083E-3
753.027534E-3
752.202415E-3
750.568771E-3
748.774338E-3
747.399902E-3
746.209717E-3
745.825195E-3
745.902443E-3
746.689224E-3
747.825623E-3
748.903656E-3
750.175667E-3
750.879478E-3
751.067162E-3
751.063728E-3
750.218582E-3
749.387169E-3
748.231316E-3
747.192192E-3
746.010590E-3
744.906235E-3
744.053078E-3
743.086624E-3
742.149925E-3
741.555405E-3
740.888214E-3
740.465355E-3
740.095139E-3
739.852524E-3
739.747238E-3
739.656258E-3
739.565277E-3
739.298058E-3
739.188194E-3
739.034271E-3
738.999367E-3
738.792229E-3
738.581657E-3
738.459778E-3
738.228607E-3
737.967110E-3
737.842369E-3
737.497902E-3
737.226105E-3
736.965752E-3
736.534309E-3
736.295700E-3
736.040497E-3
735.769272E-3
735.514641E-3
735.158730E-3
734.973335E-3
734.695244E-3
734.372520E-3
734.091568E-3
733.708763E-3
733.669853E-3
733.437538E-3
733.185196E-3
733.199501E-3
732.826424E-3
732.730865E-3
732.374954E-3
732.059669E-3
731.919479E-3
731.296349E-3
731.084061E-3
730.523300E-3
729.942513E-3
729.389191E-3
728.954887E-3
728.642464E-3
728.233910E-3
727.960968E-3
728.157234E-3
728.205872E-3
729.013252E-3
730.441475E-3
733.366585E-3
737.964249E-3
743.385887E-3
749.927330E-3
755.898857E-3
761.306190E-3
765.283012E-3
767.446518E-3
767.968941E-3
767.017937E-3
765.126801E-3
762.575340E-3
759.694862E-3
757.312775E-3
755.007362E-3
753.563690E-3
752.697945E-3
752.126312E-3
752.301979E-3
752.726555E-3
753.440094E-3
754.055786E-3
754.467201E-3
754.529572E-3
753.482437E-3
752.057648E-3
750.393105E-3
748.328018E-3
747.110939E-3
746.462631E-3
746.412849E-3
746.835136E-3
747.602463E-3
748.610687E-3
749.318504E-3
749.848938E-3
750.074387E-3
749.733353E-3
749.217796E-3
748.282814E-3
747.454262E-3
746.450043E-3
745.351982E-3
744.519424E-3
743.467140E-3
742.594528E-3
741.982269E-3
741.063309E-3
740.592957E-3
740.089417E-3
739.760399E-3
739.423943E-3
739.016533E-3
738.774490E-3
738.566208E-3
738.452339E-3
738.258934E-3
737.863541E-3
737.935066E-3
737.736511E-3
737.591743E-3
737.392044E-3
737.083054E-3
737.037849E-3
736.790657E-3
736.467361E-3
736.413002E-3
736.027908E-3
735.823631E-3
735.593033E-3
735.299492E-3
735.203934E-3
734.897232E-3
734.558487E-3
734.330750E-3
733.982277E-3
733.659554E-3
733.353996E-3
733.230400E-3
732.914543E-3
732.584381E-3
732.547188E-3
732.450485E-3
732.500839E-3
732.362938E-3
732.336617E-3
732.371521E-3
732.049370E-3
731.924629E-3
731.643105E-3
731.425667E-3
731.272888E-3
730.860901E-3
730.439758E-3
730.064392E-3
729.699898E-3
729.380035E-3
729.108810E-3
728.819275E-3
728.715706E-3
728.689384E-3
729.144859E-3
729.896164E-3
731.848526E-3
735.165024E-3
739.986420E-3
745.782852E-3
751.784706E-3
757.804871E-3
762.707520E-3
766.037178E-3
767.855644E-3
767.631340E-3
766.419983E-3
764.178658E-3
761.549377E-3
759.050560E-3
756.405830E-3
754.632568E-3
753.210068E-3
752.200127E-3
751.964951E-3
751.940346E-3
752.522278E-3
753.099632E-3
753.640938E-3
753.998566E-3
753.727341E-3
752.898216E-3
751.366997E-3
749.526215E-3
747.964668E-3
746.809387E-3
746.442604E-3
746.636581E-3
747.237968E-3
748.122597E-3
748.958588E-3
749.859238E-3
750.387383E-3
750.434303E-3
750.222588E-3
749.626923E-3
748.885345E-3
748.005867E-3
747.253990E-3
746.143341E-3
745.103073E-3
744.106293E-3
743.191910E-3
742.440033E-3
741.924477E-3
741.442680E-3
740.952873E-3
740.644455E-3
740.318298E-3
740.057373E-3
739.843369E-3
739.640236E-3
739.504623E-3
739.197922E-3
739.090347E-3
738.929558E-3
738.848877E-3
738.829422E-3
738.557053E-3
738.575363E-3
738.409996E-3
738.219452E-3
738.218880E-3
737.942505E-3
737.868690E-3
737.460136E-3
737.202644E-3
736.964035E-3
736.685371E-3
736.574936E-3
735.991859E-3
735.720062E-3
735.542679E-3
735.008240E-3
734.850311E-3
734.270668E-3
733.990288E-3
733.711624E-3
733.417511E-3
733.333969E-3
732.873344E-3
732.746315E-3
732.343483E-3
732.072830E-3
731.866264E-3
731.451988E-3
731.176186E-3
730.795097E-3
730.375099E-3
729.858398E-3
729.474449E-3
729.065895E-3
728.717995E-3
728.577232E-3
728.532600E-3
728.541183E-3
728.704262E-3
729.173470E-3
730.321312E-3
733.040428E-3
736.493683E-3
741.404343E-3
747.120667E-3
752.941132E-3
758.088684E-3
761.880684E-3
764.295959E-3
764.849854E-3
764.004707E-3
762.356186E-3
759.853363E-3
756.986618E-3
754.357338E-3
752.113152E-3
750.251770E-3
748.884201E-3
748.033905E-3
747.710609E-3
747.525787E-3
747.978973E-3
748.215294E-3
748.542023E-3
748.251915E-3
747.393608E-3
746.001434E-3
744.395828E-3
743.136978E-3
742.250061E-3
741.974831E-3
742.433167E-3
743.213654E-3
744.380951E-3
745.628929E-3
746.547890E-3
747.298622E-3
747.434235E-3
747.252274E-3
746.794510E-3
745.865250E-3
744.881058E-3
743.762398E-3
742.671204E-3
741.922760E-3
740.834427E-3
739.855957E-3
738.848877E-3
738.211441E-3
737.581444E-3
736.887932E-3
736.485672E-3
736.118889E-3
736.058235E-3
735.778427E-3
735.572433E-3
735.562706E-3
735.295486E-3
735.194778E-3
735.047722E-3
734.769058E-3
734.652328E-3
734.508705E-3
734.246635E-3
734.164238E-3
733.981133E-3
733.613777E-3
733.321953E-3
733.022118E-3
732.912254E-3
732.532883E-3
732.388115E-3
731.975555E-3
731.627655E-3
731.401634E-3
730.908394E-3
730.731010E-3
730.340195E-3
729.968262E-3
729.698753E-3
729.190063E-3
728.999519E-3
728.653908E-3
728.441620E-3
728.186989E-3
727.796173E-3
727.690887E-3
727.405357E-3
727.171326E-3
726.963043E-3
726.475525E-3
726.411438E-3
725.973701E-3
725.585175E-3
725.029564E-3
724.556923E-3
723.995590E-3
723.520088E-3
723.131561E-3
722.932434E-3
722.745323E-3
722.898102E-3
723.326111E-3
724.514008E-3
726.964760E-3
730.656624E-3
736.262512E-3
742.342758E-3
748.649597E-3
754.333878E-3
758.676910E-3
761.560249E-3
762.435150E-3
761.841202E-3
760.334587E-3
757.778549E-3
755.161858E-3
752.478790E-3
750.041771E-3
748.120308E-3
746.734428E-3
746.035194E-3
745.650101E-3
745.826912E-3
746.305847E-3
746.800232E-3
747.648239E-3
748.021889E-3
747.985268E-3
747.287750E-3
745.876694E-3
744.324303E-3
742.809105E-3
741.708755E-3
741.100502E-3
740.955734E-3
741.460991E-3
742.314720E-3
742.983055E-3
743.769836E-3
744.151497E-3
744.486237E-3
744.264221E-3
743.974686E-3
743.415070E-3
742.363358E-3
741.652679E-3
740.576935E-3
739.634514E-3
738.625717E-3
737.600327E-3
736.774635E-3
735.939789E-3
735.199928E-3
734.707832E-3
734.088707E-3
733.719063E-3
733.246422E-3
732.956886E-3
732.766914E-3
732.378387E-3
732.385254E-3
732.129478E-3
731.865692E-3
731.707191E-3
731.560135E-3
731.517220E-3
731.177330E-3
730.708122E-3
730.830002E-3
730.438042E-3
730.349350E-3
730.206299E-3
729.933929E-3
729.868698E-3
729.653549E-3
729.511070E-3
729.172897E-3
728.958321E-3
728.689384E-3
728.298569E-3
728.130341E-3
727.806473E-3
727.439117E-3
727.509499E-3
727.132988E-3
726.973343E-3
726.868057E-3
726.691246E-3
726.679802E-3
726.422882E-3
726.399422E-3
726.287270E-3
726.040077E-3
725.857544E-3
725.527382E-3
725.440407E-3
725.023842E-3
724.745750E-3
724.334908E-3
723.937225E-3
723.553276E-3
723.140144E-3
722.712708E-3
722.519875E-3
722.269821E-3
722.490120E-3
722.989655E-3
724.222183E-3
726.870346E-3
731.120110E-3
736.760902E-3
742.749023E-3
748.706245E-3
754.030609E-3
757.644081E-3
759.887695E-3
760.317421E-3
759.392738E-3
757.575417E-3
754.864883E-3
752.206421E-3
749.702454E-3
747.450256E-3
745.567703E-3
744.099426E-3
743.300056E-3
742.894936E-3
742.923546E-3
743.261147E-3
743.588448E-3
744.240761E-3
744.304276E-3
744.076538E-3
743.327522E-3
741.911888E-3
740.640450E-3
739.459991E-3
738.673210E-3
738.707542E-3
738.876343E-3
739.592743E-3
740.481949E-3
741.198921E-3
742.137909E-3
742.474937E-3
742.585945E-3
742.428589E-3
741.991425E-3
741.395760E-3
740.530586E-3
739.731216E-3
738.671494E-3
737.691307E-3
736.895943E-3
735.955811E-3
735.249710E-3
734.566498E-3
733.935356E-3
733.612633E-3
733.131981E-3
732.990074E-3
732.615280E-3
732.363510E-3
732.075119E-3
731.641388E-3
731.451988E-3
731.223679E-3
731.023407E-3
730.971909E-3
730.602837E-3
730.508995E-3
730.353355E-3
730.159950E-3
730.095863E-3
729.801750E-3
729.619217E-3
729.450989E-3
729.150581E-3
729.135704E-3
728.842163E-3
728.636742E-3
728.400421E-3
728.050232E-3
727.899170E-3
727.463722E-3
727.250862E-3
727.060318E-3
726.900673E-3
726.643753E-3
726.170540E-3
726.139069E-3
725.873566E-3
725.519371E-3
725.475883E-3
725.201797E-3
724.999809E-3
724.994087E-3
724.605560E-3
724.416733E-3
723.936653E-3
723.538399E-3
723.097801E-3
722.813988E-3
722.417450E-3
721.933365E-3
721.632957E-3
721.534538E-3
721.428108E-3
721.663857E-3
722.121048E-3
723.495483E-3
