Notes :


2023-10-27 ¿ÀÈÄ 9:14:25
Volts
Ch : LED 2,
789.033508E-3
786.134720E-3
785.374832E-3
782.608795E-3
781.619453E-3
781.254387E-3
779.860497E-3
781.763077E-3
781.232071E-3
781.725883E-3
782.333565E-3
781.182289E-3
782.598495E-3
780.832100E-3
779.230499E-3
777.837181E-3
773.874664E-3
775.662804E-3
775.265121E-3
775.280571E-3
776.248741E-3
775.331497E-3
777.759361E-3
777.306747E-3
777.591705E-3
778.120995E-3
776.205254E-3
777.558517E-3
776.012421E-3
775.009346E-3
774.792480E-3
772.501945E-3
773.274994E-3
771.660233E-3
770.603371E-3
770.378494E-3
768.196678E-3
769.495583E-3
768.527985E-3
767.822456E-3
767.861366E-3
765.940475E-3
767.291451E-3
766.366196E-3
766.045761E-3
766.537285E-3
764.719391E-3
766.495514E-3
765.589142E-3
765.535355E-3
766.032028E-3
764.303970E-3
765.780258E-3
765.028954E-3
764.633560E-3
764.824104E-3
763.050270E-3
764.768600E-3
763.778114E-3
763.482857E-3
763.861084E-3
762.221146E-3
763.868523E-3
762.908936E-3
762.610817E-3
762.833977E-3
760.990334E-3
762.471771E-3
761.410904E-3
760.592651E-3
760.724258E-3
758.659172E-3
759.926605E-3
759.135246E-3
758.353043E-3
758.457756E-3
756.473923E-3
757.810020E-3
757.242393E-3
756.908798E-3
758.568764E-3
759.854507E-3
765.873528E-3
770.941544E-3
776.436424E-3
782.551575E-3
785.421753E-3
790.575027E-3
791.769791E-3
791.385269E-3
791.028786E-3
787.768364E-3
787.621307E-3
784.840965E-3
782.407379E-3
781.182861E-3
778.277206E-3
779.445076E-3
778.891754E-3
778.169632E-3
779.282570E-3
778.183365E-3
780.196381E-3
779.694557E-3
778.536415E-3
778.268051E-3
775.212479E-3
775.741768E-3
774.197960E-3
773.023796E-3
773.896408E-3
773.066711E-3
775.605583E-3
775.798416E-3
775.631905E-3
776.533699E-3
775.373268E-3
777.080727E-3
776.143456E-3
774.568748E-3
774.526405E-3
772.776604E-3
773.323059E-3
771.632195E-3
770.038605E-3
769.886398E-3
767.553520E-3
768.732834E-3
767.549515E-3
766.299248E-3
766.580200E-3
765.393448E-3
766.565323E-3
765.668678E-3
764.620972E-3
765.110779E-3
764.044189E-3
765.600586E-3
764.843559E-3
763.911438E-3
764.630127E-3
763.581848E-3
765.219498E-3
764.259338E-3
763.366699E-3
764.012718E-3
763.089752E-3
764.559174E-3
763.835335E-3
763.308334E-3
763.849068E-3
763.099480E-3
764.719963E-3
763.484001E-3
762.399673E-3
762.967873E-3
762.064934E-3
762.891769E-3
761.981392E-3
760.861588E-3
760.873032E-3
759.371567E-3
760.312271E-3
758.986473E-3
757.726479E-3
757.977676E-3
757.099915E-3
758.330154E-3
758.128166E-3
758.323860E-3
762.020874E-3
765.960503E-3
772.908783E-3
778.116417E-3
782.742691E-3
787.907410E-3
790.452003E-3
793.670082E-3
793.191719E-3
791.448784E-3
790.647125E-3
788.110542E-3
787.273979E-3
784.945679E-3
782.794762E-3
782.362747E-3
780.999184E-3
782.133865E-3
781.690979E-3
781.472397E-3
782.692909E-3
782.044029E-3
783.309746E-3
782.043457E-3
780.380058E-3
779.269981E-3
776.901054E-3
777.302170E-3
776.047897E-3
775.223351E-3
776.179504E-3
776.168060E-3
778.011703E-3
778.169632E-3
777.858925E-3
778.562737E-3
777.828026E-3
778.863716E-3
777.704430E-3
776.459312E-3
776.331711E-3
774.829102E-3
775.358391E-3
773.795128E-3
772.430992E-3
772.168350E-3
770.649719E-3
771.114349E-3
769.902420E-3
768.842125E-3
768.766022E-3
767.826462E-3
769.025230E-3
768.166924E-3
767.205048E-3
767.930031E-3
767.094040E-3
768.227577E-3
767.461967E-3
766.468620E-3
767.023659E-3
766.083527E-3
767.190170E-3
766.595650E-3
765.551949E-3
766.049767E-3
765.060997E-3
766.255760E-3
765.768814E-3
764.704514E-3
765.390587E-3
764.340019E-3
765.052986E-3
764.345169E-3
762.546730E-3
763.098335E-3
762.694931E-3
763.839912E-3
763.293457E-3
761.920738E-3
761.911011E-3
761.016655E-3
761.925888E-3
761.081886E-3
759.769249E-3
760.008430E-3
758.735275E-3
759.719467E-3
759.044838E-3
758.316422E-3
759.975243E-3
760.864449E-3
765.600014E-3
770.407677E-3
775.509453E-3
782.456017E-3
787.070274E-3
792.243004E-3
794.698906E-3
794.130135E-3
795.525169E-3
793.831444E-3
793.255806E-3
790.813065E-3
787.973213E-3
787.276840E-3
785.100746E-3
785.195732E-3
784.186935E-3
782.912636E-3
784.050179E-3
783.688545E-3
785.156250E-3
785.419464E-3
784.522820E-3
784.946251E-3
782.908630E-3
782.593918E-3
780.683899E-3
778.156471E-3
778.171921E-3
777.123070E-3
778.047180E-3
778.226280E-3
777.714729E-3
779.295158E-3
778.854561E-3
780.220985E-3
779.758072E-3
778.479767E-3
778.917503E-3
777.499008E-3
777.560806E-3
776.509666E-3
773.421478E-3
773.920441E-3
772.317696E-3
772.771454E-3
771.941757E-3
770.120430E-3
770.633125E-3
769.330788E-3
769.816589E-3
769.144821E-3
767.665100E-3
768.478203E-3
767.173576E-3
767.803001E-3
767.309189E-3
765.998840E-3
767.455101E-3
766.285515E-3
766.965866E-3
766.782188E-3
765.351105E-3
767.132378E-3
765.600014E-3
766.197395E-3
765.830612E-3
764.251328E-3
766.086388E-3
764.354897E-3
764.987183E-3
764.581490E-3
763.048553E-3
765.161705E-3
763.508606E-3
763.864517E-3
763.637924E-3
762.093544E-3
763.729477E-3
761.691856E-3
761.998558E-3
761.575127E-3
759.895706E-3
761.631203E-3
759.567833E-3
759.684563E-3
759.224510E-3
757.618904E-3
758.894920E-3
757.538223E-3
757.940483E-3
758.073235E-3
758.061790E-3
762.423706E-3
765.205193E-3
771.497726E-3
777.532768E-3
782.017136E-3
788.729095E-3
790.649414E-3
792.986298E-3
793.354797E-3
791.427612E-3
791.708565E-3
788.135147E-3
786.096954E-3
784.272766E-3
781.363106E-3
781.925011E-3
779.903412E-3
779.922295E-3
780.137444E-3
779.288864E-3
781.752777E-3
780.855560E-3
781.054115E-3
780.800056E-3
778.652573E-3
779.123497E-3
776.204109E-3
775.646782E-3
775.202179E-3
774.401665E-3
776.822662E-3
775.884247E-3
777.225494E-3
778.061485E-3
777.604866E-3
779.553795E-3
777.895546E-3
778.027153E-3
777.562523E-3
775.816727E-3
776.988029E-3
774.403381E-3
773.797417E-3
772.989464E-3
771.107483E-3
772.279930E-3
770.015144E-3
769.509315E-3
769.200325E-3
767.666817E-3
769.314766E-3
767.192459E-3
767.255974E-3
767.281723E-3
766.305542E-3
768.082237E-3
766.448593E-3
766.786194E-3
766.702080E-3
765.782547E-3
767.099762E-3
765.511894E-3
765.689278E-3
765.556526E-3
764.541435E-3
766.275215E-3
764.840698E-3
765.051270E-3
764.949417E-3
764.214134E-3
765.509605E-3
763.859940E-3
764.205551E-3
763.996124E-3
763.081741E-3
764.654160E-3
762.733841E-3
762.839127E-3
762.487793E-3
761.233521E-3
762.635994E-3
760.632133E-3
760.745430E-3
760.336876E-3
759.040833E-3
760.073662E-3
758.336449E-3
758.547592E-3
759.147263E-3
759.912300E-3
764.951706E-3
768.210983E-3
774.324417E-3
780.809212E-3
785.775948E-3
791.947746E-3
793.485832E-3
795.471954E-3
795.583534E-3
794.077492E-3
794.173050E-3
790.756989E-3
789.131927E-3
787.475395E-3
785.145950E-3
785.626602E-3
783.405876E-3
783.643913E-3
784.001541E-3
783.566093E-3
785.426331E-3
784.590340E-3
785.016060E-3
784.717941E-3
783.252525E-3
783.261681E-3
780.148888E-3
779.104042E-3
778.199387E-3
777.214622E-3
778.896332E-3
777.754784E-3
778.696632E-3
779.292297E-3
779.112625E-3
780.786324E-3
779.207611E-3
779.624748E-3
779.102898E-3
778.043175E-3
778.570175E-3
776.301384E-3
775.437927E-3
774.984741E-3
772.578621E-3
773.935890E-3
771.699715E-3
771.120644E-3
770.791626E-3
769.072723E-3
770.242310E-3
768.490791E-3
768.542290E-3
768.626976E-3
767.820168E-3
769.139671E-3
767.637634E-3
767.851067E-3
767.626190E-3
765.803719E-3
767.668533E-3
766.575623E-3
766.730118E-3
766.564178E-3
765.795708E-3
767.178154E-3
765.764236E-3
765.918732E-3
766.092110E-3
765.293312E-3
766.664886E-3
764.992905E-3
764.680481E-3
764.707947E-3
763.651085E-3
765.127373E-3
763.512039E-3
763.400459E-3
763.603020E-3
762.627411E-3
763.969803E-3
762.046623E-3
761.973953E-3
761.557961E-3
760.269928E-3
761.230087E-3
759.443665E-3
758.970451E-3
759.167862E-3
758.001709E-3
759.524918E-3
758.706665E-3
760.194969E-3
763.742638E-3
767.849350E-3
775.388718E-3
780.293083E-3
785.917854E-3
790.925217E-3
793.446350E-3
796.565437E-3
795.386696E-3
794.617081E-3
793.363380E-3
790.503502E-3
789.779663E-3
786.546135E-3
784.994888E-3
784.086227E-3
782.431984E-3
783.649063E-3
782.417107E-3
782.821083E-3
783.530617E-3
783.016777E-3
784.625244E-3
783.221626E-3
782.416534E-3
781.439781E-3
779.134369E-3
779.255104E-3
777.252388E-3
776.866722E-3
776.861572E-3
776.259041E-3
778.103256E-3
777.508163E-3
778.069496E-3
778.760147E-3
777.417755E-3
778.991318E-3
777.868652E-3
777.223778E-3
776.922226E-3
773.566246E-3
774.860001E-3
773.428917E-3
772.205544E-3
771.687126E-3
769.220352E-3
770.248032E-3
768.798065E-3
768.220711E-3
768.320274E-3
766.435432E-3
767.837906E-3
766.916084E-3
766.437721E-3
766.719246E-3
764.808083E-3
766.238594E-3
765.548515E-3
765.162277E-3
765.732193E-3
763.955498E-3
765.765953E-3
765.026665E-3
764.865875E-3
765.376282E-3
763.385010E-3
765.136528E-3
764.178085E-3
763.632774E-3
763.887405E-3
762.043190E-3
763.648796E-3
762.924385E-3
762.522697E-3
762.591934E-3
760.831261E-3
762.682343E-3
761.939621E-3
761.330223E-3
761.489868E-3
759.598160E-3
760.604095E-3
759.858513E-3
759.056854E-3
758.902359E-3
756.496239E-3
758.151627E-3
757.400894E-3
756.743431E-3
757.071877E-3
755.363846E-3
757.119942E-3
757.302475E-3
758.589363E-3
762.777901E-3
766.429710E-3
774.473763E-3
780.068779E-3
784.581184E-3
789.274406E-3
790.377045E-3
793.345642E-3
792.608643E-3
790.769577E-3
789.545631E-3
785.596848E-3
785.047531E-3
782.362175E-3
779.639053E-3
779.044533E-3
776.749420E-3
778.318405E-3
777.728462E-3
777.444077E-3
778.557014E-3
777.692413E-3
779.043388E-3
777.876663E-3
775.992393E-3
775.206757E-3
772.680473E-3
773.795700E-3
773.048973E-3
772.893906E-3
774.159050E-3
774.282074E-3
776.554298E-3
776.675034E-3
776.553154E-3
777.404022E-3
776.181793E-3
777.371407E-3
775.827599E-3
774.044609E-3
773.661804E-3
771.644783E-3
772.225571E-3
770.573044E-3
768.649864E-3
767.884254E-3
766.720390E-3
767.613029E-3
766.225433E-3
765.165710E-3
765.810013E-3
764.862442E-3
766.221428E-3
765.404892E-3
764.772034E-3
765.322495E-3
764.610100E-3
765.927887E-3
765.459251E-3
764.462471E-3
765.101624E-3
764.228439E-3
765.620041E-3
764.855003E-3
763.944054E-3
764.402962E-3
763.469696E-3
764.359474E-3
763.359833E-3
762.491798E-3
762.531281E-3
761.864662E-3
763.160706E-3
762.257767E-3
761.552238E-3
761.889267E-3
760.731697E-3
761.732483E-3
760.883331E-3
759.745789E-3
759.887695E-3
758.814812E-3
759.866524E-3
758.833122E-3
757.488441E-3
757.403183E-3
756.428719E-3
757.203484E-3
756.386375E-3
755.367851E-3
756.445885E-3
756.702805E-3
760.515976E-3
764.504814E-3
769.548225E-3
776.185799E-3
782.058907E-3
788.710785E-3
792.038155E-3
793.279839E-3
794.764137E-3
793.549347E-3
793.140793E-3
790.798187E-3
787.683678E-3
786.239433E-3
783.468819E-3
782.926941E-3
781.519318E-3
780.151749E-3
780.781174E-3
779.912567E-3
781.416321E-3
781.301308E-3
780.255890E-3
781.343079E-3
780.263901E-3
780.418396E-3
778.615952E-3
776.288223E-3
776.031876E-3
774.815369E-3
775.789261E-3
775.908279E-3
775.192451E-3
776.492500E-3
776.297951E-3
777.941895E-3
778.165627E-3
777.164268E-3
777.844620E-3
776.721954E-3
777.109337E-3
775.994682E-3
774.051476E-3
774.312401E-3
772.528839E-3
772.613525E-3
771.270561E-3
769.346809E-3
769.616890E-3
767.940331E-3
768.407822E-3
767.988396E-3
766.365051E-3
767.123795E-3
766.112137E-3
766.678619E-3
766.591644E-3
765.232658E-3
766.250610E-3
764.963722E-3
765.689850E-3
765.371132E-3
764.035606E-3
765.498161E-3
764.188385E-3
764.972305E-3
764.643860E-3
762.712097E-3
764.953995E-3
763.685417E-3
764.209557E-3
763.668251E-3
762.082672E-3
763.853645E-3
762.184525E-3
762.630272E-3
762.333870E-3
761.091614E-3
762.849426E-3
761.240387E-3
761.643791E-3
761.244965E-3
759.612465E-3
761.148834E-3
759.139252E-3
759.151268E-3
758.717537E-3
757.147408E-3
758.670044E-3
756.914520E-3
756.933975E-3
756.793213E-3
755.846214E-3
758.825111E-3
759.955788E-3
764.573479E-3
770.677185E-3
776.132011E-3
784.060478E-3
787.945747E-3
792.018127E-3
794.393921E-3
793.036079E-3
794.837379E-3
791.953468E-3
790.273476E-3
788.135719E-3
784.664154E-3
784.255600E-3
781.144524E-3
780.435562E-3
779.858208E-3
778.495789E-3
780.507088E-3
779.570389E-3
780.207825E-3
780.643845E-3
779.810715E-3
780.866432E-3
778.237724E-3
777.086449E-3
775.971222E-3
774.232292E-3
775.343513E-3
773.823166E-3
774.403381E-3
775.095177E-3
775.067711E-3
777.417755E-3
776.325417E-3
776.893044E-3
776.861572E-3
775.758934E-3
776.739120E-3
774.422264E-3
773.916435E-3
773.278427E-3
771.679687E-3
772.624969E-3
770.111847E-3
769.465256E-3
768.957138E-3
767.488861E-3
768.351173E-3
766.123009E-3
765.999413E-3
765.726471E-3
764.609528E-3
765.890694E-3
764.222717E-3
764.420128E-3
764.254761E-3
763.592720E-3
765.023804E-3
763.389587E-3
763.605309E-3
763.169289E-3
762.641716E-3
764.074516E-3
762.478065E-3
762.889481E-3
762.874603E-3
762.082672E-3
763.391304E-3
761.949921E-3
762.039185E-3
762.218857E-3
761.207771E-3
762.430573E-3
760.677338E-3
760.960007E-3
760.883904E-3
759.907150E-3
760.935974E-3
759.180450E-3
759.016800E-3
758.839417E-3
757.697296E-3
758.675766E-3
756.932831E-3
756.573486E-3
756.341171E-3
755.203629E-3
756.708527E-3
755.455971E-3
756.398392E-3
759.207344E-3
762.187386E-3
770.215988E-3
775.124359E-3
781.016922E-3
786.230278E-3
787.974358E-3
791.936874E-3
791.111183E-3
790.620232E-3
789.049530E-3
785.956192E-3
785.264397E-3
781.558228E-3
779.524040E-3
778.152466E-3
776.234436E-3
777.112198E-3
775.295448E-3
775.304604E-3
775.856209E-3
774.975586E-3
776.687622E-3
775.143814E-3
774.347305E-3
773.669243E-3
771.659088E-3
772.455025E-3
771.173286E-3
771.542358E-3
772.406387E-3
772.319984E-3
774.608803E-3
774.205971E-3
775.016785E-3
775.896263E-3
774.998474E-3
776.317978E-3
774.647141E-3
773.887825E-3
773.459244E-3
771.011353E-3
771.772957E-3
769.800568E-3
768.689919E-3
768.384361E-3
766.100693E-3
767.122078E-3
765.672684E-3
765.060425E-3
765.031242E-3
763.183022E-3
764.587212E-3
763.461685E-3
763.295746E-3
763.471413E-3
760.864449E-3
763.215065E-3
762.582779E-3
762.516403E-3
763.089180E-3
761.248398E-3
763.187599E-3
762.441444E-3
762.337303E-3
762.564468E-3
760.630417E-3
762.265778E-3
761.505890E-3
761.197472E-3
761.672974E-3
760.289955E-3
761.973381E-3
761.388016E-3
760.693932E-3
761.156273E-3
758.999634E-3
760.691643E-3
759.763527E-3
758.908653E-3
758.656883E-3
756.682205E-3
758.035469E-3
756.792641E-3
755.767250E-3
755.925179E-3
754.250908E-3
756.339455E-3
757.233810E-3
759.590149E-3
764.757156E-3
769.140244E-3
777.279282E-3
782.695198E-3
787.042236E-3
791.367531E-3
791.923714E-3
794.494057E-3
793.497276E-3
791.149521E-3
789.709854E-3
785.985947E-3
785.690689E-3
783.445930E-3
781.091881E-3
780.515671E-3
778.483772E-3
780.112839E-3
779.619598E-3
779.124069E-3
780.286789E-3
779.697990E-3
781.361961E-3
