Notes :


2023-11-06 ¿ÀÈÄ 10:58:44
Volts
Ch : LED 2,
368.143272E-3
368.007660E-3
367.925262E-3
367.798233E-3
367.730713E-3
367.659760E-3
367.604256E-3
367.464638E-3
367.573357E-3
367.337608E-3
367.222023E-3
367.256355E-3
367.153931E-3
367.108154E-3
367.111015E-3
367.048645E-3
367.039490E-3
366.761971E-3
366.916466E-3
366.830635E-3
366.898155E-3
366.812325E-3
366.745949E-3
366.720772E-3
366.705894E-3
366.763687E-3
366.828346E-3
366.645241E-3
366.629219E-3
366.562843E-3
366.691017E-3
366.591454E-3
366.509056E-3
366.487885E-3
366.387749E-3
366.490173E-3
366.385460E-3
366.284752E-3
366.334534E-3
366.205788E-3
366.173744E-3
366.107941E-3
366.059303E-3
366.002083E-3
365.981483E-3
366.094780E-3
366.164589E-3
366.254425E-3
366.679573E-3
367.042351E-3
367.698097E-3
368.546677E-3
369.134331E-3
369.770622E-3
370.160866E-3
370.531082E-3
370.648956E-3
370.692444E-3
370.604324E-3
370.422935E-3
370.220375E-3
370.071030E-3
369.846725E-3
369.690514E-3
369.453049E-3
369.382668E-3
369.404411E-3
369.497108E-3
369.496536E-3
369.498253E-3
369.515991E-3
369.490814E-3
369.429016E-3
369.341469E-3
369.110298E-3
369.022179E-3
368.907166E-3
368.833923E-3
368.871689E-3
368.837929E-3
368.934631E-3
368.936348E-3
368.887711E-3
368.966675E-3
368.908882E-3
369.106865E-3
369.035912E-3
368.976402E-3
368.949509E-3
368.720055E-3
368.729782E-3
368.554115E-3
368.494034E-3
368.444824E-3
368.228531E-3
368.153572E-3
368.085480E-3
367.979622E-3
367.897224E-3
367.802811E-3
367.893219E-3
367.602539E-3
367.593956E-3
367.624855E-3
367.550468E-3
367.591667E-3
367.537880E-3
367.441177E-3
367.457199E-3
367.382812E-3
367.388535E-3
367.403412E-3
367.322159E-3
367.291832E-3
367.175674E-3
367.219734E-3
367.218018E-3
367.110443E-3
367.137909E-3
366.935921E-3
367.039490E-3
367.070961E-3
366.943359E-3
367.016602E-3
366.919327E-3
366.877556E-3
366.978836E-3
366.772270E-3
366.962814E-3
366.771126E-3
366.622925E-3
366.571999E-3
366.497040E-3
366.451263E-3
366.290474E-3
366.271019E-3
366.304779E-3
366.245842E-3
366.312790E-3
366.272163E-3
366.546822E-3
366.994286E-3
367.457771E-3
368.243980E-3
368.840790E-3
369.426155E-3
369.770050E-3
370.215225E-3
370.520210E-3
370.587158E-3
370.542526E-3
370.372009E-3
370.059586E-3
369.931984E-3
369.571495E-3
369.338608E-3
369.238472E-3
369.016457E-3
369.071960E-3
368.880844E-3
368.945503E-3
368.943214E-3
368.872261E-3
369.025612E-3
368.872833E-3
368.716049E-3
368.427086E-3
368.196487E-3
368.230247E-3
368.111229E-3
368.209076E-3
368.161583E-3
368.204498E-3
368.388748E-3
368.304062E-3
368.423653E-3
368.429947E-3
368.331528E-3
368.426514E-3
368.311501E-3
368.238831E-3
368.226814E-3
368.071175E-3
368.020248E-3
367.724991E-3
367.607689E-3
367.519569E-3
367.254066E-3
367.330742E-3
367.144775E-3
367.099571E-3
367.010307E-3
366.883850E-3
366.855812E-3
366.676712E-3
366.673279E-3
366.605759E-3
366.429520E-3
366.418648E-3
366.281319E-3
366.331673E-3
366.293907E-3
366.236687E-3
366.210365E-3
366.081047E-3
366.061592E-3
365.966606E-3
365.738297E-3
365.954018E-3
365.936852E-3
365.935707E-3
365.956306E-3
365.877342E-3
365.924263E-3
365.814400E-3
365.800667E-3
365.845299E-3
365.647316E-3
365.742874E-3
365.639877E-3
365.584373E-3
365.544319E-3
365.405273E-3
365.371513E-3
365.230751E-3
364.934349E-3
364.982414E-3
364.969254E-3
365.060234E-3
365.050507E-3
365.111732E-3
365.313148E-3
365.647316E-3
366.223526E-3
366.753387E-3
367.555046E-3
368.245697E-3
368.821335E-3
369.487953E-3
369.704819E-3
369.821548E-3
369.944572E-3
369.691658E-3
369.597816E-3
369.415283E-3
369.189835E-3
369.003296E-3
368.725777E-3
368.685150E-3
368.509483E-3
368.289757E-3
368.558121E-3
368.597603E-3
368.709183E-3
368.673706E-3
368.718910E-3
368.641663E-3
368.419075E-3
368.246269E-3
367.961311E-3
367.977333E-3
367.886353E-3
367.817116E-3
367.932129E-3
367.920113E-3
367.973328E-3
368.044853E-3
367.887497E-3
368.107224E-3
368.091202E-3
368.044853E-3
368.076324E-3
367.892075E-3
367.989922E-3
367.758751E-3
367.646599E-3
367.561913E-3
367.183113E-3
367.256927E-3
367.000008E-3
367.157936E-3
367.013741E-3
366.865540E-3
366.909027E-3
366.771126E-3
366.716766E-3
366.753387E-3
366.595459E-3
366.567993E-3
366.414642E-3
366.372299E-3
366.371727E-3
366.270447E-3
366.402626E-3
366.275597E-3
366.133118E-3
366.111374E-3
366.080475E-3
366.204071E-3
366.091919E-3
366.064453E-3
366.019249E-3
365.938568E-3
366.011810E-3
366.008377E-3
365.884209E-3
365.904236E-3
365.814972E-3
365.863609E-3
365.758324E-3
365.848160E-3
365.702248E-3
365.668488E-3
365.740585E-3
365.662766E-3
365.580368E-3
365.600395E-3
365.396690E-3
365.391541E-3
365.338898E-3
365.148926E-3
365.147781E-3
365.126038E-3
365.139771E-3
365.068817E-3
365.142632E-3
365.275955E-3
365.476799E-3
366.000938E-3
366.644669E-3
367.251205E-3
367.940712E-3
368.441391E-3
369.130325E-3
369.466209E-3
369.606972E-3
369.673920E-3
369.639015E-3
369.728851E-3
369.436455E-3
369.159508E-3
368.984985E-3
368.736649E-3
368.540955E-3
368.352699E-3
368.339539E-3
368.335533E-3
368.407059E-3
368.461990E-3
368.457413E-3
368.539238E-3
368.490601E-3
368.265152E-3
368.217087E-3
367.816544E-3
367.751884E-3
367.621422E-3
367.662621E-3
367.801094E-3
367.854309E-3
367.910385E-3
367.908669E-3
367.777634E-3
367.928696E-3
367.885208E-3
368.051720E-3
367.886925E-3
367.795372E-3
367.783928E-3
367.687798E-3
367.577934E-3
367.464638E-3
367.274094E-3
367.222595E-3
367.206001E-3
367.006874E-3
366.998863E-3
366.882706E-3
366.801453E-3
366.650391E-3
366.685867E-3
366.808891E-3
366.509628E-3
366.496468E-3
366.409492E-3
366.319656E-3
366.366577E-3
366.197777E-3
366.202927E-3
366.165161E-3
366.357994E-3
366.161156E-3
366.085052E-3
366.083908E-3
365.976906E-3
366.027832E-3
366.044998E-3
365.923119E-3
365.933990E-3
365.877342E-3
365.988922E-3
365.942001E-3
365.920830E-3
365.903091E-3
365.841866E-3
365.737724E-3
365.770340E-3
365.725136E-3
365.868759E-3
365.664482E-3
365.747452E-3
365.658188E-3
365.525436E-3
365.646744E-3
365.528870E-3
365.354919E-3
365.434456E-3
365.368080E-3
365.276527E-3
365.242767E-3
365.163231E-3
365.116882E-3
364.985275E-3
365.120888E-3
365.337181E-3
365.894508E-3
366.469574E-3
367.143059E-3
367.903519E-3
368.413925E-3
369.010162E-3
369.281387E-3
369.442749E-3
369.479942E-3
369.326019E-3
369.240761E-3
369.116020E-3
368.900871E-3
368.637657E-3
368.387604E-3
368.177032E-3
368.026543E-3
368.115807E-3
367.972183E-3
367.866325E-3
367.923546E-3
367.977905E-3
367.994499E-3
368.080330E-3
367.834282E-3
367.592812E-3
367.755890E-3
367.452049E-3
367.489815E-3
367.396545E-3
367.464638E-3
367.588806E-3
367.525864E-3
367.631721E-3
367.664337E-3
367.403412E-3
367.599106E-3
367.567635E-3
367.668915E-3
367.564774E-3
367.511559E-3
367.540169E-3
367.286682E-3
367.279816E-3
366.842651E-3
366.864967E-3
366.939926E-3
366.725349E-3
366.664124E-3
366.538239E-3
366.466713E-3
366.388321E-3
366.256142E-3
366.336250E-3
366.178322E-3
366.046715E-3
366.025543E-3
365.882492E-3
365.925980E-3
365.787506E-3
365.806961E-3
365.788078E-3
365.638161E-3
365.657616E-3
365.669060E-3
365.677643E-3
365.653038E-3
365.503693E-3
365.626144E-3
365.461922E-3
365.366364E-3
365.475082E-3
365.325165E-3
365.412140E-3
365.278244E-3
365.246773E-3
365.155792E-3
365.060234E-3
365.090561E-3
365.047646E-3
364.970398E-3
364.996719E-3
364.901161E-3
364.901733E-3
364.708900E-3
364.668274E-3
364.593887E-3
364.595032E-3
364.452553E-3
364.460564E-3
364.305496E-3
364.312363E-3
364.294052E-3
364.552116E-3
364.881706E-3
365.490532E-3
366.182327E-3
366.798592E-3
367.527580E-3
368.079185E-3
368.452835E-3
368.720627E-3
368.712044E-3
368.696594E-3
368.534088E-3
368.195343E-3
368.167877E-3
367.814827E-3
367.743874E-3
367.512131E-3
367.286682E-3
367.227745E-3
367.175674E-3
367.215157E-3
367.081261E-3
367.180824E-3
367.318153E-3
367.197990E-3
367.117310E-3
366.978264E-3
366.801453E-3
366.783714E-3
366.637802E-3
366.523933E-3
366.642380E-3
366.741943E-3
366.839218E-3
366.740799E-3
366.858101E-3
366.883850E-3
366.831207E-3
366.908455E-3
366.847229E-3
366.998863E-3
366.841507E-3
366.724777E-3
366.719055E-3
366.481590E-3
366.443825E-3
366.287613E-3
366.185760E-3
366.146851E-3
365.986061E-3
365.940285E-3
365.845871E-3
365.776062E-3
365.707397E-3
365.568924E-3
365.413857E-3
365.390396E-3
365.393829E-3
365.334320E-3
365.331459E-3
365.372658E-3
365.221596E-3
365.163231E-3
365.306854E-3
364.976692E-3
365.096283E-3
365.039635E-3
364.986420E-3
365.075684E-3
364.917183E-3
364.964676E-3
364.877701E-3
364.849091E-3
364.639664E-3
364.682579E-3
364.766693E-3
364.752388E-3
364.742661E-3
364.730072E-3
364.562988E-3
364.663696E-3
364.563560E-3
364.624214E-3
364.620209E-3
364.471436E-3
364.478302E-3
364.391327E-3
364.321518E-3
364.330101E-3
364.144135E-3
364.166451E-3
364.218521E-3
364.045715E-3
364.060020E-3
363.958740E-3
364.075470E-3
364.193344E-3
364.601898E-3
365.190125E-3
365.808678E-3
366.666412E-3
367.198563E-3
367.742157E-3
368.315506E-3
368.556404E-3
368.696022E-3
368.646812E-3
368.460846E-3
368.464279E-3
368.249702E-3
368.054581E-3
367.755890E-3
367.577934E-3
367.386818E-3
367.197418E-3
367.228889E-3
367.161942E-3
367.180824E-3
367.257500E-3
367.244911E-3
367.304993E-3
367.203140E-3
366.974831E-3
366.942215E-3
366.687584E-3
366.775703E-3
366.652107E-3
366.677856E-3
366.731071E-3
366.704178E-3
366.788292E-3
366.729355E-3
366.677856E-3
366.855812E-3
366.852379E-3
366.923332E-3
366.853523E-3
366.806602E-3
366.795731E-3
366.691589E-3
366.666985E-3
366.522789E-3
366.366577E-3
366.342545E-3
366.166306E-3
366.178894E-3
366.086197E-3
365.986633E-3
365.951729E-3
365.880203E-3
365.839005E-3
365.745735E-3
365.761185E-3
365.664482E-3
365.516853E-3
365.443611E-3
365.439606E-3
365.353203E-3
365.491104E-3
365.369225E-3
365.356064E-3
365.551186E-3
365.243912E-3
365.278816E-3
365.253067E-3
365.238762E-3
365.182686E-3
365.113449E-3
365.101433E-3
364.999008E-3
365.155220E-3
364.977264E-3
364.991570E-3
365.076828E-3
364.853668E-3
364.826775E-3
364.790154E-3
364.688873E-3
364.752388E-3
364.732933E-3
364.712906E-3
364.655113E-3
364.641953E-3
364.650536E-3
364.476013E-3
364.501762E-3
364.664841E-3
364.371872E-3
364.359283E-3
364.222527E-3
364.260292E-3
364.296341E-3
364.209366E-3
364.273453E-3
364.515495E-3
364.834785E-3
365.534019E-3
366.272736E-3
366.986847E-3
367.582512E-3
368.218803E-3
368.423653E-3
368.581581E-3
368.671417E-3
368.484879E-3
368.419075E-3
368.177605E-3
367.904663E-3
367.709541E-3
367.520714E-3
367.356491E-3
367.137909E-3
366.951942E-3
366.750526E-3
366.791725E-3
366.806602E-3
366.934204E-3
366.986275E-3
367.002296E-3
366.803169E-3
366.664124E-3
366.537666E-3
366.536522E-3
366.523361E-3
366.463852E-3
366.532516E-3
366.494179E-3
366.556549E-3
366.585159E-3
366.614342E-3
366.712761E-3
366.730499E-3
366.719055E-3
366.798019E-3
366.689873E-3
366.693306E-3
366.669846E-3
366.412354E-3
366.379166E-3
366.273880E-3
366.303635E-3
366.156006E-3
365.955734E-3
365.919685E-3
365.742874E-3
365.751457E-3
365.729141E-3
365.567780E-3
365.497398E-3
365.413857E-3
365.405273E-3
365.342903E-3
365.202141E-3
365.200996E-3
365.043068E-3
365.033340E-3
364.883423E-3
364.985275E-3
365.029907E-3
364.925766E-3
364.859962E-3
364.928627E-3
364.896584E-3
364.901733E-3
364.747810E-3
364.770699E-3
364.710045E-3
364.590454E-3
364.654541E-3
364.523506E-3
364.583015E-3
364.535522E-3
364.463997E-3
364.449120E-3
364.497185E-3
364.475441E-3
364.372444E-3
364.342690E-3
364.282608E-3
364.089203E-3
364.078331E-3
363.993073E-3
363.908958E-3
364.057159E-3
363.854027E-3
363.674927E-3
363.700676E-3
363.695526E-3
364.075470E-3
364.430237E-3
365.037346E-3
365.596962E-3
366.405487E-3
366.944504E-3
367.327309E-3
367.711258E-3
367.948723E-3
367.924118E-3
367.990494E-3
367.778778E-3
367.651749E-3
367.541313E-3
367.187119E-3
367.063522E-3
366.734505E-3
366.578293E-3
366.465569E-3
366.364288E-3
366.424370E-3
366.438675E-3
366.592598E-3
366.473579E-3
366.362000E-3
366.240692E-3
366.060448E-3
365.921974E-3
365.894508E-3
365.843010E-3
365.961456E-3
365.852165E-3
365.921974E-3
366.002083E-3
365.927124E-3
366.122246E-3
366.094780E-3
366.130829E-3
365.949440E-3
366.018677E-3
366.266441E-3
366.065598E-3
366.087341E-3
365.934563E-3
365.774918E-3
365.804100E-3
365.573502E-3
365.500259E-3
365.422440E-3
365.209579E-3
365.225601E-3
365.073967E-3
365.053368E-3
365.031052E-3
364.855385E-3
364.864540E-3
364.800453E-3
364.710045E-3
364.686584E-3
364.506340E-3
364.586449E-3
364.508629E-3
364.471436E-3
364.518929E-3
364.524651E-3
364.671707E-3
364.403343E-3
364.209366E-3
364.198494E-3
364.176750E-3
364.289474E-3
364.188766E-3
364.147568E-3
364.219666E-3
363.901520E-3
364.049721E-3
364.001656E-3
364.096642E-3
364.026260E-3
363.856316E-3
363.959312E-3
363.845444E-3
363.874626E-3
363.829994E-3
363.795662E-3
363.783073E-3
363.605118E-3
363.566208E-3
363.524437E-3
363.450050E-3
363.442039E-3
363.369370E-3
363.438034E-3
363.418579E-3
363.440895E-3
363.829422E-3
364.133835E-3
364.730644E-3
365.477371E-3
365.808678E-3
366.690445E-3
367.186546E-3
367.544746E-3
367.834854E-3
367.825699E-3
367.906952E-3
367.753601E-3
367.581367E-3
367.638588E-3
367.260933E-3
367.056656E-3
366.791725E-3
366.624069E-3
366.613770E-3
366.510201E-3
366.515350E-3
366.502762E-3
366.493034E-3
366.630363E-3
366.527939E-3
366.591454E-3
366.315079E-3
366.126823E-3
366.043854E-3
366.024399E-3
366.163445E-3
366.140556E-3
366.082191E-3
366.089058E-3
366.129684E-3
366.222954E-3
366.203499E-3
366.204643E-3
366.287613E-3
366.253281E-3
366.244125E-3
366.181755E-3
366.204643E-3
366.169167E-3
365.998077E-3
365.956879E-3
365.783501E-3
365.768051E-3
365.670204E-3
365.727425E-3
365.539742E-3
365.307999E-3
365.235329E-3
365.286827E-3
365.112305E-3
365.077972E-3
365.048218E-3
365.069389E-3
364.826202E-3
364.867973E-3
364.871979E-3
364.769554E-3
364.747810E-3
364.788437E-3
364.712334E-3
364.775276E-3
364.672852E-3
364.644814E-3
364.599037E-3
364.530945E-3
364.604759E-3
364.520645E-3
364.429092E-3
364.433670E-3
364.837074E-3
364.537811E-3
364.401054E-3
364.458847E-3
364.425659E-3
364.264870E-3
364.319229E-3
364.329529E-3
364.328384E-3
364.216232E-3
364.227104E-3
364.204216E-3
364.105797E-3
364.052582E-3
364.030266E-3
363.904953E-3
363.947868E-3
363.828278E-3
363.619995E-3
363.739586E-3
363.760757E-3
363.928413E-3
364.147568E-3
364.613914E-3
365.260506E-3
365.872765E-3
366.538811E-3
367.416000E-3
367.646599E-3
367.997932E-3
368.057442E-3
368.123817E-3
368.000793E-3
367.846870E-3
367.696953E-3
367.461777E-3
367.481232E-3
367.158508E-3
366.920471E-3
366.910744E-3
366.687584E-3
366.690445E-3
366.715050E-3
366.750526E-3
366.838074E-3
366.868973E-3
366.818619E-3
366.658974E-3
366.447830E-3
