Notes :


2023-10-26 ¿ÀÈÄ 10:38:47
Volts
Ch : LED 2,
389.746857E-3
388.450813E-3
388.870811E-3
389.269638E-3
389.019012E-3
390.766525E-3
389.528847E-3
390.240669E-3
390.727615E-3
390.485573E-3
392.096329E-3
390.763664E-3
391.321564E-3
391.327286E-3
390.614891E-3
390.883827E-3
387.885475E-3
385.376930E-3
381.843567E-3
376.868248E-3
373.927116E-3
368.757248E-3
366.168022E-3
364.709473E-3
363.835144E-3
365.818405E-3
365.462494E-3
367.264366E-3
369.119453E-3
369.961166E-3
372.394753E-3
371.578789E-3
372.377014E-3
372.817612E-3
370.656967E-3
372.069740E-3
370.492172E-3
370.343971E-3
369.996071E-3
369.181824E-3
370.310211E-3
369.709969E-3
370.777130E-3
372.122383E-3
372.978401E-3
375.721550E-3
375.572205E-3
376.568985E-3
377.027321E-3
376.227951E-3
377.318573E-3
375.628853E-3
375.407982E-3
375.520706E-3
375.076103E-3
376.623917E-3
375.742149E-3
376.414490E-3
377.324867E-3
377.411270E-3
379.302979E-3
378.759956E-3
379.648018E-3
380.340958E-3
380.158424E-3
382.212067E-3
381.347466E-3
381.600952E-3
382.092476E-3
381.572342E-3
383.561897E-3
382.840347E-3
383.274078E-3
383.557320E-3
383.055496E-3
384.509468E-3
383.555031E-3
384.068871E-3
384.255981E-3
383.751297E-3
385.295105E-3
384.216499E-3
384.926033E-3
385.045052E-3
384.458542E-3
386.000633E-3
384.992409E-3
385.369492E-3
385.899353E-3
385.433006E-3
387.197685E-3
386.207199E-3
386.567688E-3
387.127304E-3
385.962296E-3
387.995911E-3
387.183952E-3
387.787056E-3
388.225365E-3
387.774467E-3
389.200401E-3
388.326073E-3
388.687706E-3
389.191818E-3
388.516045E-3
390.067291E-3
389.144897E-3
389.374924E-3
389.433861E-3
388.846779E-3
390.379143E-3
389.248466E-3
389.748573E-3
390.375710E-3
389.859581E-3
391.294098E-3
390.761948E-3
391.031456E-3
391.426277E-3
391.133308E-3
392.416763E-3
391.831398E-3
392.074585E-3
392.513466E-3
391.683769E-3
392.635345E-3
390.875816E-3
389.288521E-3
386.573410E-3
381.719971E-3
378.914452E-3
373.914528E-3
370.632935E-3
368.459702E-3
366.106796E-3
367.407990E-3
367.499542E-3
368.938637E-3
371.036911E-3
370.072746E-3
373.822403E-3
374.748802E-3
375.672913E-3
376.511765E-3
375.507545E-3
376.949501E-3
375.679779E-3
375.202560E-3
375.004578E-3
373.410988E-3
374.735069E-3
374.324799E-3
375.191689E-3
376.754379E-3
376.614761E-3
379.356766E-3
379.477501E-3
379.776192E-3
379.937553E-3
378.428650E-3
379.244041E-3
378.127670E-3
377.654457E-3
378.037834E-3
376.847076E-3
378.410912E-3
378.333092E-3
378.927040E-3
379.780197E-3
379.148483E-3
381.600380E-3
381.718826E-3
381.899643E-3
383.003998E-3
381.841850E-3
383.793068E-3
383.647156E-3
383.666039E-3
384.519768E-3
383.661461E-3
385.359764E-3
384.761238E-3
384.718895E-3
385.308838E-3
384.324646E-3
386.040115E-3
385.564041E-3
385.547447E-3
385.577202E-3
384.781265E-3
386.580849E-3
386.061859E-3
386.058998E-3
386.632347E-3
385.594368E-3
387.245178E-3
387.022591E-3
387.150192E-3
387.548447E-3
386.504173E-3
388.206482E-3
387.821388E-3
387.881470E-3
388.601303E-3
387.573051E-3
389.332581E-3
389.125443E-3
388.919449E-3
389.502525E-3
388.352394E-3
390.201759E-3
389.920235E-3
389.410400E-3
390.187454E-3
388.929176E-3
390.727043E-3
390.380859E-3
389.958572E-3
390.804291E-3
389.948273E-3
391.594505E-3
391.565895E-3
391.240311E-3
391.922951E-3
390.937614E-3
392.875099E-3
392.553520E-3
392.050552E-3
392.812729E-3
391.522408E-3
392.644501E-3
391.026306E-3
387.927246E-3
385.129166E-3
380.233383E-3
377.538872E-3
373.040199E-3
369.835854E-3
368.276596E-3
366.534233E-3
368.445396E-3
368.761253E-3
369.613838E-3
371.693802E-3
372.248268E-3
375.155640E-3
375.494385E-3
375.691223E-3
376.412201E-3
375.625420E-3
377.047348E-3
375.827980E-3
374.861526E-3
374.987984E-3
373.719406E-3
375.260353E-3
375.038910E-3
375.338173E-3
377.069092E-3
377.443314E-3
379.709244E-3
379.827690E-3
379.844856E-3
379.964447E-3
379.205704E-3
380.156136E-3
379.114723E-3
378.266716E-3
378.586006E-3
377.977753E-3
379.652023E-3
379.747009E-3
379.236031E-3
380.172729E-3
380.302620E-3
382.320213E-3
382.309341E-3
382.367706E-3
383.514977E-3
383.322144E-3
384.974098E-3
385.006142E-3
384.581566E-3
385.079384E-3
385.011292E-3
386.518478E-3
386.187172E-3
385.748291E-3
386.598015E-3
386.058426E-3
387.261200E-3
386.880112E-3
386.396027E-3
387.247467E-3
386.806870E-3
387.960434E-3
387.803078E-3
387.337875E-3
387.967300E-3
387.384224E-3
388.844490E-3
388.389015E-3
387.852859E-3
388.833618E-3
388.201332E-3
389.703941E-3
389.485931E-3
388.899994E-3
389.782906E-3
389.242744E-3
390.547371E-3
390.537071E-3
390.126801E-3
391.055489E-3
390.443802E-3
391.874313E-3
391.504097E-3
391.176224E-3
391.852570E-3
391.164780E-3
392.565536E-3
392.337799E-3
391.890335E-3
392.504311E-3
391.750717E-3
393.157768E-3
392.887115E-3
392.374420E-3
393.318558E-3
392.561531E-3
393.971443E-3
393.973732E-3
393.407249E-3
394.386864E-3
393.893051E-3
395.324135E-3
395.269775E-3
394.373703E-3
395.053482E-3
393.343163E-3
392.780685E-3
389.830971E-3
385.322571E-3
381.899643E-3
376.554108E-3
373.955727E-3
370.795441E-3
368.515778E-3
368.982124E-3
368.548393E-3
370.814896E-3
371.632004E-3
372.704887E-3
375.100708E-3
375.525856E-3
377.495384E-3
377.616119E-3
376.887703E-3
377.493668E-3
376.486015E-3
376.895714E-3
375.813675E-3
374.738503E-3
375.346184E-3
374.545670E-3
375.474358E-3
376.139259E-3
376.322937E-3
378.524780E-3
378.788567E-3
380.760384E-3
381.257629E-3
380.537796E-3
381.423569E-3
380.407906E-3
381.064224E-3
380.369568E-3
378.407478E-3
379.466629E-3
379.460335E-3
381.035042E-3
381.128311E-3
380.789566E-3
382.237244E-3
382.278442E-3
383.670616E-3
384.113503E-3
383.199692E-3
384.957504E-3
384.745789E-3
385.866165E-3
386.145401E-3
385.593224E-3
386.941910E-3
386.566544E-3
387.510681E-3
387.407684E-3
386.640930E-3
388.415337E-3
387.506104E-3
388.448524E-3
388.230515E-3
387.742996E-3
389.317703E-3
388.081169E-3
388.778687E-3
388.878250E-3
388.281441E-3
389.946556E-3
388.939476E-3
389.645576E-3
389.784050E-3
387.881470E-3
390.553665E-3
389.568901E-3
390.531921E-3
390.789413E-3
389.361763E-3
391.683197E-3
390.767097E-3
391.697502E-3
391.825104E-3
391.278648E-3
393.232155E-3
392.094612E-3
392.812729E-3
392.990685E-3
392.395020E-3
394.079590E-3
392.905998E-3
393.378639E-3
393.483353E-3
392.864799E-3
394.382858E-3
393.207550E-3
393.836975E-3
394.144249E-3
393.491936E-3
395.073509E-3
394.140244E-3
394.884682E-3
395.233727E-3
394.694138E-3
396.634483E-3
395.471191E-3
395.886612E-3
395.849419E-3
395.405960E-3
396.672821E-3
394.674110E-3
393.387222E-3
390.659523E-3
386.421204E-3
384.047127E-3
378.639793E-3
375.868034E-3
373.594666E-3
371.692657E-3
372.965240E-3
372.119522E-3
374.065590E-3
376.178741E-3
377.009583E-3
379.978180E-3
380.051994E-3
381.341171E-3
381.925392E-3
380.605316E-3
382.715607E-3
381.078529E-3
380.993271E-3
380.822754E-3
379.716682E-3
381.174660E-3
379.933548E-3
380.917168E-3
382.094765E-3
382.522202E-3
384.793854E-3
383.803368E-3
384.352684E-3
384.472847E-3
383.478928E-3
384.205627E-3
382.340240E-3
382.295036E-3
382.451248E-3
381.840134E-3
383.559036E-3
382.604027E-3
383.659172E-3
384.340096E-3
384.451675E-3
386.412621E-3
385.702515E-3
386.698723E-3
387.197113E-3
387.166214E-3
388.801003E-3
387.722969E-3
388.450241E-3
388.521194E-3
387.167931E-3
389.505386E-3
388.607597E-3
389.376068E-3
389.643288E-3
389.240456E-3
390.677261E-3
389.352036E-3
389.858437E-3
389.982605E-3
389.690208E-3
391.155052E-3
390.101051E-3
390.634918E-3
390.856934E-3
390.322495E-3
391.619682E-3
390.517044E-3
391.100121E-3
391.493225E-3
389.928818E-3
392.151833E-3
391.361046E-3
391.842270E-3
392.215347E-3
391.876602E-3
393.571472E-3
392.563248E-3
392.955208E-3
393.172646E-3
392.880249E-3
394.283295E-3
393.247604E-3
393.668747E-3
393.976021E-3
393.406105E-3
394.856071E-3
393.879890E-3
394.219780E-3
394.594574E-3
394.255257E-3
395.959282E-3
394.964218E-3
395.499802E-3
395.954132E-3
395.474625E-3
397.140884E-3
395.931816E-3
396.343803E-3
396.466827E-3
395.344734E-3
395.625687E-3
392.271423E-3
389.584923E-3
385.942841E-3
381.295967E-3
378.635216E-3
374.413490E-3
372.469139E-3
371.605110E-3
371.139908E-3
373.314285E-3
373.512268E-3
375.141335E-3
376.931190E-3
377.679634E-3
380.336380E-3
379.936981E-3
380.505180E-3
380.829048E-3
378.608322E-3
380.616760E-3
379.377937E-3
379.250336E-3
379.128456E-3
378.253555E-3
379.824257E-3
379.323006E-3
380.328369E-3
381.715393E-3
382.218361E-3
384.336662E-3
383.884048E-3
384.089470E-3
384.177017E-3
383.218002E-3
384.106636E-3
382.805443E-3
382.569695E-3
382.811737E-3
381.980324E-3
383.652306E-3
383.183098E-3
383.659744E-3
384.584427E-3
384.543228E-3
386.533356E-3
385.992050E-3
386.598015E-3
387.410545E-3
387.206268E-3
388.904572E-3
388.222504E-3
388.631058E-3
389.124298E-3
388.608742E-3
390.091896E-3
389.305687E-3
389.324570E-3
389.887047E-3
388.711166E-3
390.396309E-3
389.872169E-3
389.995766E-3
390.629768E-3
389.250755E-3
391.120720E-3
390.621758E-3
390.751076E-3
391.256332E-3
390.551376E-3
392.053413E-3
391.337013E-3
391.537285E-3
392.107201E-3
391.215706E-3
392.737198E-3
392.213631E-3
392.230797E-3
392.907715E-3
392.083168E-3
393.908501E-3
393.450737E-3
393.660164E-3
394.313622E-3
393.420410E-3
395.102119E-3
394.449806E-3
394.392014E-3
395.169067E-3
394.005203E-3
395.299530E-3
394.623756E-3
394.591141E-3
395.357895E-3
394.414902E-3
396.176147E-3
395.684624E-3
395.737267E-3
396.460533E-3
395.554161E-3
397.242165E-3
396.902847E-3
396.930885E-3
397.465897E-3
396.401024E-3
397.985458E-3
397.255325E-3
396.283150E-3
394.664383E-3
390.579414E-3
388.444519E-3
383.888054E-3
379.708672E-3
376.435089E-3
372.893143E-3
372.922325E-3
372.319221E-3
372.865105E-3
374.475288E-3
375.006866E-3
377.899361E-3
378.879547E-3
379.874039E-3
380.964088E-3
380.021095E-3
381.748009E-3
381.095695E-3
380.453682E-3
380.045700E-3
378.124809E-3
379.494095E-3
378.816032E-3
378.743362E-3
379.546165E-3
379.218864E-3
381.844139E-3
382.477570E-3
383.302689E-3
383.999062E-3
383.461189E-3
384.938049E-3
384.098625E-3
383.535576E-3
383.623695E-3
382.245255E-3
383.666611E-3
383.257484E-3
383.074379E-3
384.132957E-3
383.276367E-3
385.195541E-3
385.253334E-3
385.501099E-3
386.489868E-3
385.802078E-3
387.685776E-3
387.723541E-3
387.740707E-3
388.569832E-3
387.603378E-3
389.479637E-3
389.294815E-3
389.085960E-3
389.793777E-3
388.827324E-3
390.353394E-3
389.932823E-3
389.681625E-3
390.233803E-3
389.401245E-3
391.040611E-3
390.668106E-3
390.660095E-3
391.224289E-3
389.892769E-3
391.668320E-3
391.314697E-3
390.896416E-3
391.649437E-3
390.590858E-3
392.523193E-3
392.277145E-3
391.866875E-3
392.353821E-3
391.499519E-3
393.498230E-3
393.328285E-3
392.578697E-3
393.443298E-3
392.869377E-3
394.500160E-3
393.984032E-3
393.376350E-3
394.187164E-3
393.600655E-3
395.198250E-3
394.539070E-3
394.026947E-3
394.651794E-3
394.034386E-3
395.726967E-3
395.416832E-3
394.832611E-3
395.614243E-3
395.073509E-3
396.623039E-3
396.312332E-3
395.915794E-3
396.635056E-3
396.212769E-3
397.436142E-3
397.233582E-3
396.764946E-3
396.968651E-3
395.670319E-3
395.685196E-3
392.775536E-3
389.004707E-3
385.835266E-3
381.261063E-3
378.991127E-3
375.842285E-3
373.650742E-3
373.790359E-3
373.649597E-3
375.888634E-3
376.781273E-3
377.684212E-3
380.011940E-3
380.769539E-3
382.871819E-3
383.045769E-3
382.782555E-3
383.288956E-3
382.143974E-3
383.054352E-3
382.307625E-3
380.801010E-3
380.952072E-3
381.032753E-3
382.988548E-3
383.270645E-3
383.691788E-3
384.967232E-3
384.757805E-3
386.036110E-3
385.639000E-3
384.513474E-3
384.674263E-3
383.410263E-3
384.273148E-3
383.691788E-3
382.994843E-3
383.872604E-3
383.595657E-3
385.332298E-3
385.411263E-3
385.287094E-3
386.521912E-3
386.380577E-3
388.118935E-3
388.068008E-3
388.009071E-3
389.057350E-3
388.549232E-3
389.971161E-3
389.877892E-3
389.477348E-3
390.120506E-3
389.539719E-3
390.696716E-3
390.533066E-3
390.099907E-3
390.836334E-3
390.073586E-3
391.367340E-3
391.213989E-3
390.590286E-3
391.326141E-3
390.685844E-3
391.815376E-3
391.608238E-3
390.274429E-3
391.194534E-3
391.018867E-3
392.353821E-3
392.447090E-3
391.754723E-3
392.828751E-3
392.171288E-3
393.329430E-3
393.177795E-3
392.338943E-3
392.983246E-3
392.847061E-3
394.372559E-3
394.294167E-3
393.746567E-3
393.968010E-3
393.545151E-3
395.128441E-3
394.798851E-3
394.104767E-3
394.427490E-3
394.162560E-3
395.423126E-3
395.355606E-3
394.763947E-3
395.805359E-3
395.222282E-3
396.566391E-3
396.636200E-3
395.642853E-3
396.990395E-3
396.563530E-3
397.631836E-3
397.410393E-3
396.423912E-3
396.586990E-3
394.472122E-3
393.224144E-3
389.560890E-3
385.018730E-3
381.716537E-3
377.170944E-3
375.387955E-3
373.280525E-3
371.690369E-3
372.770691E-3
372.854805E-3
375.339890E-3
376.663971E-3
377.177811E-3
379.313278E-3
379.567337E-3
381.217003E-3
381.067085E-3
380.394173E-3
381.012154E-3
379.923248E-3
380.089760E-3
379.553032E-3
378.262138E-3
378.958511E-3
378.641510E-3
380.181313E-3
381.068802E-3
381.272507E-3
382.923889E-3
383.070374E-3
384.400749E-3
384.196472E-3
383.016014E-3
383.695793E-3
382.453537E-3
383.080673E-3
382.712173E-3
381.584930E-3
383.022308E-3
382.604599E-3
383.893776E-3
384.474564E-3
382.993126E-3
385.248184E-3
385.116005E-3
386.607170E-3
387.097549E-3
386.719894E-3
388.212776E-3
387.626839E-3
388.774109E-3
389.127159E-3
388.410759E-3
389.935112E-3
388.772392E-3
389.887619E-3
389.934540E-3
388.996696E-3
390.689278E-3
389.632988E-3
390.429497E-3
390.491867E-3
389.659309E-3
391.532135E-3
390.184593E-3
390.953064E-3
391.022301E-3
390.410614E-3
391.980743E-3
391.062927E-3
391.647148E-3
391.797066E-3
391.127586E-3
393.078804E-3
391.890907E-3
392.643356E-3
392.666245E-3
392.106056E-3
393.917084E-3
393.152618E-3
393.797493E-3
393.918800E-3
393.277359E-3
395.062065E-3
394.114494E-3
394.671249E-3
394.719887E-3
393.175507E-3
395.348740E-3
394.575119E-3
395.492363E-3
395.431137E-3
394.691849E-3
396.200752E-3
395.078087E-3
395.604515E-3
395.579338E-3
394.927597E-3
396.616173E-3
395.620537E-3
396.453667E-3
396.556664E-3
396.106339E-3
397.862434E-3
397.103691E-3
397.649002E-3
397.775459E-3
397.200966E-3
398.637772E-3
397.154617E-3
396.469116E-3
394.729042E-3
391.230011E-3
388.826180E-3
383.260345E-3
379.661751E-3
376.169014E-3
373.135185E-3
373.401260E-3
371.755600E-3
372.620201E-3
373.950005E-3
374.403191E-3
377.745438E-3
377.941132E-3
379.497528E-3
380.117226E-3
379.944420E-3
381.423569E-3
379.931259E-3
379.880905E-3
379.362488E-3
378.294182E-3
379.141617E-3
377.540016E-3
377.721977E-3
378.263855E-3
378.426361E-3
381.279373E-3
380.849075E-3
382.272720E-3
383.049202E-3
382.248688E-3
384.035110E-3
382.466698E-3
382.563972E-3
382.574844E-3
381.718254E-3
382.947350E-3
381.592369E-3
382.229233E-3
