Notes :


2023-11-04 ¿ÀÀü 1:17:05
Volts
Ch : LED 2,
775.432205E-3
774.319839E-3
773.859215E-3
773.843765E-3
772.519112E-3
773.541069E-3
772.956848E-3
772.385788E-3
772.673607E-3
771.384430E-3
772.041321E-3
771.416473E-3
770.907784E-3
770.986748E-3
769.656944E-3
770.496368E-3
769.941902E-3
769.607162E-3
769.877815E-3
768.848419E-3
769.942474E-3
769.489288E-3
769.431496E-3
770.520973E-3
770.673180E-3
774.358749E-3
776.917648E-3
780.100822E-3
784.240723E-3
786.531258E-3
790.195656E-3
791.201591E-3
791.928291E-3
792.407227E-3
790.698624E-3
791.227341E-3
789.382553E-3
788.247871E-3
787.308311E-3
785.509872E-3
786.316109E-3
785.124207E-3
784.858131E-3
785.073853E-3
783.873940E-3
785.610580E-3
785.134506E-3
784.796906E-3
785.091591E-3
783.732605E-3
784.684181E-3
783.090019E-3
781.855202E-3
781.886101E-3
780.738831E-3
782.173920E-3
781.997108E-3
781.955338E-3
782.690048E-3
782.062912E-3
783.674240E-3
782.979012E-3
782.718658E-3
783.009338E-3
782.001114E-3
782.854271E-3
781.427193E-3
780.269623E-3
779.260254E-3
778.310394E-3
779.290009E-3
778.094673E-3
776.865005E-3
776.822090E-3
775.562096E-3
776.568604E-3
775.488853E-3
774.640846E-3
775.172424E-3
774.189377E-3
775.579834E-3
775.203323E-3
774.797058E-3
775.526619E-3
774.680328E-3
775.960922E-3
775.603294E-3
775.017357E-3
775.472260E-3
774.695206E-3
775.906563E-3
775.212479E-3
774.414825E-3
775.219345E-3
774.557304E-3
775.528336E-3
775.170135E-3
774.418831E-3
774.636841E-3
773.514748E-3
774.548149E-3
773.757362E-3
772.781181E-3
773.001480E-3
771.771812E-3
772.641563E-3
771.887970E-3
771.019363E-3
771.553802E-3
770.607376E-3
771.602440E-3
770.974731E-3
770.104980E-3
770.599365E-3
769.583702E-3
770.226860E-3
769.808006E-3
769.116211E-3
769.718170E-3
768.491364E-3
769.460106E-3
769.068718E-3
768.577766E-3
769.133377E-3
768.264771E-3
769.116783E-3
768.380928E-3
767.667389E-3
768.293953E-3
767.296028E-3
768.259621E-3
768.806648E-3
769.961357E-3
773.417473E-3
776.279068E-3
781.061554E-3
784.256172E-3
787.030220E-3
790.276909E-3
790.989876E-3
792.688751E-3
792.812920E-3
791.374397E-3
791.250229E-3
789.201736E-3
788.821220E-3
787.441635E-3
783.997536E-3
785.533905E-3
784.619522E-3
785.298157E-3
785.303307E-3
784.956551E-3
786.406517E-3
786.231995E-3
787.463951E-3
787.799263E-3
786.952400E-3
787.087440E-3
785.710716E-3
785.755920E-3
784.386635E-3
782.878304E-3
783.689117E-3
782.510948E-3
783.514023E-3
783.657646E-3
783.145523E-3
784.819221E-3
783.998108E-3
784.574318E-3
784.435272E-3
782.140732E-3
783.976364E-3
782.743263E-3
782.567024E-3
782.156754E-3
780.598068E-3
781.583405E-3
779.824448E-3
779.575539E-3
779.322052E-3
778.134155E-3
779.645920E-3
778.058052E-3
778.120422E-3
777.714157E-3
776.768875E-3
778.160477E-3
776.958847E-3
777.168274E-3
776.957130E-3
776.228142E-3
777.901268E-3
776.637268E-3
776.998329E-3
776.838112E-3
776.210976E-3
777.639198E-3
775.946617E-3
776.082802E-3
775.887108E-3
775.309753E-3
776.677322E-3
775.340652E-3
775.710869E-3
775.882530E-3
775.241661E-3
776.893044E-3
775.271988E-3
775.472832E-3
775.205612E-3
772.588921E-3
775.010490E-3
773.829460E-3
774.357605E-3
774.421120E-3
773.736763E-3
775.160408E-3
773.826599E-3
774.224854E-3
774.397659E-3
773.727608E-3
775.066566E-3
773.539925E-3
773.955345E-3
774.149323E-3
770.940971E-3
773.654366E-3
772.616386E-3
773.308182E-3
773.525047E-3
772.890472E-3
773.830605E-3
772.747993E-3
772.838974E-3
773.130226E-3
772.164917E-3
773.145676E-3
771.538925E-3
771.811867E-3
772.501373E-3
773.365402E-3
777.142525E-3
779.239655E-3
783.325195E-3
787.245369E-3
789.820862E-3
793.677521E-3
793.795395E-3
794.559288E-3
794.352722E-3
793.050957E-3
793.527603E-3
790.893173E-3
789.867783E-3
789.375114E-3
787.787819E-3
788.461304E-3
787.016487E-3
787.226486E-3
787.607574E-3
787.086868E-3
788.707352E-3
787.703705E-3
788.393211E-3
789.002037E-3
787.982368E-3
788.973427E-3
786.942101E-3
786.424828E-3
786.365891E-3
783.955765E-3
786.272621E-3
785.721588E-3
786.211967E-3
786.883163E-3
786.289787E-3
787.850761E-3
786.944389E-3
786.987305E-3
787.256241E-3
786.372185E-3
787.368965E-3
785.791397E-3
785.351372E-3
785.058403E-3
783.555794E-3
784.329987E-3
782.462883E-3
782.040596E-3
781.717873E-3
780.257034E-3
781.280136E-3
780.016136E-3
779.866219E-3
780.356598E-3
778.476334E-3
780.392647E-3
779.756355E-3
779.651642E-3
779.853630E-3
779.011917E-3
780.425262E-3
779.499435E-3
779.413605E-3
779.956627E-3
778.886032E-3
780.197525E-3
779.326630E-3
779.544640E-3
780.142593E-3
779.117203E-3
780.456161E-3
779.405594E-3
779.317474E-3
779.546928E-3
776.296806E-3
778.820229E-3
778.037453E-3
778.262901E-3
778.746986E-3
777.566528E-3
778.639984E-3
777.833748E-3
777.790260E-3
777.627182E-3
775.341797E-3
777.470970E-3
777.068138E-3
776.839828E-3
777.280426E-3
776.173782E-3
776.931953E-3
776.213837E-3
775.732613E-3
776.121712E-3
774.814796E-3
775.900269E-3
775.284576E-3
775.199890E-3
775.468826E-3
773.910713E-3
774.667740E-3
773.827744E-3
773.242950E-3
773.641777E-3
772.677612E-3
774.836540E-3
776.381493E-3
778.993034E-3
782.775307E-3
784.285355E-3
789.609718E-3
791.800690E-3
793.354225E-3
794.793320E-3
793.797684E-3
794.558144E-3
793.318176E-3
792.069054E-3
791.266823E-3
788.747406E-3
789.294434E-3
787.872505E-3
787.144661E-3
787.051964E-3
785.960197E-3
787.038803E-3
786.523819E-3
786.257744E-3
786.563301E-3
785.535049E-3
786.812782E-3
785.608864E-3
784.427834E-3
784.158325E-3
782.439995E-3
783.845329E-3
783.244514E-3
783.066559E-3
783.840179E-3
783.231926E-3
784.945679E-3
784.538841E-3
784.292793E-3
783.947754E-3
783.185005E-3
784.648132E-3
783.534622E-3
782.311249E-3
782.295799E-3
780.713654E-3
781.522179E-3
780.177498E-3
778.836250E-3
778.807068E-3
777.492142E-3
778.561592E-3
777.464104E-3
776.097107E-3
776.507378E-3
775.430489E-3
776.680183E-3
775.904274E-3
775.291443E-3
775.929451E-3
775.295448E-3
776.590347E-3
776.090240E-3
774.882317E-3
775.907707E-3
775.272560E-3
776.529694E-3
776.013565E-3
774.876022E-3
775.837326E-3
775.163841E-3
776.486778E-3
776.001549E-3
775.322342E-3
775.781822E-3
774.916077E-3
776.013565E-3
775.182152E-3
774.304390E-3
774.845123E-3
773.658371E-3
774.754715E-3
774.164772E-3
773.103333E-3
773.494148E-3
772.459030E-3
773.709297E-3
772.881889E-3
772.069359E-3
772.540283E-3
771.739769E-3
772.810364E-3
772.405815E-3
771.924019E-3
772.562027E-3
771.486282E-3
772.552872E-3
772.286797E-3
771.661377E-3
772.234154E-3
771.564102E-3
772.302246E-3
771.572113E-3
770.672607E-3
771.258545E-3
770.170784E-3
771.029091E-3
771.019936E-3
771.746063E-3
774.514389E-3
777.085304E-3
781.617165E-3
784.966278E-3
787.078285E-3
791.017342E-3
792.161179E-3
794.094086E-3
794.131851E-3
793.056679E-3
792.467880E-3
791.124916E-3
791.110611E-3
789.686394E-3
788.017273E-3
788.306808E-3
786.865997E-3
787.171555E-3
787.077141E-3
785.005188E-3
787.002182E-3
786.887741E-3
788.188362E-3
788.327980E-3
786.325264E-3
788.037872E-3
787.187004E-3
787.340355E-3
786.538124E-3
785.030365E-3
785.401726E-3
784.347725E-3
785.096169E-3
785.017776E-3
782.275772E-3
784.897614E-3
784.649849E-3
785.420036E-3
785.442924E-3
784.693909E-3
785.816002E-3
784.617233E-3
784.695625E-3
784.217834E-3
782.719231E-3
783.550072E-3
781.826019E-3
781.444359E-3
780.695915E-3
779.347801E-3
780.563736E-3
778.605652E-3
778.640556E-3
778.415108E-3
775.691986E-3
778.630829E-3
777.830887E-3
778.298378E-3
778.275490E-3
777.862358E-3
779.352951E-3
778.141022E-3
778.482056E-3
778.320122E-3
777.761078E-3
779.091454E-3
777.606010E-3
778.067207E-3
777.943611E-3
777.377129E-3
779.117203E-3
777.727318E-3
778.081512E-3
778.242874E-3
777.564812E-3
778.698349E-3
777.097893E-3
777.357101E-3
777.190018E-3
776.329994E-3
777.594566E-3
776.032448E-3
776.382637E-3
776.279068E-3
775.684547E-3
776.969719E-3
775.492859E-3
775.795555E-3
775.976372E-3
775.204468E-3
776.441002E-3
774.818230E-3
775.201035E-3
775.391006E-3
774.596786E-3
775.792122E-3
774.379921E-3
774.603081E-3
774.867439E-3
774.344444E-3
775.380707E-3
773.964500E-3
773.900414E-3
773.934174E-3
773.225784E-3
774.496651E-3
773.493576E-3
774.671173E-3
777.181435E-3
777.703857E-3
783.761787E-3
786.253166E-3
790.007401E-3
793.034363E-3
794.099808E-3
796.354294E-3
795.404434E-3
795.066261E-3
794.279480E-3
790.211678E-3
792.090225E-3
790.141296E-3
789.787102E-3
789.572525E-3
787.784386E-3
789.072418E-3
787.834740E-3
787.971497E-3
788.731384E-3
788.297081E-3
790.058899E-3
789.137650E-3
789.104462E-3
788.757706E-3
787.576103E-3
788.123703E-3
786.231995E-3
785.926437E-3
786.353302E-3
785.672951E-3
787.602425E-3
787.134933E-3
787.667656E-3
788.584900E-3
788.129425E-3
789.621735E-3
788.245010E-3
788.092804E-3
788.115120E-3
784.747696E-3
786.732674E-3
785.484123E-3
784.954262E-3
784.782028E-3
783.297729E-3
784.201241E-3
782.516670E-3
781.981659E-3
782.027435E-3
780.919647E-3
781.962204E-3
780.935669E-3
780.620956E-3
781.067848E-3
777.996826E-3
780.592346E-3
780.278778E-3
780.516243E-3
781.368828E-3
780.342865E-3
781.680679E-3
781.076431E-3
781.131935E-3
781.511879E-3
780.714226E-3
781.892395E-3
781.196022E-3
781.135941E-3
781.540489E-3
780.329132E-3
781.422615E-3
780.760574E-3
780.515671E-3
780.192947E-3
775.588417E-3
778.722382E-3
778.867722E-3
778.622246E-3
778.711510E-3
777.391434E-3
778.345299E-3
777.749062E-3
777.162552E-3
777.599716E-3
776.459312E-3
777.285576E-3
776.442719E-3
776.056480E-3
776.459312E-3
775.070572E-3
776.001549E-3
775.491714E-3
774.818802E-3
775.048256E-3
773.506737E-3
774.850273E-3
774.231720E-3
773.610306E-3
774.053764E-3
773.484421E-3
775.917435E-3
777.554512E-3
780.360603E-3
784.221268E-3
786.662865E-3
790.892601E-3
792.350006E-3
793.841171E-3
794.974709E-3
793.844604E-3
794.799614E-3
793.058395E-3
791.775513E-3
791.009903E-3
788.836670E-3
789.326477E-3
788.055038E-3
787.045670E-3
787.116623E-3
785.947037E-3
787.331200E-3
786.883736E-3
786.495209E-3
786.775589E-3
785.786819E-3
786.834526E-3
785.782814E-3
784.379768E-3
784.030724E-3
782.866287E-3
784.164047E-3
783.949471E-3
783.729744E-3
784.370613E-3
783.900261E-3
785.441780E-3
785.126495E-3
784.461021E-3
783.796692E-3
783.720016E-3
785.069847E-3
784.351158E-3
782.458305E-3
783.034515E-3
781.621742E-3
782.484627E-3
781.162262E-3
780.120277E-3
780.238724E-3
778.864288E-3
779.700851E-3
778.641129E-3
777.479553E-3
777.906990E-3
776.927948E-3
778.119278E-3
777.466965E-3
776.740265E-3
777.315331E-3
776.782608E-3
778.122139E-3
777.518463E-3
776.945686E-3
777.710152E-3
777.207756E-3
778.288651E-3
777.689552E-3
777.188873E-3
776.934814E-3
776.531410E-3
777.718163E-3
777.488136E-3
776.829529E-3
777.404594E-3
776.260185E-3
777.370834E-3
776.985168E-3
776.110840E-3
776.310539E-3
775.255966E-3
775.822449E-3
775.196457E-3
774.444008E-3
774.898911E-3
773.771095E-3
774.671173E-3
774.138451E-3
773.511887E-3
774.131584E-3
773.285866E-3
774.094391E-3
773.705292E-3
772.809219E-3
773.475838E-3
772.402954E-3
773.273849E-3
773.014641E-3
772.144890E-3
772.933960E-3
771.901131E-3
772.699928E-3
772.445297E-3
771.811295E-3
772.940826E-3
772.571754E-3
774.810791E-3
777.085876E-3
779.322624E-3
783.949471E-3
786.621094E-3
790.532684E-3
792.989731E-3
793.993950E-3
795.747185E-3
795.074272E-3
795.402145E-3
794.579315E-3
792.746544E-3
792.751122E-3
790.944672E-3
790.659714E-3
789.909554E-3
788.594627E-3
789.645195E-3
788.591766E-3
789.121628E-3
789.254951E-3
788.803482E-3
790.694046E-3
789.833450E-3
790.331268E-3
790.209389E-3
788.838959E-3
789.555359E-3
787.680817E-3
787.543488E-3
787.140083E-3
785.848618E-3
787.268257E-3
785.900116E-3
786.378479E-3
786.783600E-3
786.149597E-3
787.779808E-3
786.742401E-3
787.106895E-3
786.789894E-3
785.692978E-3
786.658859E-3
784.745979E-3
784.279060E-3
783.756065E-3
782.519531E-3
783.292007E-3
781.528473E-3
781.220055E-3
780.855560E-3
779.889679E-3
781.189728E-3
779.776955E-3
780.252457E-3
780.406380E-3
779.555511E-3
781.118774E-3
779.395294E-3
779.677963E-3
779.913139E-3
779.175568E-3
780.556297E-3
779.174995E-3
779.613876E-3
779.653358E-3
778.947830E-3
780.368614E-3
779.114914E-3
779.358673E-3
779.536629E-3
778.906059E-3
780.115128E-3
778.475761E-3
778.531837E-3
778.497505E-3
777.668381E-3
778.688622E-3
776.970863E-3
777.101898E-3
777.195740E-3
774.881172E-3
776.764870E-3
775.566673E-3
776.088524E-3
776.168060E-3
773.670959E-3
776.066780E-3
775.104332E-3
775.324059E-3
775.667381E-3
774.963570E-3
776.150894E-3
774.790764E-3
774.895477E-3
774.833679E-3
773.520470E-3
775.076866E-3
773.840332E-3
774.132156E-3
774.077225E-3
770.799065E-3
773.535919E-3
772.612381E-3
773.021507E-3
773.497009E-3
773.846626E-3
776.993752E-3
778.380203E-3
782.076645E-3
786.030006E-3
788.421822E-3
792.553711E-3
793.126488E-3
794.503212E-3
795.139503E-3
794.213104E-3
795.100021E-3
792.840385E-3
792.012405E-3
791.369247E-3
789.564514E-3
790.100670E-3
788.443565E-3
788.255310E-3
788.541412E-3
787.790108E-3
789.470100E-3
788.915634E-3
789.218330E-3
789.773941E-3
788.880157E-3
790.026283E-3
787.893105E-3
787.093163E-3
786.618805E-3
785.350800E-3
786.528397E-3
785.570526E-3
785.830879E-3
786.614799E-3
786.108971E-3
787.673950E-3
787.096024E-3
787.227058E-3
787.439919E-3
786.311531E-3
787.081718E-3
785.805702E-3
784.951401E-3
784.788322E-3
783.260536E-3
783.980370E-3
782.618523E-3
781.935310E-3
782.058334E-3
780.751419E-3
781.514168E-3
780.529404E-3
780.087662E-3
780.094528E-3
776.113129E-3
778.914070E-3
778.888321E-3
779.050827E-3
779.826164E-3
778.938675E-3
779.930305E-3
779.446220E-3
779.572105E-3
780.115128E-3
779.067993E-3
780.007553E-3
779.437065E-3
779.235649E-3
779.624176E-3
778.804207E-3
779.733467E-3
778.862000E-3
778.251457E-3
778.678894E-3
777.599144E-3
778.515816E-3
777.788544E-3
777.185440E-3
777.140236E-3
774.744415E-3
776.441002E-3
775.742912E-3
775.455666E-3
775.389862E-3
774.583626E-3
775.686264E-3
775.026512E-3
774.467468E-3
774.846268E-3
773.530197E-3
774.258041E-3
773.457527E-3
773.085594E-3
773.157120E-3
772.138023E-3
772.976875E-3
772.243881E-3
772.087669E-3
772.411537E-3
771.710587E-3
773.484993E-3
774.086952E-3
775.698853E-3
779.062271E-3
781.281853E-3
786.019135E-3
788.251877E-3
790.473175E-3
792.498207E-3
792.597771E-3
794.134712E-3
793.002892E-3
791.798401E-3
790.785599E-3
788.986588E-3
789.312744E-3
787.930298E-3
786.539841E-3
786.266327E-3
784.792900E-3
785.915565E-3
785.269547E-3
784.936523E-3
785.508156E-3
784.865570E-3
786.184502E-3
785.079002E-3
784.010696E-3
783.738899E-3
781.823158E-3
782.860565E-3
781.932449E-3
781.441498E-3
782.241440E-3
781.824875E-3
783.670807E-3
783.487701E-3
783.263397E-3
784.136009E-3
783.628464E-3
784.952545E-3
784.101105E-3
783.361816E-3
783.638763E-3
782.194519E-3
