Notes :


2023-11-10 ¿ÀÈÄ 11:00:26
Volts
Ch : LED 2,
76.583290E-3
76.764679E-3
76.859665E-3
76.949501E-3
76.910019E-3
76.899719E-3
76.920319E-3
76.807594E-3
76.903152E-3
76.711464E-3
76.600456E-3
76.506042E-3
76.310921E-3
76.320648E-3
76.214790E-3
76.055717E-3
75.990486E-3
75.802803E-3
75.857162E-3
75.802803E-3
75.728989E-3
75.823402E-3
75.671768E-3
75.716400E-3
75.471497E-3
75.601959E-3
75.656891E-3
75.560760E-3
75.589943E-3
75.514412E-3
75.525284E-3
75.541878E-3
75.452614E-3
75.373077E-3
75.380516E-3
75.414276E-3
75.500679E-3
75.365067E-3
75.383377E-3
75.403404E-3
75.310135E-3
75.335312E-3
75.138474E-3
75.259781E-3
75.203705E-3
75.104141E-3
75.139046E-3
74.989128E-3
75.022888E-3
75.021744E-3
74.943352E-3
74.951935E-3
74.828339E-3
74.870110E-3
74.810600E-3
74.760246E-3
74.796867E-3
74.649811E-3
74.628639E-3
74.544525E-3
74.532509E-3
74.608040E-3
74.382591E-3
74.487877E-3
74.343109E-3
74.351120E-3
74.352264E-3
74.442101E-3
74.840927E-3
75.329018E-3
75.896645E-3
76.594162E-3
77.109718E-3
77.801514E-3
78.275871E-3
78.471565E-3
78.702164E-3
78.575134E-3
78.529358E-3
78.317642E-3
78.102493E-3
77.895355E-3
77.468491E-3
77.309418E-3
77.093697E-3
76.861382E-3
76.940346E-3
76.754379E-3
76.891136E-3
76.843643E-3
76.829338E-3
76.935768E-3
76.796150E-3
76.686287E-3
76.463127E-3
76.362419E-3
76.352692E-3
76.151848E-3
76.219368E-3
76.203346E-3
76.266289E-3
76.424217E-3
76.369858E-3
76.649666E-3
76.683998E-3
76.693726E-3
76.689720E-3
76.495743E-3
76.496887E-3
76.312637E-3
76.243973E-3
76.177025E-3
75.701523E-3
75.919533E-3
75.824547E-3
75.668335E-3
75.604820E-3
75.396538E-3
75.428581E-3
75.342751E-3
75.256348E-3
75.377655E-3
75.181389E-3
75.198555E-3
75.160789E-3
75.172806E-3
75.219727E-3
75.055504E-3
75.070381E-3
75.139618E-3
75.078964E-3
75.068092E-3
74.942207E-3
74.998856E-3
74.984550E-3
74.939919E-3
74.950790E-3
74.861526E-3
74.986839E-3
74.896431E-3
74.764824E-3
74.800873E-3
74.737358E-3
74.798584E-3
74.661255E-3
74.584579E-3
74.618912E-3
74.506760E-3
74.522781E-3
74.459839E-3
74.406052E-3
74.454689E-3
74.303055E-3
74.360847E-3
74.280739E-3
74.213791E-3
74.276733E-3
74.081039E-3
74.212074E-3
74.027824E-3
74.117088E-3
74.104500E-3
73.922539E-3
73.912239E-3
73.923683E-3
73.786926E-3
73.849297E-3
73.832130E-3
74.051285E-3
74.489594E-3
74.977684E-3
75.686646E-3
76.332092E-3
77.118301E-3
77.593803E-3
77.952576E-3
78.252411E-3
78.255272E-3
78.267288E-3
78.096199E-3
77.825546E-3
77.600670E-3
77.435875E-3
77.165222E-3
76.912880E-3
76.807022E-3
76.703453E-3
76.505470E-3
76.673698E-3
76.670265E-3
76.621628E-3
76.637077E-3
76.675987E-3
76.781273E-3
76.637650E-3
76.388168E-3
76.301765E-3
76.100349E-3
76.072311E-3
76.057434E-3
76.190758E-3
76.152992E-3
76.126671E-3
76.236534E-3
76.295471E-3
76.283455E-3
76.355553E-3
76.331520E-3
76.221657E-3
76.265717E-3
76.134682E-3
76.023102E-3
75.851440E-3
75.795364E-3
75.698090E-3
75.559044E-3
75.464058E-3
75.280380E-3
75.153923E-3
75.116730E-3
75.086975E-3
75.059509E-3
74.967957E-3
75.024605E-3
74.974251E-3
74.998283E-3
74.944496E-3
74.939919E-3
74.965096E-3
74.949646E-3
74.888992E-3
74.954224E-3
74.842072E-3
74.858093E-3
74.898720E-3
74.781418E-3
74.855804E-3
74.716759E-3
74.811745E-3
74.829483E-3
74.631500E-3
74.741936E-3
74.614334E-3
74.565697E-3
74.579430E-3
74.490738E-3
74.590874E-3
74.430656E-3
74.455833E-3
74.420357E-3
74.351692E-3
74.400330E-3
74.192047E-3
74.325943E-3
74.280739E-3
74.204063E-3
74.223518E-3
74.089622E-3
74.135971E-3
74.089622E-3
73.982620E-3
73.884201E-3
73.806953E-3
73.849297E-3
73.797798E-3
73.694229E-3
73.809814E-3
73.701096E-3
73.754883E-3
73.870468E-3
74.147987E-3
74.478149E-3
74.874115E-3
75.683212E-3
76.284027E-3
76.856232E-3
77.514267E-3
77.756310E-3
78.057289E-3
78.112221E-3
77.944565E-3
77.818108E-3
77.485085E-3
77.296829E-3
77.007866E-3
76.757240E-3
76.614761E-3
76.360703E-3
76.419640E-3
76.407051E-3
76.320076E-3
76.459122E-3
76.348686E-3
76.421356E-3
76.410484E-3
76.392174E-3
76.289749E-3
76.016235E-3
75.968742E-3
75.852013E-3
75.743866E-3
75.972748E-3
75.873184E-3
76.037407E-3
76.115227E-3
76.127243E-3
76.237679E-3
76.254845E-3
76.330948E-3
76.193619E-3
76.091194E-3
76.145554E-3
75.952721E-3
75.966454E-3
75.786209E-3
75.629425E-3
75.577354E-3
75.354767E-3
75.292397E-3
75.226021E-3
75.217438E-3
75.258636E-3
75.107002E-3
75.102997E-3
74.935341E-3
74.910736E-3
74.981689E-3
74.848938E-3
74.986839E-3
74.895287E-3
74.750519E-3
74.903870E-3
74.799728E-3
74.827766E-3
74.804306E-3
74.716187E-3
74.862099E-3
74.677277E-3
74.721336E-3
74.719620E-3
74.577141E-3
74.642944E-3
74.526215E-3
74.594879E-3
74.506760E-3
74.384308E-3
74.486160E-3
74.371719E-3
74.342537E-3
74.439240E-3
74.279022E-3
74.263000E-3
74.135399E-3
74.191475E-3
74.142838E-3
74.042130E-3
74.091339E-3
74.046707E-3
74.099922E-3
73.901367E-3
73.785782E-3
73.765182E-3
73.665619E-3
73.689651E-3
73.602104E-3
73.439598E-3
73.534584E-3
73.637009E-3
73.792648E-3
73.976898E-3
74.439240E-3
75.128746E-3
75.724411E-3
76.375580E-3
77.015305E-3
77.317429E-3
77.719688E-3
77.756882E-3
77.723694E-3
77.599525E-3
77.360344E-3
77.158928E-3
76.815033E-3
76.539803E-3
76.367569E-3
76.115799E-3
76.127815E-3
75.925827E-3
75.958443E-3
76.019669E-3
75.905800E-3
76.019096E-3
76.092911E-3
76.024818E-3
75.909805E-3
75.658035E-3
75.611687E-3
75.474358E-3
75.434875E-3
75.411415E-3
75.410843E-3
75.555038E-3
75.559044E-3
75.688362E-3
75.683212E-3
75.629425E-3
75.802803E-3
75.750160E-3
75.709534E-3
75.763893E-3
75.518990E-3
75.528717E-3
75.261497E-3
75.138474E-3
75.030327E-3
74.872971E-3
74.818039E-3
74.626350E-3
74.563408E-3
74.527931E-3
74.399185E-3
74.518204E-3
74.315643E-3
74.342537E-3
74.228096E-3
74.220657E-3
74.266434E-3
74.154854E-3
74.231529E-3
74.223518E-3
74.064445E-3
74.195480E-3
74.065590E-3
74.073601E-3
74.070740E-3
73.911095E-3
74.071884E-3
73.918533E-3
73.899078E-3
73.951149E-3
73.895073E-3
73.917961E-3
73.822975E-3
73.795509E-3
73.863602E-3
73.758888E-3
73.806953E-3
73.674774E-3
73.677635E-3
73.611259E-3
73.538589E-3
73.582649E-3
73.477936E-3
73.471642E-3
73.550606E-3
73.291397E-3
73.447609E-3
73.279381E-3
73.314285E-3
73.225021E-3
73.081398E-3
73.170662E-3
73.041916E-3
72.990990E-3
72.965813E-3
72.781563E-3
72.920036E-3
72.861099E-3
73.132896E-3
73.513412E-3
74.028969E-3
74.828339E-3
75.397110E-3
76.062584E-3
76.648521E-3
76.975250E-3
77.325439E-3
77.277374E-3
77.293396E-3
77.129173E-3
76.967239E-3
76.750374E-3
76.417351E-3
76.248550E-3
76.106071E-3
75.802231E-3
75.777626E-3
75.582504E-3
75.648880E-3
75.725555E-3
75.694656E-3
75.762749E-3
75.793076E-3
75.777626E-3
75.684357E-3
75.515556E-3
75.677490E-3
75.276947E-3
75.152779E-3
75.140190E-3
75.160789E-3
75.209999E-3
75.226593E-3
75.382233E-3
75.428581E-3
75.317001E-3
75.475502E-3
75.369644E-3
75.337029E-3
75.364494E-3
75.208855E-3
75.191689E-3
75.018883E-3
74.886131E-3
74.764252E-3
74.703598E-3
74.690437E-3
74.566841E-3
74.565125E-3
74.513626E-3
74.418640E-3
74.548531E-3
74.309921E-3
74.217224E-3
74.213219E-3
74.133682E-3
74.202919E-3
74.185181E-3
74.144554E-3
74.189186E-3
74.132538E-3
74.135399E-3
74.101067E-3
74.116516E-3
74.081612E-3
74.000359E-3
74.031258E-3
73.921967E-3
73.960876E-3
74.001503E-3
73.916245E-3
73.778343E-3
73.771477E-3
73.794365E-3
73.798370E-3
73.754883E-3
73.786354E-3
73.651314E-3
73.714828E-3
73.705673E-3
73.555756E-3
73.590660E-3
73.476219E-3
73.469353E-3
73.449326E-3
73.458481E-3
73.543739E-3
73.500824E-3
73.368645E-3
73.349190E-3
73.209000E-3
73.234749E-3
73.175812E-3
73.146057E-3
73.182678E-3
72.973251E-3
73.127174E-3
72.981262E-3
73.064804E-3
73.220444E-3
73.388672E-3
73.812103E-3
74.305344E-3
74.917603E-3
75.636864E-3
76.255989E-3
76.757240E-3
76.993561E-3
77.168655E-3
77.264786E-3
77.150345E-3
77.063370E-3
76.673698E-3
76.416779E-3
76.313210E-3
75.980759E-3
75.831985E-3
75.622559E-3
75.495529E-3
75.567055E-3
75.457191E-3
75.583076E-3
75.552750E-3
75.448036E-3
75.552750E-3
75.524139E-3
75.456619E-3
75.259781E-3
75.191689E-3
75.172806E-3
75.109863E-3
75.127602E-3
75.255775E-3
75.260925E-3
75.383377E-3
75.403976E-3
75.532150E-3
75.505829E-3
75.472641E-3
75.421715E-3
75.298119E-3
75.345039E-3
75.159645E-3
75.059509E-3
74.982834E-3
74.851227E-3
74.793434E-3
74.618912E-3
74.499321E-3
74.441528E-3
74.255562E-3
74.341965E-3
74.281311E-3
74.332809E-3
74.253273E-3
74.123955E-3
74.168587E-3
74.102783E-3
74.111366E-3
74.076462E-3
73.986626E-3
74.078178E-3
73.916245E-3
73.917961E-3
73.908806E-3
73.856735E-3
74.003220E-3
73.859024E-3
73.814392E-3
73.809814E-3
73.761177E-3
73.773766E-3
73.665619E-3
73.662186E-3
73.643875E-3
73.436165E-3
73.544884E-3
73.510551E-3
73.530579E-3
73.502541E-3
73.343468E-3
73.381233E-3
73.314857E-3
73.199844E-3
73.245049E-3
73.112869E-3
73.165512E-3
73.108292E-3
73.072815E-3
73.009872E-3
72.859383E-3
72.892570E-3
72.712898E-3
72.566986E-3
72.695160E-3
72.652817E-3
72.838211E-3
72.930908E-3
73.233604E-3
73.669052E-3
74.300766E-3
75.016594E-3
75.583649E-3
76.206207E-3
76.725769E-3
77.022743E-3
77.130318E-3
77.068520E-3
76.915169E-3
76.732063E-3
76.431084E-3
76.224518E-3
75.890350E-3
75.657463E-3
75.533867E-3
75.325012E-3
75.355339E-3
75.271797E-3
75.349045E-3
75.406837E-3
75.256348E-3
75.456619E-3
75.364494E-3
75.252342E-3
75.219154E-3
75.024605E-3
74.935913E-3
74.815750E-3
74.838638E-3
74.919891E-3
74.843216E-3
74.963951E-3
74.989700E-3
74.964523E-3
75.143051E-3
75.110435E-3
75.214577E-3
75.031471E-3
74.963951E-3
74.877548E-3
74.626350E-3
74.602890E-3
74.510193E-3
74.366570E-3
74.339676E-3
74.053001E-3
74.155426E-3
73.948860E-3
73.996353E-3
74.013519E-3
73.794365E-3
73.813248E-3
73.752022E-3
73.748589E-3
73.812675E-3
73.627281E-3
73.670197E-3
73.627281E-3
73.599243E-3
73.668480E-3
73.551178E-3
73.562622E-3
73.518562E-3
73.543167E-3
73.546028E-3
73.342896E-3
73.370361E-3
73.313713E-3
73.263359E-3
73.328018E-3
73.210144E-3
73.210716E-3
73.159790E-3
73.082542E-3
73.023605E-3
72.993279E-3
73.082542E-3
72.973824E-3
72.926331E-3
72.933197E-3
72.805023E-3
72.839928E-3
72.808456E-3
72.912025E-3
72.868538E-3
72.695732E-3
72.775841E-3
72.671700E-3
72.611618E-3
72.620201E-3
72.578430E-3
72.524643E-3
72.383308E-3
72.306633E-3
72.318649E-3
72.248268E-3
72.302628E-3
72.362709E-3
72.781563E-3
73.483086E-3
73.859024E-3
74.602890E-3
75.274658E-3
75.817108E-3
76.362419E-3
76.495743E-3
76.740074E-3
76.718330E-3
76.564407E-3
76.443100E-3
76.043129E-3
75.895500E-3
75.732994E-3
75.471497E-3
75.388527E-3
75.184822E-3
75.206566E-3
75.160217E-3
75.222588E-3
75.260925E-3
75.240898E-3
75.330162E-3
75.326729E-3
75.278091E-3
75.306129E-3
74.942207E-3
74.894714E-3
74.711037E-3
74.646950E-3
74.709892E-3
74.645805E-3
74.767685E-3
74.874115E-3
74.891281E-3
75.032616E-3
74.863243E-3
75.036049E-3
74.935341E-3
74.871826E-3
74.903297E-3
74.634361E-3
74.632645E-3
74.383163E-3
74.349403E-3
74.349403E-3
74.181175E-3
74.117088E-3
73.990631E-3
74.004936E-3
73.941994E-3
73.842430E-3
73.812675E-3
73.757172E-3
73.772621E-3
73.751450E-3
73.645020E-3
73.775482E-3
73.658180E-3
73.676491E-3
73.727989E-3
73.447037E-3
73.681068E-3
73.595238E-3
73.586655E-3
73.511124E-3
73.432732E-3
73.453903E-3
73.355484E-3
73.338890E-3
73.534012E-3
73.339462E-3
73.267937E-3
73.295975E-3
73.168945E-3
73.160934E-3
73.004723E-3
73.174095E-3
73.014450E-3
72.994995E-3
73.001862E-3
72.941780E-3
72.963524E-3
72.867966E-3
72.895432E-3
72.883415E-3
72.748947E-3
72.856522E-3
72.846222E-3
72.702026E-3
72.696877E-3
72.543526E-3
72.639084E-3
72.554970E-3
72.422218E-3
72.541809E-3
72.441673E-3
72.484589E-3
72.518349E-3
72.621346E-3
73.057938E-3
73.465347E-3
74.218369E-3
74.837494E-3
75.315285E-3
75.932693E-3
76.284599E-3
76.634216E-3
76.727486E-3
76.677132E-3
76.544380E-3
76.203918E-3
76.112366E-3
75.678062E-3
75.484085E-3
75.453186E-3
75.167084E-3
75.123024E-3
75.047493E-3
75.085258E-3
75.119591E-3
75.064087E-3
75.132179E-3
75.093269E-3
75.027466E-3
74.919891E-3
74.699020E-3
74.711037E-3
74.589729E-3
74.538231E-3
74.578857E-3
74.616623E-3
74.704742E-3
74.812889E-3
74.876404E-3
75.015450E-3
74.986267E-3
75.019455E-3
74.930191E-3
74.812317E-3
74.884415E-3
74.595451E-3
74.555969E-3
74.523354E-3
74.362564E-3
74.268723E-3
74.076462E-3
74.058151E-3
73.979759E-3
73.852730E-3
73.845863E-3
73.715401E-3
73.787498E-3
73.710251E-3
73.638153E-3
73.665047E-3
73.491669E-3
73.681641E-3
73.605537E-3
73.559761E-3
73.590088E-3
73.441887E-3
73.556328E-3
73.530579E-3
73.397827E-3
73.512840E-3
73.377800E-3
73.346901E-3
73.323441E-3
73.258209E-3
73.212433E-3
73.107147E-3
73.228455E-3
73.172951E-3
73.202133E-3
73.196411E-3
73.035049E-3
73.019028E-3
72.981834E-3
72.921753E-3
72.930908E-3
72.872543E-3
72.825050E-3
72.730064E-3
72.718620E-3
72.809029E-3
72.672844E-3
72.681999E-3
72.589302E-3
72.524071E-3
72.512054E-3
72.399330E-3
72.443390E-3
72.393036E-3
72.248268E-3
72.370148E-3
72.346115E-3
72.668266E-3
72.949219E-3
73.439026E-3
74.166870E-3
74.810600E-3
75.547600E-3
76.043701E-3
76.362419E-3
76.585579E-3
76.615334E-3
76.602745E-3
76.423073E-3
76.183319E-3
76.063728E-3
75.687790E-3
75.501823E-3
75.300407E-3
75.134468E-3
75.054932E-3
74.965096E-3
75.025749E-3
75.007439E-3
74.977684E-3
75.167084E-3
75.070953E-3
75.070381E-3
75.003433E-3
74.700165E-3
74.617195E-3
74.402618E-3
74.433517E-3
74.390030E-3
74.395752E-3
74.579430E-3
74.535370E-3
74.751663E-3
74.832916E-3
74.771118E-3
74.961662E-3
74.842644E-3
74.739647E-3
74.684715E-3
74.525070E-3
74.542809E-3
74.304771E-3
74.237823E-3
74.154854E-3
74.095345E-3
73.995209E-3
73.669052E-3
73.765755E-3
73.661613E-3
73.538017E-3
73.595238E-3
73.553467E-3
73.563194E-3
73.486519E-3
73.437309E-3
