Notes :


2023-10-25 ¿ÀÈÄ 11:38:20
Volts
Ch : LED 2,
383.180237E-3
382.828331E-3
383.698654E-3
382.684708E-3
383.759880E-3
383.547592E-3
383.232880E-3
384.219933E-3
383.635139E-3
384.405899E-3
384.577560E-3
384.028244E-3
384.883118E-3
384.273720E-3
385.243034E-3
385.336304E-3
384.496307E-3
385.182381E-3
384.202766E-3
385.415840E-3
385.395241E-3
384.389305E-3
385.277367E-3
384.788704E-3
385.154343E-3
385.201263E-3
383.193970E-3
384.999275E-3
384.744072E-3
385.316849E-3
385.370636E-3
384.910011E-3
385.575485E-3
384.988976E-3
385.869598E-3
386.219788E-3
385.685349E-3
386.442375E-3
385.996056E-3
386.519623E-3
386.027527E-3
384.746933E-3
384.883690E-3
383.312416E-3
382.939911E-3
381.788063E-3
379.508400E-3
380.914307E-3
379.852295E-3
380.436516E-3
380.244255E-3
379.377365E-3
380.712318E-3
380.288887E-3
381.207275E-3
381.361771E-3
381.141472E-3
382.451248E-3
381.447029E-3
382.384300E-3
382.445526E-3
381.850433E-3
383.298683E-3
382.617760E-3
383.595085E-3
383.319855E-3
383.110428E-3
384.261131E-3
383.244324E-3
383.894348E-3
383.613396E-3
383.090401E-3
384.067726E-3
382.814026E-3
383.092117E-3
383.716393E-3
382.812309E-3
383.999634E-3
382.906723E-3
383.264351E-3
383.683777E-3
382.966232E-3
384.923172E-3
383.630562E-3
384.256554E-3
384.492874E-3
383.921242E-3
385.517693E-3
384.339523E-3
384.832191E-3
385.231018E-3
383.493805E-3
385.740280E-3
384.978104E-3
385.427856E-3
385.752296E-3
385.264778E-3
386.490440E-3
385.525131E-3
385.467339E-3
385.894203E-3
385.415268E-3
386.952782E-3
385.933113E-3
386.203194E-3
386.492729E-3
385.813522E-3
386.885834E-3
385.618973E-3
385.898781E-3
386.002350E-3
385.938835E-3
387.038612E-3
386.022949E-3
386.266708E-3
386.858368E-3
386.316490E-3
387.456322E-3
386.515045E-3
386.889267E-3
387.641716E-3
386.900711E-3
388.180733E-3
386.412621E-3
386.065865E-3
386.085320E-3
384.267998E-3
384.404182E-3
382.217216E-3
381.428719E-3
381.101418E-3
379.775047E-3
380.261993E-3
378.845215E-3
379.071808E-3
379.787636E-3
379.504395E-3
380.625916E-3
379.815102E-3
379.944992E-3
380.668259E-3
380.144119E-3
381.522560E-3
380.937195E-3
380.947495E-3
381.321716E-3
380.934906E-3
382.187462E-3
381.389236E-3
381.493378E-3
382.120514E-3
381.983185E-3
383.100700E-3
382.142830E-3
382.382011E-3
382.849503E-3
382.108498E-3
383.217430E-3
382.060432E-3
381.931114E-3
382.245255E-3
381.156921E-3
383.127594E-3
382.363129E-3
382.653236E-3
383.050919E-3
382.166862E-3
383.630562E-3
383.189392E-3
383.144760E-3
383.569908E-3
383.094978E-3
384.329796E-3
384.005356E-3
383.940125E-3
384.558105E-3
383.861732E-3
384.883690E-3
384.217644E-3
384.379005E-3
385.340881E-3
384.428215E-3
385.394669E-3
384.685707E-3
384.413910E-3
385.132027E-3
384.858513E-3
385.827255E-3
385.203552E-3
385.074806E-3
385.379219E-3
384.454536E-3
385.950851E-3
384.923172E-3
385.188675E-3
385.678482E-3
384.731483E-3
385.741425E-3
385.297966E-3
385.270500E-3
386.060143E-3
385.288239E-3
386.337090E-3
385.768890E-3
385.911369E-3
386.808586E-3
385.836983E-3
386.953926E-3
386.322784E-3
386.132240E-3
386.042404E-3
384.051704E-3
384.220505E-3
382.681847E-3
381.560898E-3
381.297684E-3
379.537010E-3
379.911804E-3
378.848648E-3
378.130531E-3
378.606033E-3
377.960014E-3
378.990555E-3
378.799438E-3
378.597450E-3
379.678917E-3
378.987122E-3
380.347824E-3
380.227089E-3
380.153847E-3
380.620193E-3
379.756165E-3
380.881119E-3
380.353546E-3
380.562401E-3
381.457901E-3
380.763817E-3
381.970596E-3
381.482506E-3
381.213570E-3
381.809807E-3
380.957222E-3
381.662178E-3
381.056213E-3
380.717468E-3
381.227303E-3
380.044556E-3
381.492233E-3
381.209564E-3
381.234741E-3
381.080246E-3
380.644226E-3
382.023811E-3
381.639862E-3
381.529427E-3
382.081032E-3
381.405258E-3
382.754517E-3
382.489586E-3
382.044983E-3
382.765388E-3
382.121658E-3
383.625412E-3
383.355904E-3
382.910156E-3
383.405113E-3
382.585144E-3
384.172440E-3
383.818245E-3
383.060646E-3
383.668900E-3
383.238029E-3
384.463120E-3
383.721542E-3
383.263206E-3
384.053421E-3
383.297539E-3
384.273148E-3
383.973885E-3
383.121872E-3
383.986473E-3
383.349609E-3
384.300613E-3
383.897781E-3
383.547592E-3
384.329796E-3
383.947563E-3
384.847641E-3
384.810448E-3
384.109497E-3
384.889412E-3
384.219360E-3
385.219002E-3
385.224724E-3
384.623909E-3
385.054779E-3
383.957291E-3
384.560394E-3
383.018875E-3
381.632423E-3
381.209564E-3
379.358482E-3
379.551888E-3
378.439522E-3
377.701378E-3
377.845001E-3
377.064514E-3
378.203773E-3
378.230095E-3
378.055000E-3
378.908730E-3
378.840065E-3
380.041695E-3
379.993057E-3
379.657173E-3
380.589294E-3
379.890633E-3
380.751801E-3
381.295967E-3
380.857658E-3
381.761742E-3
381.172943E-3
382.103920E-3
381.978035E-3
381.443024E-3
382.147408E-3
381.217575E-3
382.346535E-3
381.737137E-3
381.334305E-3
381.682205E-3
380.801010E-3
381.752014E-3
381.709099E-3
381.248474E-3
381.709099E-3
380.929184E-3
382.141685E-3
382.133675E-3
381.495094E-3
382.620049E-3
381.949997E-3
382.880402E-3
382.983971E-3
382.313347E-3
383.219147E-3
382.712746E-3
383.876610E-3
383.961868E-3
383.545303E-3
384.321213E-3
383.196259E-3
384.471703E-3
384.605026E-3
383.743858E-3
384.399605E-3
383.986473E-3
384.469414E-3
384.362984E-3
383.774185E-3
384.185028E-3
383.507538E-3
384.508324E-3
384.588432E-3
383.652306E-3
384.361839E-3
383.760452E-3
384.754944E-3
384.577560E-3
384.210205E-3
385.000420E-3
384.385300E-3
385.364914E-3
385.453033E-3
383.730698E-3
385.605240E-3
385.128593E-3
385.723114E-3
385.707092E-3
384.977531E-3
385.946846E-3
384.578705E-3
384.443092E-3
383.056068E-3
381.110001E-3
381.553459E-3
379.614258E-3
378.901291E-3
378.727913E-3
377.691650E-3
378.611755E-3
377.874756E-3
377.977180E-3
378.193474E-3
377.827835E-3
379.492950E-3
378.853798E-3
379.417419E-3
379.480362E-3
378.907585E-3
380.418205E-3
379.767036E-3
379.688072E-3
380.110359E-3
379.642296E-3
381.207848E-3
380.664825E-3
380.992126E-3
381.402969E-3
380.806732E-3
381.864738E-3
380.893707E-3
381.382370E-3
381.378937E-3
379.845428E-3
381.736565E-3
380.836487E-3
381.334305E-3
381.227303E-3
380.263710E-3
381.899071E-3
380.934906E-3
381.499672E-3
381.953430E-3
381.679916E-3
382.989120E-3
381.884766E-3
382.508469E-3
382.833481E-3
382.465553E-3
383.711815E-3
382.799721E-3
383.348465E-3
383.766174E-3
383.014870E-3
384.480286E-3
383.316422E-3
383.327293E-3
383.600235E-3
382.463264E-3
384.278870E-3
383.710670E-3
384.132385E-3
384.351540E-3
383.866882E-3
385.291672E-3
384.094048E-3
384.278870E-3
384.970665E-3
384.221077E-3
385.280800E-3
384.243393E-3
384.659386E-3
385.178947E-3
384.540367E-3
385.716248E-3
384.724617E-3
384.823608E-3
385.474205E-3
384.780693E-3
386.066437E-3
385.073662E-3
385.458183E-3
385.999489E-3
385.153770E-3
386.432648E-3
385.009575E-3
385.464478E-3
385.184097E-3
383.973885E-3
384.357262E-3
382.131386E-3
381.055641E-3
380.554962E-3
379.175949E-3
379.364777E-3
377.586365E-3
377.469635E-3
377.989197E-3
377.327728E-3
378.604317E-3
377.600098E-3
378.166580E-3
378.573418E-3
378.382301E-3
379.813385E-3
379.067802E-3
379.272079E-3
379.631424E-3
379.244041E-3
380.780983E-3
379.869461E-3
380.089760E-3
380.640221E-3
379.957008E-3
381.277084E-3
380.328369E-3
380.676842E-3
381.092834E-3
380.401611E-3
381.306267E-3
380.732918E-3
380.541801E-3
380.608749E-3
379.616547E-3
381.267357E-3
380.162430E-3
380.157852E-3
380.983543E-3
380.088043E-3
381.100845E-3
380.905151E-3
380.988693E-3
381.554031E-3
380.969810E-3
382.295609E-3
381.768608E-3
381.800079E-3
382.277298E-3
381.893349E-3
382.978249E-3
382.346535E-3
382.501030E-3
382.764816E-3
381.392097E-3
383.109283E-3
382.833481E-3
382.684135E-3
382.983398E-3
382.246399E-3
383.770180E-3
382.728767E-3
382.870674E-3
383.354759E-3
382.696724E-3
383.771896E-3
382.949638E-3
382.918167E-3
383.378220E-3
382.584572E-3
383.534431E-3
383.159065E-3
383.235168E-3
383.501816E-3
381.404686E-3
383.314133E-3
383.387947E-3
383.590508E-3
384.222794E-3
382.979965E-3
384.367561E-3
384.126663E-3
383.757591E-3
384.049416E-3
382.514191E-3
382.435799E-3
380.989265E-3
379.829407E-3
379.360771E-3
377.122879E-3
378.222084E-3
377.113152E-3
376.898003E-3
377.139473E-3
376.528931E-3
377.519989E-3
377.198982E-3
377.470779E-3
378.493309E-3
378.188896E-3
379.527283E-3
379.557037E-3
379.296112E-3
379.996490E-3
379.229736E-3
380.207062E-3
380.068016E-3
380.306053E-3
380.761528E-3
379.913521E-3
381.227875E-3
380.706596E-3
380.624199E-3
381.101418E-3
379.801941E-3
380.487442E-3
380.310059E-3
379.606247E-3
380.110931E-3
379.158211E-3
380.123520E-3
379.835701E-3
379.490662E-3
380.165863E-3
379.920959E-3
381.485939E-3
380.532646E-3
380.419922E-3
381.271935E-3
380.846786E-3
381.915092E-3
381.651878E-3
381.492233E-3
382.231522E-3
381.381226E-3
382.802582E-3
382.685852E-3
382.368279E-3
382.548523E-3
381.882477E-3
383.266640E-3
382.797432E-3
382.511330E-3
383.373642E-3
382.543373E-3
383.443451E-3
383.124161E-3
382.654953E-3
383.471489E-3
382.900429E-3
383.727264E-3
383.290672E-3
383.213425E-3
383.521843E-3
382.616043E-3
383.765030E-3
383.252335E-3
383.029747E-3
383.911514E-3
383.366776E-3
384.594727E-3
384.164429E-3
383.414268E-3
384.005356E-3
383.417130E-3
383.985329E-3
383.581352E-3
381.461906E-3
381.245613E-3
379.399109E-3
379.603386E-3
378.279877E-3
377.139473E-3
377.177238E-3
376.110077E-3
376.872826E-3
376.779556E-3
376.166153E-3
377.098846E-3
376.510048E-3
377.666473E-3
377.724838E-3
377.647018E-3
378.426933E-3
377.756310E-3
379.194832E-3
378.913307E-3
378.517914E-3
379.258347E-3
378.602028E-3
379.589653E-3
379.598808E-3
378.853798E-3
379.995346E-3
379.494667E-3
379.950142E-3
380.138969E-3
379.290390E-3
379.868889E-3
379.376221E-3
379.693794E-3
379.789925E-3
378.714752E-3
379.950142E-3
379.178810E-3
380.124092E-3
380.367279E-3
379.464912E-3
380.378723E-3
379.554176E-3
380.454826E-3
380.497169E-3
380.422783E-3
380.934906E-3
380.586433E-3
381.691360E-3
381.386375E-3
380.066872E-3
381.699944E-3
381.798935E-3
382.665253E-3
382.938194E-3
382.032967E-3
382.898140E-3
382.250977E-3
382.776260E-3
382.809448E-3
381.242752E-3
382.931900E-3
382.142830E-3
382.544518E-3
382.927322E-3
381.991768E-3
383.084679E-3
382.333946E-3
382.704735E-3
382.785416E-3
381.994057E-3
383.296967E-3
382.490730E-3
383.267784E-3
383.106995E-3
382.635498E-3
383.986473E-3
382.950211E-3
383.670044E-3
383.788490E-3
382.957649E-3
383.881760E-3
382.702446E-3
382.501602E-3
381.610107E-3
379.858017E-3
379.890060E-3
377.467346E-3
377.091408E-3
376.799583E-3
375.365639E-3
376.689148E-3
375.620842E-3
375.885201E-3
376.095772E-3
375.453758E-3
377.034187E-3
376.078606E-3
376.941490E-3
377.276802E-3
376.471138E-3
378.059578E-3
377.066803E-3
377.361488E-3
378.289032E-3
376.555252E-3
378.551102E-3
377.775764E-3
378.281593E-3
378.711319E-3
378.196335E-3
379.882050E-3
378.349113E-3
378.562546E-3
378.762817E-3
378.006363E-3
379.127312E-3
377.779770E-3
378.050423E-3
378.574562E-3
377.754593E-3
379.007721E-3
377.658463E-3
378.318214E-3
378.883553E-3
378.182602E-3
379.689789E-3
378.642654E-3
378.987122E-3
379.079247E-3
377.739716E-3
379.920959E-3
379.224014E-3
379.940414E-3
380.105209E-3
379.557610E-3
380.609894E-3
379.741859E-3
379.795647E-3
380.410767E-3
378.628922E-3
380.358696E-3
379.627991E-3
380.257416E-3
380.719185E-3
380.097198E-3
381.056213E-3
379.842567E-3
380.225372E-3
380.712891E-3
379.949570E-3
381.098557E-3
380.152702E-3
380.258560E-3
380.600166E-3
380.102348E-3
381.388092E-3
380.175591E-3
380.745506E-3
380.787277E-3
380.308342E-3
382.023239E-3
381.048203E-3
381.051636E-3
380.986977E-3
379.736710E-3
380.257416E-3
378.192329E-3
376.892281E-3
376.598167E-3
375.092697E-3
375.466919E-3
374.026108E-3
373.635864E-3
373.893356E-3
373.250771E-3
374.433517E-3
373.324013E-3
374.018669E-3
374.420357E-3
374.197197E-3
375.798798E-3
375.024033E-3
375.038338E-3
375.988770E-3
375.536728E-3
376.832199E-3
376.084328E-3
376.652527E-3
377.146339E-3
376.384163E-3
377.502823E-3
376.476288E-3
376.960373E-3
377.399826E-3
376.068306E-3
377.178955E-3
376.143837E-3
376.275444E-3
377.009583E-3
376.144981E-3
377.184677E-3
376.492310E-3
376.278877E-3
376.643944E-3
376.027679E-3
377.437592E-3
376.819038E-3
377.290535E-3
377.947998E-3
377.655602E-3
378.792572E-3
378.174591E-3
377.981758E-3
378.487015E-3
377.988625E-3
379.419708E-3
378.828049E-3
378.608322E-3
379.142761E-3
378.365135E-3
379.445457E-3
379.174805E-3
379.272652E-3
379.712677E-3
378.973961E-3
380.051994E-3
379.207420E-3
379.153061E-3
379.084396E-3
377.645302E-3
379.539299E-3
379.296112E-3
379.612541E-3
380.069733E-3
377.707672E-3
379.924393E-3
379.893494E-3
379.893494E-3
380.661964E-3
379.882050E-3
380.889130E-3
380.193901E-3
379.833412E-3
380.311775E-3
377.731133E-3
378.477287E-3
377.627563E-3
376.514053E-3
375.919533E-3
374.504471E-3
374.608612E-3
373.753738E-3
372.932625E-3
373.558044E-3
372.617340E-3
373.896217E-3
373.703957E-3
373.587227E-3
374.416924E-3
373.861313E-3
374.993706E-3
374.764824E-3
374.724197E-3
375.455475E-3
374.632072E-3
376.174164E-3
375.473213E-3
375.449753E-3
376.140976E-3
375.621414E-3
377.126312E-3
376.898003E-3
376.189041E-3
376.679420E-3
375.674057E-3
377.095985E-3
376.277161E-3
376.008797E-3
376.483727E-3
375.202560E-3
376.406479E-3
376.198769E-3
375.780487E-3
376.605034E-3
376.130104E-3
377.318573E-3
377.203560E-3
376.629639E-3
377.309990E-3
377.019310E-3
378.163147E-3
378.017807E-3
377.601814E-3
378.235817E-3
377.663612E-3
378.826332E-3
378.381729E-3
378.372002E-3
378.905296E-3
378.013229E-3
379.121590E-3
378.691292E-3
378.093338E-3
379.032326E-3
378.262711E-3
379.359055E-3
379.349327E-3
378.446388E-3
379.112434E-3
378.647804E-3
379.537010E-3
379.085541E-3
378.706741E-3
379.264641E-3
378.852654E-3
379.944992E-3
379.569626E-3
379.199409E-3
379.607391E-3
379.142761E-3
380.174446E-3
379.960442E-3
379.467773E-3
380.257416E-3
379.309273E-3
380.268288E-3
379.341316E-3
377.859306E-3
377.027321E-3
375.290680E-3
375.496674E-3
374.332237E-3
372.803879E-3
372.793007E-3
371.681213E-3
372.433662E-3
372.204781E-3
372.061157E-3
372.609329E-3
371.966743E-3
373.459053E-3
373.219872E-3
372.924042E-3
373.568344E-3
373.190689E-3
374.417496E-3
373.883057E-3
373.342896E-3
374.510193E-3
373.986053E-3
374.706459E-3
374.820328E-3
374.421501E-3
375.184250E-3
374.732780E-3
375.637436E-3
375.381088E-3
374.817467E-3
374.918747E-3
374.257851E-3
375.236893E-3
375.638008E-3
374.753952E-3
375.511551E-3
374.767685E-3
375.525856E-3
375.664330E-3
374.812889E-3
375.746155E-3
375.214577E-3
376.538658E-3
376.340675E-3
374.355698E-3
375.865173E-3
375.909805E-3
376.697731E-3
377.057648E-3
376.498604E-3
377.032471E-3
376.511192E-3
377.691078E-3
377.711105E-3
376.572418E-3
377.847290E-3
376.974678E-3
377.260208E-3
