Notes :


2023-11-10 ¿ÀÈÄ 11:37:37
Volts
Ch : LED 2,
738.800812E-3
738.455772E-3
738.191986E-3
738.125038E-3
738.239479E-3
738.446617E-3
739.269447E-3
740.550041E-3
743.472862E-3
747.029686E-3
751.202774E-3
755.443382E-3
759.466553E-3
762.883759E-3
765.155983E-3
766.165352E-3
766.262627E-3
765.284729E-3
764.079666E-3
762.366486E-3
760.427284E-3
758.664894E-3
757.032394E-3
755.898857E-3
755.017090E-3
754.475212E-3
754.094124E-3
754.187965E-3
754.642868E-3
754.943848E-3
755.251122E-3
755.398178E-3
755.223656E-3
754.753876E-3
753.815460E-3
752.689934E-3
751.787567E-3
751.074600E-3
750.976181E-3
751.021957E-3
751.254272E-3
751.793289E-3
752.225304E-3
752.797508E-3
753.194618E-3
753.513336E-3
753.623199E-3
753.442955E-3
753.230095E-3
752.821541E-3
752.327156E-3
751.879692E-3
751.225090E-3
750.716972E-3
750.048637E-3
749.546242E-3
749.287605E-3
748.664474E-3
748.460197E-3
747.946358E-3
747.675133E-3
747.422791E-3
747.073174E-3
746.829987E-3
746.599960E-3
746.191406E-3
746.095276E-3
745.711327E-3
745.496178E-3
745.226669E-3
745.086479E-3
744.967461E-3
744.502831E-3
744.518280E-3
744.280815E-3
744.027901E-3
743.904305E-3
743.523216E-3
743.392181E-3
743.343544E-3
743.265724E-3
743.166733E-3
742.896080E-3
742.741585E-3
742.457199E-3
742.254639E-3
742.196846E-3
742.057228E-3
741.994286E-3
741.962814E-3
741.807747E-3
741.731071E-3
741.483879E-3
741.495895E-3
741.237831E-3
741.104507E-3
741.016388E-3
740.797234E-3
740.634155E-3
740.318298E-3
740.001297E-3
739.858246E-3
739.381027E-3
739.096642E-3
738.767624E-3
738.452339E-3
738.163376E-3
737.948799E-3
737.969971E-3
738.186264E-3
738.610268E-3
740.004730E-3
742.344475E-3
746.007156E-3
750.406837E-3
754.923820E-3
759.137535E-3
762.510681E-3
765.149117E-3
766.419983E-3
766.742706E-3
766.251183E-3
764.850998E-3
763.266563E-3
761.475563E-3
759.747505E-3
758.281517E-3
756.807518E-3
755.963516E-3
755.402756E-3
755.092621E-3
755.259132E-3
755.424500E-3
755.748367E-3
756.080246E-3
756.198692E-3
756.097412E-3
755.521202E-3
754.674911E-3
753.450966E-3
752.334595E-3
751.592445E-3
751.170731E-3
751.031685E-3
751.400185E-3
751.815605E-3
752.446175E-3
752.862740E-3
753.452110E-3
753.856659E-3
754.013443E-3
754.203415E-3
753.977394E-3
753.894424E-3
753.425217E-3
752.830696E-3
752.323151E-3
751.656532E-3
751.139259E-3
750.552177E-3
749.969101E-3
749.444389E-3
749.042702E-3
748.777771E-3
748.355484E-3
747.949791E-3
747.593880E-3
747.339821E-3
747.159004E-3
746.789932E-3
746.543884E-3
746.377373E-3
746.070099E-3
745.880127E-3
745.685005E-3
745.339966E-3
745.294189E-3
744.831276E-3
744.678497E-3
744.607544E-3
744.415855E-3
744.366074E-3
744.109154E-3
743.899155E-3
743.643951E-3
743.559837E-3
743.504906E-3
743.092346E-3
743.071747E-3
742.963028E-3
742.793655E-3
742.673492E-3
742.520714E-3
742.351913E-3
742.196846E-3
741.953087E-3
742.001724E-3
741.807175E-3
741.645241E-3
741.492462E-3
741.249275E-3
741.257286E-3
740.916252E-3
740.827560E-3
740.543175E-3
740.243340E-3
740.089989E-3
739.672852E-3
739.461136E-3
739.205933E-3
738.845444E-3
738.747025E-3
738.378525E-3
738.345909E-3
738.390541E-3
738.380814E-3
738.776207E-3
739.302635E-3
741.233253E-3
744.131470E-3
747.700310E-3
751.939201E-3
755.984688E-3
759.935188E-3
762.697220E-3
764.524269E-3
765.386581E-3
765.067863E-3
764.035606E-3
762.657166E-3
760.859299E-3
759.076309E-3
757.111931E-3
755.649376E-3
754.439735E-3
753.485298E-3
752.974319E-3
752.692223E-3
752.749443E-3
752.918243E-3
753.196907E-3
753.503609E-3
753.215218E-3
752.767181E-3
751.868820E-3
750.819969E-3
749.946785E-3
749.359131E-3
749.320221E-3
749.566841E-3
750.041771E-3
750.732422E-3
751.401901E-3
752.205849E-3
752.665329E-3
752.909088E-3
753.075027E-3
752.946854E-3
752.824402E-3
752.376366E-3
751.792145E-3
751.349258E-3
750.637436E-3
750.279236E-3
749.694443E-3
748.948860E-3
748.491096E-3
748.090553E-3
747.615623E-3
747.439957E-3
746.951294E-3
746.814537E-3
746.558762E-3
746.477509E-3
746.074677E-3
745.747375E-3
745.693016E-3
745.385170E-3
745.250130E-3
745.042419E-3
744.746017E-3
744.737434E-3
744.506264E-3
744.403267E-3
744.163513E-3
744.045067E-3
744.090271E-3
744.027328E-3
744.178963E-3
744.021034E-3
743.956375E-3
743.976402E-3
743.794441E-3
743.726921E-3
743.604469E-3
743.437958E-3
743.320656E-3
743.205643E-3
743.019104E-3
742.912674E-3
742.663765E-3
742.679787E-3
742.472076E-3
742.252922E-3
742.207718E-3
741.959953E-3
741.768837E-3
741.324806E-3
741.020966E-3
740.812683E-3
740.454483E-3
740.055084E-3
739.814186E-3
739.685440E-3
739.508057E-3
739.434814E-3
739.641953E-3
739.982414E-3
740.522003E-3
742.111588E-3
744.545174E-3
748.167229E-3
752.157784E-3
756.459045E-3
760.475922E-3
763.553238E-3
765.826035E-3
766.840553E-3
766.961861E-3
766.172791E-3
764.752579E-3
763.255119E-3
761.357689E-3
759.595299E-3
758.089256E-3
756.685638E-3
755.905151E-3
755.236244E-3
754.904366E-3
754.977036E-3
755.163574E-3
755.451965E-3
755.541801E-3
755.488014E-3
755.157280E-3
754.202271E-3
753.151131E-3
752.177811E-3
751.479721E-3
750.995064E-3
750.849724E-3
751.248550E-3
751.577568E-3
752.240181E-3
752.957153E-3
753.450966E-3
753.915024E-3
753.995132E-3
754.074097E-3
753.923035E-3
753.452682E-3
753.116798E-3
752.501678E-3
751.922607E-3
751.587868E-3
750.810242E-3
750.329018E-3
749.723625E-3
749.131966E-3
748.770905E-3
748.323441E-3
748.138046E-3
747.843361E-3
747.466278E-3
747.269440E-3
746.946144E-3
746.822548E-3
746.484375E-3
746.150208E-3
746.099854E-3
745.745659E-3
745.635223E-3
745.453262E-3
745.367432E-3
745.251846E-3
744.915962E-3
744.770050E-3
744.696808E-3
744.473648E-3
744.416428E-3
744.169807E-3
744.253922E-3
744.149208E-3
743.974686E-3
743.947792E-3
743.700600E-3
743.603325E-3
743.506622E-3
743.284035E-3
743.369293E-3
742.982483E-3
743.013382E-3
742.823410E-3
742.764473E-3
742.678642E-3
742.486382E-3
742.513847E-3
742.300987E-3
741.948509E-3
741.945648E-3
741.620064E-3
741.486168E-3
741.225815E-3
740.924835E-3
740.564346E-3
739.983559E-3
739.809608E-3
739.324379E-3
739.140129E-3
738.994789E-3
738.792229E-3
739.016533E-3
739.373589E-3
740.078545E-3
741.800880E-3
744.752312E-3
748.588371E-3
753.221512E-3
757.667542E-3
761.786270E-3
764.999199E-3
767.266273E-3
768.345451E-3
768.208694E-3
767.405319E-3
765.844345E-3
764.360046E-3
762.554741E-3
760.879326E-3
759.601593E-3
758.283806E-3
757.613754E-3
757.134819E-3
757.117081E-3
757.333374E-3
757.561684E-3
758.042908E-3
758.408546E-3
758.393669E-3
758.248329E-3
757.506752E-3
756.586647E-3
755.384445E-3
754.230881E-3
753.649521E-3
753.175163E-3
753.301048E-3
753.390884E-3
753.915596E-3
754.633141E-3
755.132103E-3
755.714035E-3
756.055641E-3
756.280518E-3
756.234741E-3
756.017876E-3
755.702591E-3
755.290031E-3
754.610252E-3
754.211426E-3
753.668976E-3
753.221512E-3
752.483368E-3
751.889420E-3
751.527214E-3
751.058578E-3
750.724411E-3
750.537872E-3
750.078392E-3
749.794579E-3
749.492455E-3
749.374008E-3
749.072456E-3
748.638725E-3
748.578644E-3
748.227882E-3
748.083687E-3
747.867966E-3
747.704315E-3
747.663689E-3
747.296333E-3
747.149277E-3
747.030830E-3
746.716690E-3
746.639442E-3
746.328735E-3
746.273804E-3
746.053505E-3
745.787430E-3
745.790291E-3
745.507622E-3
745.451546E-3
745.220375E-3
745.112228E-3
745.017242E-3
744.794083E-3
744.709396E-3
744.743156E-3
744.581795E-3
744.450188E-3
744.277382E-3
744.238472E-3
744.117165E-3
743.828201E-3
743.871117E-3
743.474579E-3
743.357849E-3
743.087196E-3
742.791367E-3
742.600250E-3
742.046356E-3
741.787148E-3
741.539383E-3
741.206360E-3
740.978622E-3
740.752602E-3
740.748596E-3
740.810394E-3
740.913391E-3
741.554832E-3
742.651176E-3
744.837570E-3
748.073387E-3
752.114296E-3
756.486511E-3
760.231018E-3
763.851357E-3
766.288376E-3
767.508888E-3
767.822456E-3
767.259979E-3
766.139603E-3
764.671898E-3
762.958717E-3
761.381721E-3
759.964371E-3
758.703232E-3
757.741928E-3
757.102776E-3
757.035255E-3
756.893349E-3
757.157135E-3
757.541084E-3
757.701302E-3
757.834625E-3
757.331657E-3
756.536865E-3
755.338097E-3
754.083252E-3
753.320503E-3
752.798653E-3
752.752304E-3
753.044701E-3
753.495598E-3
754.233170E-3
754.886055E-3
755.451965E-3
755.837059E-3
755.905151E-3
755.915451E-3
755.688858E-3
755.366707E-3
755.180740E-3
754.648018E-3
754.182243E-3
753.551102E-3
753.122520E-3
752.689362E-3
752.061081E-3
751.826477E-3
751.350403E-3
751.124954E-3
750.939560E-3
750.696945E-3
750.446320E-3
750.315285E-3
750.025749E-3
749.981689E-3
749.752235E-3
749.714470E-3
749.626350E-3
749.423218E-3
749.296761E-3
749.119377E-3
748.912811E-3
748.728561E-3
748.521423E-3
748.403549E-3
748.183823E-3
748.189545E-3
747.960663E-3
747.940636E-3
747.849083E-3
747.625923E-3
747.553253E-3
747.460556E-3
747.390747E-3
747.387314E-3
747.217941E-3
747.229385E-3
747.007942E-3
746.957016E-3
746.998215E-3
746.661758E-3
746.514130E-3
746.234322E-3
746.042061E-3
745.895004E-3
745.497322E-3
745.259285E-3
744.957161E-3
744.485664E-3
744.176674E-3
743.740082E-3
743.504333E-3
743.173599E-3
743.079758E-3
743.149567E-3
743.306351E-3
743.602753E-3
744.354057E-3
746.010017E-3
748.757172E-3
752.254486E-3
756.407547E-3
760.471916E-3
764.287376E-3
767.310905E-3
769.061279E-3
770.098114E-3
770.137596E-3
769.365692E-3
768.114853E-3
766.486359E-3
765.023804E-3
763.434219E-3
762.130737E-3
761.311340E-3
760.553741E-3
760.098267E-3
759.971809E-3
760.098267E-3
760.362053E-3
760.548019E-3
760.804367E-3
760.537148E-3
760.162926E-3
759.238243E-3
757.771683E-3
756.682205E-3
755.628777E-3
755.104637E-3
755.023384E-3
755.232811E-3
755.809021E-3
756.487083E-3
757.200050E-3
757.856369E-3
758.104134E-3
758.385086E-3
758.327866E-3
758.109856E-3
757.761383E-3
757.190895E-3
756.665611E-3
755.975533E-3
755.393028E-3
754.880905E-3
754.166794E-3
753.643799E-3
753.137398E-3
752.926826E-3
752.659035E-3
752.021027E-3
751.904869E-3
751.614761E-3
751.420212E-3
751.167870E-3
750.897789E-3
750.725555E-3
750.366783E-3
750.025177E-3
750.025749E-3
749.636650E-3
749.529076E-3
749.353981E-3
749.018097E-3
748.980904E-3
748.704529E-3
748.510551E-3
748.374939E-3
748.247910E-3
748.074532E-3
747.818184E-3
747.842789E-3
747.738647E-3
747.481728E-3
747.256279E-3
746.958160E-3
746.928978E-3
746.716690E-3
746.411133E-3
746.282387E-3
746.054649E-3
745.994568E-3
745.919609E-3
745.643806E-3
745.661545E-3
745.416069E-3
745.355415E-3
745.221519E-3
745.112228E-3
745.151138E-3
744.798088E-3
744.779778E-3
744.561195E-3
744.234467E-3
743.877411E-3
743.388176E-3
743.038559E-3
742.804527E-3
742.494965E-3
742.274094E-3
742.177391E-3
742.413139E-3
742.664909E-3
743.227386E-3
744.760895E-3
747.207642E-3
750.858879E-3
755.125809E-3
759.671974E-3
763.917160E-3
767.552376E-3
770.031738E-3
771.514893E-3
771.936607E-3
771.413612E-3
770.257187E-3
768.779755E-3
767.114067E-3
765.424919E-3
764.095688E-3
762.993622E-3
762.357330E-3
761.928177E-3
761.779976E-3
762.052345E-3
762.230873E-3
762.660599E-3
763.067436E-3
763.128662E-3
763.118362E-3
762.320709E-3
761.349106E-3
760.058784E-3
758.828545E-3
757.874107E-3
757.064438E-3
756.900215E-3
756.959152E-3
757.161140E-3
757.884979E-3
758.381081E-3
759.040833E-3
759.460831E-3
759.449387E-3
759.619904E-3
759.259415E-3
759.000206E-3
758.615112E-3
758.069801E-3
757.582855E-3
756.805229E-3
756.418991E-3
755.802727E-3
755.225372E-3
754.927826E-3
754.384232E-3
754.146767E-3
753.912163E-3
753.421783E-3
753.202629E-3
752.777481E-3
752.630424E-3
752.261925E-3
751.916313E-3
751.873970E-3
751.570129E-3
751.403046E-3
751.185036E-3
750.940132E-3
750.947571E-3
750.616264E-3
750.526428E-3
750.331879E-3
750.013733E-3
749.895859E-3
749.733925E-3
749.639511E-3
749.420357E-3
749.238968E-3
749.116516E-3
748.941994E-3
748.875046E-3
748.567200E-3
748.269081E-3
748.225594E-3
747.987556E-3
747.953796E-3
747.690010E-3
747.451401E-3
747.387314E-3
747.101212E-3
747.042274E-3
747.014809E-3
746.775055E-3
746.759605E-3
746.494102E-3
746.525002E-3
746.394539E-3
746.207428E-3
746.113014E-3
745.907021E-3
745.901871E-3
745.525932E-3
745.033836E-3
744.819832E-3
744.331741E-3
744.081116E-3
743.876266E-3
743.641663E-3
743.486023E-3
743.293762E-3
743.443680E-3
743.631935E-3
743.875694E-3
745.079613E-3
747.183037E-3
750.400543E-3
754.336739E-3
758.410263E-3
762.633133E-3
765.862083E-3
768.358612E-3
769.869232E-3
770.154762E-3
769.731331E-3
768.537712E-3
767.222786E-3
765.525627E-3
763.731194E-3
762.424278E-3
761.163712E-3
760.299110E-3
759.943771E-3
759.624481E-3
759.732056E-3
759.792709E-3
760.152054E-3
760.573769E-3
760.599518E-3
760.449028E-3
759.670830E-3
758.601952E-3
757.279015E-3
756.065369E-3
755.354118E-3
755.142975E-3
755.430222E-3
755.946922E-3
756.574059E-3
757.246399E-3
757.871246E-3
758.363342E-3
758.692360E-3
758.597946E-3
758.415413E-3
758.112144E-3
757.853508E-3
757.396317E-3
756.783485E-3
756.258774E-3
755.593872E-3
755.032539E-3
754.571342E-3
754.013443E-3
753.706741E-3
753.316498E-3
753.141403E-3
752.866173E-3
752.552605E-3
752.282524E-3
751.950645E-3
751.716042E-3
751.409912E-3
750.974464E-3
750.759315E-3
750.571632E-3
750.430298E-3
750.168800E-3
749.973679E-3
749.974251E-3
749.788284E-3
749.616051E-3
749.483299E-3
749.374008E-3
749.423218E-3
749.283600E-3
749.202919E-3
749.189758E-3
748.970032E-3
749.012375E-3
748.894501E-3
748.669624E-3
748.673058E-3
748.433304E-3
748.345184E-3
747.998428E-3
747.776413E-3
747.739792E-3
747.319221E-3
747.217369E-3
747.000504E-3
746.906090E-3
746.766472E-3
746.440315E-3
746.261215E-3
746.154213E-3
745.808029E-3
745.369720E-3
745.023537E-3
744.879341E-3
744.410706E-3
744.150352E-3
743.873405E-3
743.457985E-3
743.436241E-3
743.338394E-3
743.484306E-3
743.718910E-3
743.898010E-3
745.171165E-3
747.245407E-3
750.338745E-3
754.343605E-3
758.484077E-3
762.684631E-3
766.421700E-3
769.022942E-3
770.741272E-3
771.191025E-3
770.762444E-3
769.762802E-3
768.397522E-3
766.776466E-3
764.966583E-3
763.638496E-3
762.352753E-3
761.349678E-3
760.830688E-3
760.318565E-3
760.423851E-3
760.592651E-3
760.855293E-3
761.211205E-3
761.215210E-3
761.186028E-3
760.541725E-3
759.420204E-3
758.268929E-3
756.883621E-3
756.055069E-3
755.623055E-3
755.306625E-3
755.655670E-3
755.955505E-3
756.521416E-3
757.039261E-3
757.611465E-3
757.970810E-3
757.989120E-3
758.027458E-3
757.785416E-3
757.420921E-3
757.034683E-3
756.433296E-3
755.986977E-3
755.528069E-3
754.760170E-3
754.189110E-3
753.687286E-3
753.318787E-3
752.693367E-3
752.238464E-3
752.065086E-3
751.608467E-3
751.504326E-3
751.124954E-3
750.664902E-3
750.511551E-3
750.197983E-3
749.930191E-3
749.739647E-3
749.436378E-3
749.351692E-3
749.019241E-3
748.984909E-3
748.796654E-3
748.523712E-3
748.455048E-3
748.049355E-3
748.005295E-3
747.823906E-3
