Notes :


2023-11-04 ¿ÀÈÄ 6:47:01
Volts
Ch : LED 2,
309.424210E-3
309.060860E-3
308.628845E-3
308.417702E-3
308.121872E-3
307.879257E-3
307.719612E-3
307.566833E-3
307.566261E-3
307.468414E-3
307.266426E-3
307.212639E-3
307.010078E-3
307.024956E-3
307.012367E-3
306.886482E-3
306.897354E-3
306.830978E-3
306.810379E-3
306.810379E-3
306.764030E-3
306.674194E-3
306.644440E-3
306.562614E-3
306.635857E-3
306.597519E-3
306.576347E-3
306.460762E-3
306.186104E-3
306.049347E-3
305.623627E-3
305.473137E-3
305.182457E-3
304.933548E-3
304.558182E-3
304.439163E-3
304.487228E-3
304.293251E-3
304.349899E-3
304.337883E-3
304.937553E-3
306.061935E-3
307.517624E-3
309.647369E-3
312.027168E-3
314.261627E-3
316.382217E-3
317.972374E-3
318.982315E-3
319.375992E-3
319.129372E-3
318.506241E-3
317.480850E-3
316.334152E-3
315.281296E-3
314.239311E-3
313.595009E-3
313.137817E-3
312.740135E-3
312.593651E-3
312.476921E-3
312.617111E-3
312.523270E-3
312.459183E-3
312.318993E-3
312.039757E-3
311.608315E-3
311.093330E-3
310.819817E-3
310.576057E-3
310.412407E-3
310.471344E-3
310.612679E-3
311.071587E-3
311.322212E-3
311.519623E-3
311.771965E-3
311.816597E-3
311.738205E-3
311.541939E-3
311.125946E-3
310.779762E-3
310.341454E-3
309.835052E-3
309.457397E-3
308.948708E-3
308.624268E-3
308.310699E-3
307.934189E-3
307.605743E-3
307.322502E-3
307.275581E-3
306.909943E-3
306.707954E-3
306.607819E-3
306.618690E-3
306.648445E-3
306.515121E-3
306.477356E-3
306.356049E-3
306.337738E-3
306.249046E-3
306.307411E-3
306.183815E-3
306.180382E-3
306.166077E-3
306.279373E-3
306.324005E-3
306.240463E-3
306.202126E-3
306.192970E-3
306.051636E-3
305.934906E-3
305.904007E-3
305.727196E-3
305.509758E-3
305.533218E-3
305.199623E-3
304.802513E-3
304.551315E-3
304.257774E-3
304.028320E-3
303.852081E-3
303.660393E-3
303.642654E-3
303.537369E-3
303.913307E-3
304.675484E-3
306.163216E-3
308.029747E-3
310.249329E-3
312.789345E-3
315.130234E-3
317.284584E-3
319.062996E-3
319.778824E-3
320.112419E-3
319.769669E-3
319.089890E-3
318.142319E-3
317.031670E-3
316.038322E-3
315.193748E-3
314.565468E-3
314.219856E-3
313.850784E-3
313.833618E-3
313.830185E-3
314.075661E-3
314.246750E-3
314.122009E-3
314.308548E-3
314.109993E-3
313.615036E-3
313.194466E-3
312.504959E-3
312.012291E-3
311.705017E-3
311.555099E-3
311.626625E-3
311.765671E-3
312.115288E-3
312.294388E-3
312.607956E-3
312.677765E-3
312.637138E-3
312.428284E-3
312.126732E-3
311.539078E-3
311.371994E-3
310.859871E-3
310.647583E-3
310.193825E-3
309.897995E-3
309.561539E-3
309.111786E-3
308.757591E-3
308.426857E-3
308.228302E-3
308.133316E-3
308.028030E-3
308.005142E-3
307.938194E-3
307.937622E-3
307.855797E-3
307.740211E-3
307.602310E-3
307.519341E-3
307.477570E-3
307.362556E-3
307.343674E-3
307.361412E-3
307.406616E-3
307.331085E-3
307.291031E-3
307.271576E-3
307.232666E-3
307.196617E-3
307.180595E-3
307.163429E-3
306.889915E-3
306.803513E-3
306.464195E-3
306.295967E-3
306.160927E-3
305.744362E-3
305.558968E-3
305.295181E-3
305.029106E-3
304.914093E-3
304.819107E-3
304.971886E-3
304.909515E-3
304.999352E-3
305.578423E-3
306.626129E-3
308.338737E-3
310.473061E-3
312.851143E-3
315.416908E-3
317.413902E-3
319.273567E-3
320.232582E-3
320.536423E-3
320.300102E-3
319.637489E-3
318.858719E-3
317.814445E-3
316.977310E-3
316.262627E-3
315.512466E-3
314.945412E-3
314.618683E-3
314.511108E-3
314.487076E-3
314.527702E-3
314.648437E-3
314.674759E-3
314.604378E-3
314.456177E-3
313.878822E-3
313.334656E-3
312.771606E-3
312.265205E-3
312.050056E-3
311.660957E-3
311.748505E-3
311.965942E-3
312.293243E-3
312.542152E-3
312.751579E-3
312.876320E-3
312.912941E-3
312.692642E-3
312.429428E-3
312.094688E-3
311.737061E-3
311.355400E-3
310.917664E-3
310.605240E-3
310.122299E-3
309.800720E-3
309.355545E-3
309.261131E-3
308.825111E-3
308.613396E-3
308.505821E-3
308.399963E-3
308.300972E-3
308.330727E-3
308.188248E-3
308.167648E-3
308.084679E-3
308.003998E-3
308.001137E-3
307.938194E-3
307.954788E-3
307.914734E-3
307.880402E-3
307.891846E-3
307.799721E-3
307.900429E-3
307.727051E-3
307.685280E-3
307.704735E-3
307.680130E-3
307.625771E-3
307.584000E-3
307.254410E-3
307.344818E-3
307.204056E-3
306.832695E-3
306.658173E-3
306.436729E-3
306.256485E-3
305.883408E-3
305.714607E-3
305.522346E-3
305.208778E-3
304.972458E-3
304.840851E-3
304.865456E-3
304.862595E-3
305.122375E-3
305.877686E-3
307.098770E-3
308.846283E-3
311.105919E-3
313.468552E-3
315.892410E-3
318.049049E-3
319.680405E-3
320.630264E-3
320.874596E-3
320.595932E-3
319.961357E-3
318.888474E-3
317.773819E-3
316.675186E-3
315.951920E-3
315.247536E-3
314.761162E-3
314.474487E-3
314.417839E-3
314.493370E-3
314.452744E-3
314.535713E-3
314.617538E-3
314.360046E-3
313.999557E-3
313.434792E-3
312.706375E-3
312.291527E-3
312.032890E-3
312.122726E-3
312.147331E-3
312.441444E-3
312.744713E-3
313.127518E-3
313.625336E-3
313.791847E-3
313.830757E-3
313.698006E-3
313.461113E-3
313.095474E-3
312.546158E-3
311.980247E-3
311.529922E-3
311.131096E-3
310.945129E-3
310.426140E-3
310.065079E-3
309.762383E-3
309.385300E-3
309.177017E-3
308.926964E-3
308.764458E-3
308.621979E-3
308.649445E-3
308.557320E-3
308.323860E-3
308.256340E-3
308.180237E-3
308.102417E-3
308.120728E-3
307.995987E-3
307.899857E-3
308.089256E-3
307.864380E-3
307.810020E-3
307.748222E-3
307.636642E-3
307.662392E-3
307.601738E-3
307.704735E-3
307.573128E-3
307.468987E-3
307.268715E-3
307.000923E-3
306.901360E-3
306.653595E-3
306.442451E-3
306.155205E-3
305.964088E-3
305.677986E-3
305.299759E-3
305.021095E-3
304.878616E-3
304.788780E-3
304.811096E-3
304.987335E-3
305.417061E-3
306.273651E-3
307.783699E-3
309.869385E-3
312.152481E-3
314.559174E-3
316.897202E-3
318.707085E-3
320.032310E-3
320.700073E-3
320.748711E-3
320.227432E-3
319.315338E-3
318.265343E-3
317.142105E-3
316.288376E-3
315.485001E-3
314.940262E-3
314.586639E-3
314.347458E-3
314.417267E-3
314.444733E-3
314.442444E-3
314.487648E-3
314.456177E-3
314.296532E-3
313.803291E-3
313.243675E-3
312.753296E-3
312.316132E-3
312.004280E-3
311.936188E-3
311.933899E-3
312.108421E-3
312.326431E-3
312.564468E-3
312.852859E-3
312.893486E-3
312.966156E-3
312.841988E-3
312.664604E-3
312.272072E-3
311.852646E-3
311.469269E-3
311.103630E-3
310.559464E-3
310.148621E-3
309.713173E-3
309.348106E-3
308.983612E-3
308.585358E-3
308.432007E-3
308.135033E-3
308.168221E-3
308.026886E-3
307.842064E-3
307.821465E-3
307.651520E-3
307.653809E-3
307.458687E-3
307.452393E-3
307.364845E-3
307.057571E-3
307.204056E-3
307.201195E-3
307.122231E-3
307.101059E-3
307.028961E-3
307.024956E-3
306.880760E-3
306.734848E-3
306.638145E-3
306.596947E-3
306.532860E-3
306.573486E-3
306.444168E-3
306.375504E-3
306.254768E-3
306.298256E-3
305.945206E-3
305.649376E-3
305.500031E-3
305.061722E-3
304.887772E-3
304.623413E-3
304.302406E-3
304.193687E-3
304.132462E-3
304.079247E-3
304.084396E-3
304.254341E-3
304.832840E-3
305.893707E-3
307.620621E-3
309.758949E-3
312.268066E-3
314.893913E-3
317.056847E-3
318.965721E-3
320.076370E-3
320.578194E-3
320.463181E-3
319.897842E-3
319.017792E-3
317.975235E-3
316.840553E-3
316.024590E-3
315.202332E-3
314.697075E-3
314.373207E-3
314.230728E-3
314.279938E-3
314.390945E-3
314.594078E-3
314.839554E-3
314.821815E-3
314.712524E-3
314.233589E-3
313.645363E-3
312.994766E-3
312.406540E-3
312.004852E-3
311.733055E-3
311.714745E-3
311.922455E-3
312.153625E-3
312.413979E-3
312.622833E-3
312.790489E-3
312.658882E-3
312.316132E-3
312.194252E-3
311.928749E-3
311.530495E-3
311.211777E-3
310.874748E-3
310.446167E-3
310.019302E-3
309.690857E-3
309.062004E-3
308.719826E-3
308.409119E-3
308.161354E-3
307.880402E-3
307.854652E-3
307.774544E-3
307.685852E-3
307.617187E-3
307.302475E-3
307.447815E-3
307.269859E-3
307.244110E-3
307.137680E-3
307.121086E-3
307.070732E-3
307.028961E-3
307.043839E-3
306.903076E-3
306.847000E-3
306.724548E-3
306.639862E-3
306.570053E-3
306.470490E-3
306.400681E-3
306.139183E-3
306.148911E-3
306.170654E-3
306.019592E-3
305.953789E-3
305.873680E-3
305.700302E-3
305.585289E-3
305.333519E-3
305.208206E-3
305.094337E-3
304.823685E-3
304.591942E-3
304.261208E-3
304.044914E-3
303.828049E-3
303.625488E-3
303.483582E-3
303.516769E-3
303.537369E-3
303.543663E-3
304.026031E-3
305.103493E-3
306.570625E-3
308.647728E-3
311.023521E-3
313.490295E-3
316.033745E-3
317.757797E-3
319.103622E-3
319.679832E-3
319.627762E-3
319.208908E-3
318.334007E-3
317.246246E-3
316.173363E-3
315.378571E-3
314.475060E-3
313.744354E-3
313.338661E-3
313.138390E-3
313.080597E-3
313.157845E-3
313.439941E-3
313.614464E-3
313.724327E-3
313.553238E-3
313.290024E-3
312.724686E-3
312.242317E-3
311.682129E-3
311.252403E-3
311.245537E-3
311.083603E-3
311.200333E-3
311.527061E-3
311.750793E-3
312.070084E-3
312.153053E-3
312.191963E-3
312.050056E-3
311.959648E-3
311.591148E-3
311.089897E-3
310.695076E-3
310.367775E-3
309.942627E-3
309.518051E-3
309.015083E-3
308.716393E-3
308.419418E-3
308.066368E-3
307.840919E-3
307.579422E-3
307.363701E-3
307.332230E-3
307.204056E-3
307.172012E-3
307.074165E-3
307.097054E-3
307.010651E-3
306.864166E-3
306.863022E-3
306.785202E-3
306.796074E-3
306.754303E-3
306.751442E-3
306.782913E-3
306.683922E-3
306.693077E-3
306.580353E-3
306.431007E-3
306.406403E-3
306.274796E-3
306.225014E-3
306.269073E-3
306.090546E-3
306.107712E-3
306.013298E-3
305.865669E-3
305.780983E-3
305.568123E-3
305.411911E-3
305.233383E-3
305.124092E-3
304.824829E-3
304.500961E-3
304.293823E-3
303.972816E-3
303.769112E-3
303.599167E-3
303.559685E-3
303.563118E-3
303.348541E-3
303.485870E-3
303.907013E-3
304.785347E-3
306.321144E-3
308.357620E-3
310.646439E-3
313.051987E-3
315.241241E-3
317.092323E-3
318.233871E-3
318.597221E-3
318.310547E-3
317.695999E-3
316.794777E-3
315.714455E-3
314.634132E-3
313.670540E-3
312.820244E-3
312.210846E-3
311.718750E-3
311.371994E-3
311.258698E-3
311.092758E-3
311.273003E-3
311.378860E-3
311.336517E-3
311.126518E-3
310.641289E-3
310.213280E-3
309.749794E-3
309.480286E-3
309.366417E-3
309.304619E-3
309.370995E-3
309.665680E-3
310.110855E-3
310.557175E-3
310.803795E-3
311.002350E-3
310.968590E-3
310.759735E-3
310.446739E-3
310.218430E-3
309.717178E-3
308.982468E-3
308.650589E-3
308.293533E-3
307.905579E-3
307.505608E-3
307.149124E-3
306.713676E-3
306.430435E-3
306.032181E-3
305.861092E-3
305.693436E-3
305.633354E-3
305.718613E-3
305.582428E-3
305.571556E-3
305.426788E-3
305.261421E-3
305.259132E-3
305.153847E-3
305.101204E-3
305.083466E-3
305.006790E-3
305.015945E-3
304.976463E-3
304.915237E-3
304.805374E-3
304.686928E-3
304.634285E-3
304.369354E-3
304.332733E-3
304.175949E-3
304.110146E-3
303.949928E-3
303.947639E-3
304.062653E-3
303.953934E-3
303.810883E-3
303.731918E-3
303.438950E-3
303.325653E-3
303.136253E-3
303.052139E-3
302.778053E-3
302.465057E-3
302.359200E-3
302.063370E-3
301.776123E-3
301.612473E-3
301.503181E-3
301.493454E-3
301.525497E-3
301.848793E-3
302.621269E-3
304.043770E-3
306.158066E-3
308.530426E-3
310.956573E-3
313.386154E-3
315.403748E-3
317.075729E-3
317.943764E-3
318.011284E-3
317.586136E-3
316.772461E-3
315.816879E-3
314.757156E-3
313.676834E-3
312.765884E-3
312.039757E-3
311.492157E-3
311.210632E-3
311.081886E-3
311.088181E-3
311.161423E-3
311.452675E-3
311.423492E-3
311.560822E-3
311.617470E-3
311.330223E-3
310.881042E-3
310.361481E-3
309.809303E-3
309.531212E-3
309.311485E-3
309.488869E-3
309.543800E-3
309.659386E-3
309.854507E-3
310.037041E-3
310.230446E-3
310.197830E-3
310.128021E-3
309.949493E-3
309.860229E-3
309.393311E-3
308.948135E-3
308.562469E-3
308.209419E-3
307.731056E-3
307.349396E-3
306.964302E-3
306.508255E-3
305.990982E-3
305.731773E-3
305.564690E-3
305.417633E-3
305.273437E-3
305.269432E-3
305.069160E-3
305.029678E-3
304.916954E-3
304.912949E-3
304.831123E-3
304.695511E-3
304.775620E-3
304.701805E-3
304.676628E-3
304.656029E-3
304.740143E-3
304.574776E-3
304.581070E-3
304.361343E-3
304.383087E-3
304.222298E-3
304.131317E-3
304.109001E-3
303.992271E-3
303.933334E-3
303.862381E-3
303.820610E-3
303.715897E-3
303.575134E-3
303.434372E-3
303.330231E-3
303.149986E-3
302.992058E-3
302.660179E-3
302.577782E-3
302.233315E-3
302.029037E-3
301.735497E-3
301.495743E-3
301.344109E-3
301.080894E-3
301.052284E-3
300.994492E-3
301.106071E-3
301.452827E-3
302.412415E-3
303.955650E-3
306.007576E-3
308.338737E-3
310.834694E-3
313.049126E-3
315.199471E-3
316.323853E-3
316.924095E-3
317.020226E-3
316.466331E-3
315.490723E-3
314.563179E-3
313.502884E-3
312.577057E-3
311.726189E-3
311.002350E-3
310.594368E-3
310.289383E-3
310.279083E-3
310.051918E-3
310.312271E-3
310.427284E-3
310.546875E-3
310.592651E-3
310.414124E-3
309.966660E-3
309.459686E-3
308.828545E-3
308.600807E-3
308.242607E-3
308.046341E-3
308.172798E-3
308.324432E-3
308.659744E-3
308.923531E-3
309.038544E-3
309.019089E-3
308.857155E-3
308.789635E-3
308.612251E-3
308.377075E-3
308.079529E-3
307.744789E-3
307.487297E-3
307.110786E-3
306.822968E-3
306.443024E-3
306.077385E-3
305.760956E-3
305.545235E-3
305.272865E-3
305.094337E-3
304.840851E-3
305.032539E-3
304.860878E-3
304.742432E-3
304.657173E-3
304.478073E-3
304.467773E-3
304.307556E-3
303.908730E-3
304.058075E-3
304.032326E-3
303.951645E-3
303.946495E-3
303.893280E-3
303.906441E-3
303.773689E-3
303.663826E-3
303.536797E-3
303.563118E-3
303.521347E-3
303.510475E-3
303.477859E-3
303.349113E-3
303.192329E-3
303.115654E-3
303.030968E-3
303.004646E-3
302.728844E-3
302.554893E-3
302.458763E-3
302.204704E-3
302.016449E-3
301.819038E-3
301.903725E-3
301.511765E-3
301.127815E-3
301.096344E-3
301.109505E-3
301.049423E-3
301.256561E-3
301.749229E-3
302.752876E-3
304.288101E-3
306.385803E-3
308.729553E-3
310.950851E-3
313.043404E-3
314.701653E-3
315.813446E-3
316.056633E-3
315.755081E-3
314.832115E-3
313.964081E-3
313.046837E-3
311.935616E-3
310.925674E-3
310.202980E-3
309.529495E-3
309.121513E-3
308.783913E-3
308.662033E-3
308.631706E-3
308.691788E-3
308.797073E-3
308.766174E-3
308.501816E-3
308.137894E-3
307.755089E-3
307.323647E-3
307.458115E-3
307.161713E-3
307.202911E-3
307.450676E-3
307.711601E-3
308.193398E-3
308.445168E-3
308.694649E-3
308.766174E-3
308.721542E-3
308.552170E-3
308.366203E-3
308.025742E-3
307.686996E-3
307.257271E-3
306.927109E-3
306.384659E-3
305.965233E-3
305.516624E-3
305.097771E-3
304.625130E-3
304.263496E-3
304.058647E-3
303.881836E-3
303.673553E-3
303.540802E-3
303.505898E-3
303.489876E-3
303.373146E-3
303.273010E-3
303.218651E-3
303.123093E-3
303.068161E-3
302.897072E-3
302.728271E-3
302.889061E-3
302.828979E-3
302.939415E-3
302.924538E-3
302.810097E-3
302.831841E-3
