Notes :


2023-11-04 ¿ÀÈÄ 7:14:19
Volts
Ch : LED 2,
541.850281E-3
541.635704E-3
541.341019E-3
541.037750E-3
540.793419E-3
540.435791E-3
540.335083E-3
540.281296E-3
540.271568E-3
540.383148E-3
540.987968E-3
542.276573E-3
544.588852E-3
547.796059E-3
551.701355E-3
555.706787E-3
559.668732E-3
563.275909E-3
565.969849E-3
567.629242E-3
568.328476E-3
568.186569E-3
567.430687E-3
565.998459E-3
564.547920E-3
562.964630E-3
561.733246E-3
560.469818E-3
559.450722E-3
558.857346E-3
558.610725E-3
558.330917E-3
558.303452E-3
558.639336E-3
559.036446E-3
559.157181E-3
559.006691E-3
558.652496E-3
557.830238E-3
556.736183E-3
555.735397E-3
555.118561E-3
554.477119E-3
554.114914E-3
554.046249E-3
554.201317E-3
554.478836E-3
554.905701E-3
555.144882E-3
555.433273E-3
555.543709E-3
555.752563E-3
555.857277E-3
555.631256E-3
555.379486E-3
554.989243E-3
554.437637E-3
553.860855E-3
553.364182E-3
552.653503E-3
552.137375E-3
551.749992E-3
551.325417E-3
550.903702E-3
550.515175E-3
550.179291E-3
549.971008E-3
549.656868E-3
549.401665E-3
549.185371E-3
548.986816E-3
548.694420E-3
548.532486E-3
548.345947E-3
548.200035E-3
548.085594E-3
547.906494E-3
547.777176E-3
547.618675E-3
547.498512E-3
547.337151E-3
547.233582E-3
547.094536E-3
546.980667E-3
547.069359E-3
546.802139E-3
546.621895E-3
546.434212E-3
546.254539E-3
546.062851E-3
545.863724E-3
545.701790E-3
545.554733E-3
545.608521E-3
545.450592E-3
545.306396E-3
545.146179E-3
545.047188E-3
544.959641E-3
544.860649E-3
544.730186E-3
544.556236E-3
544.503593E-3
544.164848E-3
543.909645E-3
543.714523E-3
543.474197E-3
543.277931E-3
542.987823E-3
542.960930E-3
542.985535E-3
543.048477E-3
543.565750E-3
544.727898E-3
547.139168E-3
550.516891E-3
554.362679E-3
558.510017E-3
562.553215E-3
566.103172E-3
568.542480E-3
570.165253E-3
570.955467E-3
570.770073E-3
569.924927E-3
568.557358E-3
566.992950E-3
565.444565E-3
563.941383E-3
562.483978E-3
561.758995E-3
561.130714E-3
560.722160E-3
560.627747E-3
560.596848E-3
560.837173E-3
561.050034E-3
561.237717E-3
561.170197E-3
560.635757E-3
559.649849E-3
558.540344E-3
557.501793E-3
556.503296E-3
555.759430E-3
555.412674E-3
555.216408E-3
555.631828E-3
555.753136E-3
555.930519E-3
556.239510E-3
556.404877E-3
556.506157E-3
556.451225E-3
556.265259E-3
555.926514E-3
555.441856E-3
554.893684E-3
554.255104E-3
553.464890E-3
552.836609E-3
552.238655E-3
551.771164E-3
551.356316E-3
550.772095E-3
550.346375E-3
549.914360E-3
549.565887E-3
549.209976E-3
549.020004E-3
548.760796E-3
548.486137E-3
548.211479E-3
548.081589E-3
548.022652E-3
547.780037E-3
547.647285E-3
547.492790E-3
547.376060E-3
547.278214E-3
547.269630E-3
547.290230E-3
547.110558E-3
547.003555E-3
546.890831E-3
546.837044E-3
546.664238E-3
546.565247E-3
546.485138E-3
546.298027E-3
546.267700E-3
546.046257E-3
545.886040E-3
545.701218E-3
545.633125E-3
545.538139E-3
545.423698E-3
545.273209E-3
545.136452E-3
545.198822E-3
545.020866E-3
544.693565E-3
544.455528E-3
544.193459E-3
543.902779E-3
543.625259E-3
543.350601E-3
543.016434E-3
542.755508E-3
542.705727E-3
542.583275E-3
542.499161E-3
542.420769E-3
542.590714E-3
543.281364E-3
544.957924E-3
547.762299E-3
551.233864E-3
555.008698E-3
558.871651E-3
562.456512E-3
565.275192E-3
567.041016E-3
567.847252E-3
567.787743E-3
567.107391E-3
565.989876E-3
564.495277E-3
562.855911E-3
561.289787E-3
559.935379E-3
558.679390E-3
558.013344E-3
557.427979E-3
557.152176E-3
557.213974E-3
557.287216E-3
557.517815E-3
557.560730E-3
557.330132E-3
556.669235E-3
555.682755E-3
554.742050E-3
554.013062E-3
553.503799E-3
553.405380E-3
553.475189E-3
553.913498E-3
554.442215E-3
554.943466E-3
555.505371E-3
556.050110E-3
556.200027E-3
556.217766E-3
556.092453E-3
556.040955E-3
555.624390E-3
555.309105E-3
554.949188E-3
554.421043E-3
553.745842E-3
553.282928E-3
552.859497E-3
552.431488E-3
551.965141E-3
551.601219E-3
551.187515E-3
551.053619E-3
550.693130E-3
550.366402E-3
550.115776E-3
549.938965E-3
549.662590E-3
549.486351E-3
549.473763E-3
549.377060E-3
549.234581E-3
549.118996E-3
549.105263E-3
548.921013E-3
548.743629E-3
548.636627E-3
548.657227E-3
548.646355E-3
548.578835E-3
548.646355E-3
548.499298E-3
548.622894E-3
548.551941E-3
548.490715E-3
548.487854E-3
548.449516E-3
548.527908E-3
548.486710E-3
548.398018E-3
548.313332E-3
548.326492E-3
548.102760E-3
547.932816E-3
547.686195E-3
547.543716E-3
547.129440E-3
546.788979E-3
546.458817E-3
546.049690E-3
546.035957E-3
545.753860E-3
545.603371E-3
545.624542E-3
545.804214E-3
546.425629E-3
547.777748E-3
550.317764E-3
553.729820E-3
557.788467E-3
561.732101E-3
565.668297E-3
569.024849E-3
571.520805E-3
572.919273E-3
573.539543E-3
573.068619E-3
572.034073E-3
570.750618E-3
569.246864E-3
567.744255E-3
566.223907E-3
565.092659E-3
564.242363E-3
563.698196E-3
563.596344E-3
563.464737E-3
563.553429E-3
563.853264E-3
564.016342E-3
564.174271E-3
563.913345E-3
563.346291E-3
562.403297E-3
561.482620E-3
560.525322E-3
559.754562E-3
559.356880E-3
559.297943E-3
559.451294E-3
559.856415E-3
560.236931E-3
560.597420E-3
560.922432E-3
561.215973E-3
561.410522E-3
561.359024E-3
561.322975E-3
561.190796E-3
560.821152E-3
560.301018E-3
559.660721E-3
559.210968E-3
558.597565E-3
557.827950E-3
557.303810E-3
556.808853E-3
556.284142E-3
555.904770E-3
555.541992E-3
555.237007E-3
555.104828E-3
554.657936E-3
554.292870E-3
553.954124E-3
553.759003E-3
553.494072E-3
553.305817E-3
553.203392E-3
552.870941E-3
552.880096E-3
552.597427E-3
552.535057E-3
552.414894E-3
552.259827E-3
552.186012E-3
551.927948E-3
551.747704E-3
551.607513E-3
551.361465E-3
551.269341E-3
551.106262E-3
551.015854E-3
550.892830E-3
550.732040E-3
550.523758E-3
550.344658E-3
550.127220E-3
549.831390E-3
549.849129E-3
549.921799E-3
549.805069E-3
549.695778E-3
549.672890E-3
549.458885E-3
549.449158E-3
549.349594E-3
548.997116E-3
548.905563E-3
548.560524E-3
548.428345E-3
548.090744E-3
547.797203E-3
547.610092E-3
547.484207E-3
547.588348E-3
547.776031E-3
548.366547E-3
550.035667E-3
552.640343E-3
556.118202E-3
560.101891E-3
564.369965E-3
568.650055E-3
572.106743E-3
574.804115E-3
576.335335E-3
576.786232E-3
576.586533E-3
575.677299E-3
574.311447E-3
572.772217E-3
570.910835E-3
569.601059E-3
568.326187E-3
567.429543E-3
566.854477E-3
566.461945E-3
566.458511E-3
566.491127E-3
566.773224E-3
566.883659E-3
567.000961E-3
566.891098E-3
566.220474E-3
565.218544E-3
564.013481E-3
562.716293E-3
561.824226E-3
561.154747E-3
560.823441E-3
560.725594E-3
560.912132E-3
561.206818E-3
561.519241E-3
561.923790E-3
562.229919E-3
562.388992E-3
562.359238E-3
562.094879E-3
561.856270E-3
561.478043E-3
560.947037E-3
560.309029E-3
559.680748E-3
559.082794E-3
558.438492E-3
557.833672E-3
557.302094E-3
556.744194E-3
556.257820E-3
555.782318E-3
555.447578E-3
555.079079E-3
554.669952E-3
554.404449E-3
554.048538E-3
553.813362E-3
553.572464E-3
553.365326E-3
553.197098E-3
552.921867E-3
552.692413E-3
552.612305E-3
552.356529E-3
552.235222E-3
551.938820E-3
551.887894E-3
551.835251E-3
551.708794E-3
551.629829E-3
551.562309E-3
551.323700E-3
551.203537E-3
550.952339E-3
550.843620E-3
550.728607E-3
550.609016E-3
550.475121E-3
550.413322E-3
550.373268E-3
550.281715E-3
550.146103E-3
550.142670E-3
550.087738E-3
549.958992E-3
549.736404E-3
549.455452E-3
549.295235E-3
549.055481E-3
548.802567E-3
548.586273E-3
548.173141E-3
547.786903E-3
547.386932E-3
547.345161E-3
547.158051E-3
546.976662E-3
546.890831E-3
546.957779E-3
547.773743E-3
549.292946E-3
552.005196E-3
555.547714E-3
559.503937E-3
563.665009E-3
567.600060E-3
570.895958E-3
573.177338E-3
574.168968E-3
574.459648E-3
573.833084E-3
572.646332E-3
571.129990E-3
569.453430E-3
567.839813E-3
566.344070E-3
565.087509E-3
564.416885E-3
563.583183E-3
563.198090E-3
563.017273E-3
563.076210E-3
563.279915E-3
563.261604E-3
563.050461E-3
562.485123E-3
561.758995E-3
560.660934E-3
559.690475E-3
559.260178E-3
558.982086E-3
558.926010E-3
559.201241E-3
559.641838E-3
560.195732E-3
560.811996E-3
561.161613E-3
561.563301E-3
561.692047E-3
561.725807E-3
561.727524E-3
561.511803E-3
561.088943E-3
560.635185E-3
560.287857E-3
559.692192E-3
559.147453E-3
558.477402E-3
557.866859E-3
557.407379E-3
556.922150E-3
556.456375E-3
556.122780E-3
555.883598E-3
555.477333E-3
555.187798E-3
554.870796E-3
554.659081E-3
554.372978E-3
554.148674E-3
554.022217E-3
553.816795E-3
553.720665E-3
553.483772E-3
553.349304E-3
553.299522E-3
553.169632E-3
553.109550E-3
553.040886E-3
552.988243E-3
552.945328E-3
552.830315E-3
552.840042E-3
552.723312E-3
552.616310E-3
552.577400E-3
552.495003E-3
552.461243E-3
552.487564E-3
552.355957E-3
552.269554E-3
552.127075E-3
551.989746E-3
551.896477E-3
551.646996E-3
551.465607E-3
551.284790E-3
551.241875E-3
550.726318E-3
550.406456E-3
550.045395E-3
549.790764E-3
549.473190E-3
549.280357E-3
549.187660E-3
549.260330E-3
549.470901E-3
550.098038E-3
551.751709E-3
554.470253E-3
558.103752E-3
562.219048E-3
566.633606E-3
570.906258E-3
574.463081E-3
577.339554E-3
578.860474E-3
579.331398E-3
578.983498E-3
577.995872E-3
576.572227E-3
574.883652E-3
573.221970E-3
571.764565E-3
570.367241E-3
569.460297E-3
568.691254E-3
568.439484E-3
568.302727E-3
568.368530E-3
568.693542E-3
568.793678E-3
568.900108E-3
568.644333E-3
567.986870E-3
567.004395E-3
565.892601E-3
564.954758E-3
564.121056E-3
563.588905E-3
563.364029E-3
563.487053E-3
563.713646E-3
564.193153E-3
564.582825E-3
565.021706E-3
565.298080E-3
565.603638E-3
565.571022E-3
565.463448E-3
565.147591E-3
564.515305E-3
564.138222E-3
563.525391E-3
562.942886E-3
562.211037E-3
561.610794E-3
561.120415E-3
560.550499E-3
560.021782E-3
559.711075E-3
559.360313E-3
559.067917E-3
558.595276E-3
558.213043E-3
557.946968E-3
557.596207E-3
557.323265E-3
557.120705E-3
557.143593E-3
556.791115E-3
556.480408E-3
556.304741E-3
556.196022E-3
556.037521E-3
555.885315E-3
555.813789E-3
555.590630E-3
555.482483E-3
555.314827E-3
555.278778E-3
555.058479E-3
554.938889E-3
554.799843E-3
554.672813E-3
554.781532E-3
554.368401E-3
554.125214E-3
553.856850E-3
553.647995E-3
553.496361E-3
553.327560E-3
553.275490E-3
553.193665E-3
553.212547E-3
553.116989E-3
553.075218E-3
553.100967E-3
553.059769E-3
552.876663E-3
552.767944E-3
552.462959E-3
552.259254E-3
551.852989E-3
551.748276E-3
551.507378E-3
551.243019E-3
551.018143E-3
550.864220E-3
550.836754E-3
550.960922E-3
551.140594E-3
551.874733E-3
553.432274E-3
556.194878E-3
559.960556E-3
564.188004E-3
568.846321E-3
573.378181E-3
577.282906E-3
580.337906E-3
582.255363E-3
582.829285E-3
582.448196E-3
581.437111E-3
579.915619E-3
577.993584E-3
576.172256E-3
574.490547E-3
573.080063E-3
572.329330E-3
571.510506E-3
570.992088E-3
570.820999E-3
570.822144E-3
571.048737E-3
571.171188E-3
571.256447E-3
571.101379E-3
570.517731E-3
569.579887E-3
568.331337E-3
567.081070E-3
566.144371E-3
565.464592E-3
564.967346E-3
564.735031E-3
564.893532E-3
565.354729E-3
565.486908E-3
565.817642E-3
565.979004E-3
566.046524E-3
566.122055E-3
565.777016E-3
565.557289E-3
565.036583E-3
564.507294E-3
563.797760E-3
562.970924E-3
562.318039E-3
561.507797E-3
560.753059E-3
560.144234E-3
559.453583E-3
558.987808E-3
558.376122E-3
558.081436E-3
557.655144E-3
557.233429E-3
556.954193E-3
556.695557E-3
556.380844E-3
556.112480E-3
555.752563E-3
555.590057E-3
555.324554E-3
555.077362E-3
554.843330E-3
554.637909E-3
554.586411E-3
554.433060E-3
554.332352E-3
554.189301E-3
554.101753E-3
553.956985E-3
553.683472E-3
553.483200E-3
553.368187E-3
553.129005E-3
553.005409E-3
552.560234E-3
552.441216E-3
552.299881E-3
552.046967E-3
551.801491E-3
551.596642E-3
551.474762E-3
551.334572E-3
551.167488E-3
551.097679E-3
550.998116E-3
550.836182E-3
550.667381E-3
550.601006E-3
550.462532E-3
550.257111E-3
549.987030E-3
549.732399E-3
549.060631E-3
548.925591E-3
548.602867E-3
548.354530E-3
548.083878E-3
547.931099E-3
547.807503E-3
547.739410E-3
547.619820E-3
548.063278E-3
549.262047E-3
551.748276E-3
555.073357E-3
559.033585E-3
563.323975E-3
567.613220E-3
571.319389E-3
574.186707E-3
575.871277E-3
576.631165E-3
576.167679E-3
575.193787E-3
573.709488E-3
571.895027E-3
570.011330E-3
568.101311E-3
566.605568E-3
565.240860E-3
564.397430E-3
563.879585E-3
563.631821E-3
563.554573E-3
563.632965E-3
563.745117E-3
563.780022E-3
563.381767E-3
562.649345E-3
561.579895E-3
560.761642E-3
560.110474E-3
559.649849E-3
559.531975E-3
559.762573E-3
560.341644E-3
560.957909E-3
561.654854E-3
562.058258E-3
562.409592E-3
562.677383E-3
562.874222E-3
562.797546E-3
562.629318E-3
562.234497E-3
561.773872E-3
561.486626E-3
560.682106E-3
560.107040E-3
559.576607E-3
558.963203E-3
558.373833E-3
557.948112E-3
557.620811E-3
557.215118E-3
556.955338E-3
556.605721E-3
556.210327E-3
555.978584E-3
555.731392E-3
555.662727E-3
555.520821E-3
555.289078E-3
555.099106E-3
555.156898E-3
554.941177E-3
554.786682E-3
554.624176E-3
554.618454E-3
554.507446E-3
554.397583E-3
554.188728E-3
554.110336E-3
554.114342E-3
553.959846E-3
553.799057E-3
553.823090E-3
553.611946E-3
553.420830E-3
553.265762E-3
553.211975E-3
553.090096E-3
552.961922E-3
552.840042E-3
552.769089E-3
552.624893E-3
552.464676E-3
552.168274E-3
551.984596E-3
551.818085E-3
551.334000E-3
551.093102E-3
550.756073E-3
550.485420E-3
550.318336E-3
550.018501E-3
549.910927E-3
549.801636E-3
549.740982E-3
550.102615E-3
551.185226E-3
553.419685E-3
556.410599E-3
560.333633E-3
564.674950E-3
569.036865E-3
573.209381E-3
576.482964E-3
578.955460E-3
580.195999E-3
580.250359E-3
579.464149E-3
578.089714E-3
576.374245E-3
574.387550E-3
572.557640E-3
570.859909E-3
569.565010E-3
568.558502E-3
567.930794E-3
567.626381E-3
567.504501E-3
567.580032E-3
567.795181E-3
567.883873E-3
567.747116E-3
567.623520E-3
566.849327E-3
565.917206E-3
564.910698E-3
564.094734E-3
563.505936E-3
563.186073E-3
563.013268E-3
562.846756E-3
563.351440E-3
563.765717E-3
564.201164E-3
564.764214E-3
564.976501E-3
565.094376E-3
565.219116E-3
565.184784E-3
564.732742E-3
564.499283E-3
563.980865E-3
563.481331E-3
562.925148E-3
562.291718E-3
561.710930E-3
561.208534E-3
560.705566E-3
560.191727E-3
559.853554E-3
559.430122E-3
559.186363E-3
558.927727E-3
558.651352E-3
558.418465E-3
558.129501E-3
557.910919E-3
557.537842E-3
557.532692E-3
557.473183E-3
557.430267E-3
557.315826E-3
557.283211E-3
557.120132E-3
556.997108E-3
556.983376E-3
557.073212E-3
556.891823E-3
556.681824E-3
556.542206E-3
556.362534E-3
556.161118E-3
555.942535E-3
555.743408E-3
555.614090E-3
555.381775E-3
555.043030E-3
554.910851E-3
554.701996E-3
554.573822E-3
554.378700E-3
554.327202E-3
554.438782E-3
554.236794E-3
554.108620E-3
554.067421E-3
553.886032E-3
553.714371E-3
553.518105E-3
553.226280E-3
553.034592E-3
552.515030E-3
552.416039E-3
552.194595E-3
551.829529E-3
551.572609E-3
551.334572E-3
