Notes :


2023-11-04 ¿ÀÈÄ 6:46:46
Volts
Ch : LED 2,
318.310547E-3
317.974663E-3
317.461395E-3
317.225647E-3
317.018509E-3
316.969299E-3
317.142677E-3
317.118645E-3
317.365837E-3
317.447090E-3
317.413330E-3
317.454529E-3
317.106628E-3
316.775894E-3
316.384506E-3
315.843773E-3
315.520477E-3
314.990044E-3
314.533997E-3
314.044762E-3
313.431358E-3
312.939835E-3
312.300110E-3
311.881828E-3
311.511040E-3
311.290741E-3
311.250114E-3
311.148834E-3
311.216927E-3
311.297607E-3
311.051559E-3
311.089325E-3
310.950279E-3
310.893631E-3
310.767174E-3
310.681343E-3
310.725975E-3
310.542870E-3
310.622406E-3
310.472488E-3
310.351753E-3
310.409546E-3
310.164642E-3
309.977531E-3
309.771538E-3
309.398460E-3
309.172440E-3
308.916092E-3
308.703804E-3
308.502960E-3
308.311272E-3
308.463478E-3
308.379364E-3
308.472633E-3
308.447456E-3
308.174515E-3
308.092690E-3
307.866669E-3
307.808876E-3
307.818604E-3
307.691574E-3
307.641220E-3
307.445526E-3
307.240677E-3
307.066727E-3
306.876755E-3
306.774330E-3
306.616974E-3
306.633568E-3
306.818390E-3
307.084465E-3
307.992554E-3
309.478569E-3
311.559105E-3
314.177513E-3
316.756439E-3
319.555664E-3
321.840477E-3
323.707008E-3
324.869156E-3
325.285721E-3
325.170135E-3
324.523544E-3
323.424339E-3
322.269058E-3
321.017647E-3
319.990540E-3
318.828392E-3
317.946053E-3
317.444229E-3
316.973305E-3
316.866302E-3
316.721535E-3
316.808510E-3
317.047119E-3
317.070580E-3
317.052841E-3
316.744995E-3
316.378212E-3
316.001701E-3
315.562248E-3
315.355682E-3
315.059280E-3
315.005493E-3
315.184593E-3
315.382576E-3
315.759087E-3
316.105843E-3
316.316414E-3
316.427994E-3
316.335869E-3
316.129303E-3
315.707588E-3
315.290451E-3
314.925957E-3
314.386940E-3
313.994408E-3
313.492012E-3
312.942123E-3
312.601089E-3
312.180519E-3
311.878395E-3
311.561966E-3
311.289024E-3
311.218643E-3
310.939980E-3
310.935974E-3
310.820961E-3
310.685349E-3
310.783768E-3
310.662460E-3
310.637283E-3
310.552025E-3
310.552025E-3
310.527420E-3
310.416412E-3
310.432434E-3
310.345459E-3
310.232162E-3
310.291672E-3
310.110283E-3
310.111427E-3
309.917450E-3
309.867096E-3
309.908867E-3
309.696579E-3
309.749222E-3
309.574127E-3
309.401321E-3
309.320641E-3
309.139824E-3
309.160995E-3
308.911514E-3
308.811378E-3
308.823395E-3
308.684921E-3
308.580208E-3
308.399963E-3
308.294678E-3
308.208847E-3
307.859802E-3
307.647514E-3
307.426643E-3
307.340240E-3
307.367706E-3
307.237816E-3
307.432365E-3
307.819748E-3
308.823395E-3
310.553169E-3
312.585640E-3
315.191460E-3
317.778969E-3
320.130157E-3
322.123718E-3
323.547935E-3
324.248886E-3
324.256897E-3
323.818016E-3
322.963142E-3
321.574974E-3
320.376778E-3
319.029808E-3
317.930603E-3
317.095184E-3
316.177368E-3
315.656662E-3
315.374565E-3
315.237808E-3
315.257835E-3
315.159416E-3
315.241241E-3
315.016937E-3
314.721680E-3
314.400673E-3
313.989830E-3
313.833046E-3
313.720894E-3
313.782692E-3
314.029884E-3
314.398384E-3
314.903069E-3
315.300751E-3
315.577126E-3
315.732193E-3
315.701866E-3
315.597153E-3
315.345955E-3
315.067291E-3
314.682198E-3
314.143753E-3
313.795853E-3
313.279724E-3
312.845993E-3
312.440872E-3
311.892128E-3
311.494446E-3
311.061859E-3
310.736275E-3
310.542870E-3
310.368919E-3
310.329437E-3
310.306549E-3
310.096550E-3
310.043335E-3
309.827614E-3
309.895134E-3
309.795570E-3
309.625626E-3
309.690285E-3
309.526062E-3
309.663391E-3
309.598160E-3
309.496880E-3
309.522629E-3
309.335518E-3
309.361267E-3
309.332657E-3
309.229660E-3
309.253693E-3
309.144402E-3
309.145546E-3
309.052277E-3
308.984184E-3
308.962440E-3
308.721542E-3
308.651733E-3
308.607674E-3
308.461761E-3
308.153343E-3
307.803726E-3
307.634926E-3
307.276154E-3
306.998062E-3
306.883621E-3
306.631851E-3
306.559753E-3
306.590652E-3
306.801224E-3
307.674408E-3
308.987617E-3
311.069870E-3
313.429642E-3
315.850639E-3
318.625259E-3
320.808792E-3
322.622681E-3
323.705292E-3
324.155617E-3
324.079514E-3
323.249817E-3
322.185516E-3
320.951843E-3
319.685555E-3
318.664742E-3
317.617607E-3
316.936684E-3
316.393089E-3
315.966225E-3
315.814018E-3
315.721893E-3
315.771103E-3
315.848351E-3
315.910721E-3
315.846634E-3
315.505600E-3
315.086174E-3
314.704514E-3
314.366913E-3
314.223862E-3
314.036751E-3
314.241028E-3
314.480209E-3
314.782906E-3
315.169716E-3
315.386009E-3
315.681839E-3
315.624046E-3
315.402603E-3
315.287590E-3
314.811516E-3
314.546585E-3
314.103699E-3
313.694572E-3
313.335228E-3
312.765884E-3
312.376785E-3
311.951065E-3
311.499023E-3
311.141396E-3
310.701370E-3
310.553169E-3
310.388947E-3
310.303116E-3
310.422707E-3
310.202980E-3
310.201263E-3
310.145187E-3
310.061073E-3
309.932899E-3
309.818459E-3
309.831047E-3
309.821320E-3
309.714890E-3
309.793854E-3
309.741783E-3
309.683990E-3
309.570122E-3
309.494591E-3
309.544373E-3
309.340096E-3
309.285164E-3
309.170151E-3
309.101486E-3
309.075165E-3
308.941269E-3
308.857155E-3
308.772469E-3
308.648300E-3
308.637428E-3
308.450317E-3
308.354187E-3
308.251190E-3
307.981110E-3
307.872391E-3
307.463837E-3
307.237816E-3
306.976318E-3
306.599236E-3
306.564331E-3
306.390953E-3
306.303406E-3
306.445885E-3
306.881905E-3
307.936478E-3
309.507751E-3
311.707306E-3
314.212990E-3
316.727829E-3
319.256401E-3
321.256256E-3
322.746849E-3
323.477554E-3
323.599434E-3
323.252106E-3
322.352600E-3
321.277428E-3
320.117569E-3
318.802643E-3
317.808151E-3
316.910934E-3
316.254044E-3
315.781975E-3
315.462685E-3
315.387154E-3
315.372849E-3
315.585136E-3
315.686417E-3
315.645790E-3
315.628624E-3
315.085030E-3
314.685059E-3
314.362335E-3
314.016724E-3
313.911438E-3
313.833618E-3
314.013290E-3
314.319420E-3
314.618111E-3
314.991188E-3
315.177155E-3
315.383148E-3
315.310478E-3
315.081024E-3
314.775467E-3
314.432716E-3
314.040184E-3
313.694000E-3
313.163567E-3
312.825966E-3
312.325859E-3
311.960793E-3
311.565971E-3
311.117935E-3
310.804367E-3
310.550880E-3
310.346603E-3
310.319710E-3
310.235023E-3
310.291672E-3
310.215569E-3
310.132027E-3
310.003853E-3
309.865952E-3
309.932327E-3
309.891701E-3
309.912872E-3
309.974098E-3
309.868813E-3
309.931183E-3
309.849358E-3
309.906006E-3
309.902573E-3
309.705162E-3
309.584427E-3
309.483147E-3
309.393311E-3
309.511185E-3
309.414482E-3
309.380722E-3
309.256554E-3
309.213066E-3
309.276581E-3
309.112358E-3
309.075165E-3
308.992195E-3
308.877754E-3
308.716393E-3
308.423424E-3
308.276367E-3
308.028030E-3
307.810593E-3
307.666397E-3
307.420349E-3
307.438087E-3
307.291603E-3
307.383728E-3
307.585144E-3
307.986259E-3
309.304047E-3
310.920525E-3
313.212204E-3
315.775108E-3
318.244171E-3
320.670891E-3
322.512817E-3
323.719597E-3
324.213982E-3
324.078369E-3
323.681831E-3
322.686195E-3
321.530914E-3
320.394516E-3
319.119644E-3
318.281937E-3
317.352676E-3
316.739845E-3
316.545296E-3
316.220284E-3
316.331863E-3
316.455460E-3
316.503525E-3
316.577339E-3
316.460609E-3
316.195107E-3
315.827751E-3
315.357971E-3
315.192032E-3
315.009499E-3
315.103912E-3
315.216637E-3
315.550232E-3
315.906143E-3
316.231728E-3
316.659737E-3
316.851425E-3
316.868019E-3
316.791916E-3
316.400528E-3
316.093254E-3
315.723610E-3
315.283012E-3
315.000916E-3
314.492226E-3
314.144325E-3
313.732338E-3
313.375282E-3
313.112640E-3
312.661743E-3
312.395668E-3
312.236595E-3
312.114143E-3
312.128448E-3
312.068939E-3
312.108421E-3
312.018585E-3
311.828041E-3
311.785698E-3
311.616325E-3
311.731339E-3
311.735916E-3
311.623764E-3
311.789131E-3
311.676979E-3
311.662102E-3
311.557388E-3
311.463547E-3
311.465263E-3
311.366272E-3
311.305618E-3
311.239815E-3
311.107063E-3
311.113358E-3
310.917091E-3
310.954285E-3
310.745430E-3
310.541153E-3
310.406685E-3
310.135460E-3
309.826469E-3
309.529495E-3
309.250259E-3
308.872604E-3
308.577347E-3
308.544731E-3
308.438873E-3
308.388519E-3
308.472061E-3
308.755875E-3
309.758377E-3
311.244965E-3
313.167000E-3
315.530777E-3
317.900848E-3
320.205688E-3
322.124863E-3
323.338509E-3
324.095535E-3
323.973083E-3
323.598289E-3
322.672462E-3
321.500587E-3
320.372772E-3
319.191742E-3
318.227577E-3
317.416763E-3
316.873169E-3
316.544724E-3
316.199684E-3
316.076660E-3
316.076660E-3
316.133881E-3
316.091537E-3
315.773392E-3
315.487862E-3
315.040398E-3
314.670181E-3
314.525414E-3
314.334869E-3
314.517403E-3
314.768600E-3
314.967728E-3
315.480423E-3
315.737915E-3
316.122437E-3
316.320992E-3
316.260910E-3
316.123581E-3
315.732193E-3
315.460396E-3
315.048409E-3
314.536858E-3
314.156342E-3
313.663101E-3
313.286018E-3
312.811089E-3
312.333870E-3
311.999130E-3
311.622620E-3
311.481285E-3
311.206055E-3
310.980034E-3
310.991478E-3
310.974312E-3
310.946274E-3
310.966301E-3
310.876465E-3
310.910797E-3
310.755730E-3
310.778618E-3
310.703659E-3
310.642433E-3
310.674477E-3
310.555458E-3
310.634422E-3
310.635567E-3
310.496521E-3
310.523415E-3
310.279655E-3
310.186386E-3
310.109711E-3
309.988403E-3
310.064507E-3
309.897995E-3
309.943771E-3
309.849930E-3
309.600449E-3
309.753799E-3
309.509468E-3
309.321213E-3
309.127235E-3
308.817101E-3
308.583641E-3
308.333588E-3
308.102417E-3
307.840347E-3
307.531929E-3
307.541656E-3
307.404900E-3
307.379723E-3
307.650948E-3
308.262634E-3
309.658813E-3
311.508751E-3
313.854218E-3
316.393661E-3
318.947983E-3
321.401024E-3
323.202896E-3
324.319267E-3
324.774742E-3
324.541855E-3
324.088097E-3
322.977448E-3
321.835899E-3
320.646858E-3
319.404602E-3
318.624115E-3
317.944908E-3
317.520905E-3
317.284584E-3
317.170715E-3
317.290306E-3
317.460251E-3
317.613602E-3
317.824745E-3
317.681122E-3
317.559242E-3
317.047119E-3
316.595078E-3
316.105270E-3
315.700722E-3
315.649223E-3
315.551376E-3
315.725327E-3
316.076088E-3
316.231155E-3
316.587067E-3
316.678047E-3
316.742706E-3
316.664314E-3
316.338730E-3
316.112137E-3
315.644073E-3
315.299606E-3
314.999771E-3
314.452171E-3
314.166641E-3
313.735771E-3
313.319778E-3
313.006210E-3
312.613106E-3
312.382507E-3
312.123299E-3
311.979675E-3
311.928749E-3
311.836052E-3
311.777687E-3
311.721039E-3
311.613464E-3
311.488724E-3
311.360550E-3
311.409760E-3
311.303902E-3
311.287308E-3
311.272430E-3
311.252403E-3
311.253548E-3
311.178589E-3
311.129379E-3
311.213493E-3
310.895348E-3
310.817528E-3
310.743141E-3
310.720253E-3
310.660744E-3
310.483360E-3
310.553741E-3
310.454178E-3
310.311699E-3
310.256767E-3
310.097122E-3
309.983826E-3
309.673691E-3
309.546661E-3
309.326935E-3
308.944702E-3
308.671761E-3
308.357048E-3
308.140755E-3
308.011436E-3
307.949066E-3
307.978249E-3
307.989693E-3
308.218002E-3
308.928680E-3
310.094833E-3
311.912155E-3
314.161491E-3
316.704369E-3
319.334221E-3
321.526337E-3
323.432350E-3
324.516678E-3
324.878883E-3
324.834251E-3
324.026299E-3
323.187447E-3
321.988106E-3
320.804214E-3
319.829750E-3
318.801498E-3
318.326569E-3
317.805290E-3
317.685699E-3
317.767525E-3
317.693138E-3
317.991257E-3
318.239021E-3
318.208122E-3
318.206978E-3
317.739487E-3
317.364693E-3
316.811371E-3
316.371918E-3
316.086388E-3
315.798569E-3
315.957642E-3
316.189384E-3
316.609955E-3
317.032814E-3
317.238808E-3
317.419052E-3
317.346954E-3
317.233086E-3
316.958427E-3
316.496086E-3
316.207695E-3
315.871239E-3
315.619469E-3
315.328789E-3
314.822388E-3
314.475060E-3
314.073372E-3
313.707161E-3
313.486290E-3
313.098335E-3
312.931824E-3
312.874603E-3
312.796211E-3
312.760735E-3
312.710953E-3
312.677765E-3
312.614250E-3
312.449455E-3
312.438583E-3
312.394524E-3
312.408829E-3
312.419128E-3
312.400246E-3
312.459755E-3
312.310982E-3
312.372208E-3
312.276077E-3
312.068939E-3
312.041473E-3
312.012291E-3
311.959648E-3
311.896706E-3
311.858940E-3
311.917877E-3
311.751938E-3
311.683273E-3
311.519051E-3
311.357689E-3
311.325073E-3
311.014366E-3
310.844994E-3
310.640144E-3
310.403824E-3
310.240173E-3
309.911156E-3
309.817886E-3
309.502602E-3
309.385300E-3
309.413910E-3
309.370422E-3
309.511185E-3
309.829330E-3
310.644722E-3
312.158775E-3
314.040184E-3
316.536140E-3
319.008636E-3
321.312332E-3
323.331642E-3
324.725533E-3
325.328064E-3
325.297737E-3
324.589348E-3
323.701859E-3
322.447586E-3
321.323776E-3
320.159340E-3
319.186592E-3
318.463898E-3
317.884827E-3
317.555809E-3
317.449951E-3
317.459106E-3
317.600441E-3
317.606735E-3
317.824173E-3
317.677116E-3
317.274857E-3
316.845131E-3
316.243172E-3
315.924454E-3
315.731621E-3
315.733337E-3
316.010857E-3
316.161346E-3
316.671753E-3
317.096901E-3
317.383575E-3
317.601013E-3
317.400742E-3
317.269707E-3
316.960144E-3
316.461182E-3
316.052055E-3
315.581131E-3
315.325356E-3
314.881897E-3
314.425278E-3
314.027596E-3
313.430786E-3
313.082314E-3
312.746429E-3
312.372208E-3
312.294960E-3
312.079239E-3
311.959076E-3
311.915588E-3
311.923027E-3
311.842346E-3
311.699295E-3
311.605453E-3
311.450958E-3
311.340523E-3
311.256981E-3
311.153984E-3
311.129379E-3
311.115646E-3
311.074448E-3
311.174011E-3
310.910797E-3
310.866737E-3
310.759735E-3
310.635567E-3
310.671616E-3
310.586357E-3
310.607529E-3
310.453033E-3
310.330009E-3
310.303688E-3
309.968376E-3
309.805298E-3
309.595871E-3
309.194183E-3
308.991051E-3
308.641434E-3
308.408546E-3
308.264351E-3
307.882118E-3
307.869530E-3
307.796860E-3
307.948494E-3
308.172226E-3
308.968163E-3
310.423851E-3
312.305260E-3
314.726257E-3
317.247391E-3
319.597435E-3
321.867371E-3
323.264694E-3
324.168777E-3
324.516678E-3
323.958778E-3
323.338509E-3
322.151184E-3
321.030807E-3
319.926453E-3
318.884468E-3
318.310547E-3
317.716599E-3
317.441940E-3
317.278862E-3
317.290878E-3
317.427063E-3
317.512894E-3
317.725754E-3
317.786407E-3
317.530060E-3
317.185020E-3
316.636848E-3
316.093254E-3
315.633774E-3
315.142822E-3
315.115356E-3
315.150261E-3
315.344810E-3
315.575981E-3
315.884972E-3
316.145325E-3
316.163063E-3
316.183662E-3
316.030884E-3
315.667534E-3
315.498734E-3
314.938545E-3
314.540291E-3
314.171219E-3
313.778687E-3
313.422775E-3
312.870598E-3
312.436295E-3
312.104416E-3
311.766243E-3
311.558533E-3
311.275291E-3
311.193466E-3
311.182594E-3
311.022949E-3
311.039543E-3
310.841560E-3
310.762596E-3
310.767174E-3
310.652733E-3
310.619545E-3
310.487938E-3
310.420990E-3
310.457611E-3
310.378075E-3
310.370636E-3
310.208702E-3
310.153198E-3
310.129166E-3
309.970665E-3
309.880829E-3
309.837341E-3
309.758949E-3
309.745216E-3
309.527206E-3
309.602737E-3
309.401321E-3
309.380150E-3
309.165001E-3
308.885193E-3
308.809090E-3
308.660889E-3
308.388519E-3
308.063507E-3
307.753944E-3
307.471275E-3
307.367706E-3
307.177162E-3
307.022667E-3
306.911087E-3
307.019234E-3
307.109642E-3
307.741928E-3
308.941841E-3
310.512543E-3
312.852859E-3
315.342522E-3
317.899132E-3
320.270348E-3
321.958351E-3
323.119354E-3
323.566246E-3
323.375130E-3
322.786903E-3
321.906853E-3
320.875168E-3
319.684410E-3
318.603516E-3
317.808151E-3
317.057991E-3
316.701508E-3
316.459465E-3
316.440582E-3
316.555023E-3
