Notes :


2023-11-04 ¿ÀÈÄ 7:01:46
Volts
Ch : LED 2,
501.034355E-3
501.119614E-3
501.022911E-3
500.498199E-3
499.538612E-3
498.526955E-3
497.930145E-3
497.597122E-3
497.523308E-3
498.011398E-3
498.153305E-3
498.672867E-3
499.133492E-3
499.483681E-3
499.761200E-3
499.679375E-3
499.495697E-3
499.163818E-3
498.532677E-3
497.940445E-3
497.265816E-3
496.623802E-3
495.712852E-3
494.933510E-3
494.353294E-3
493.849182E-3
493.226624E-3
492.561150E-3
492.096519E-3
491.863060E-3
491.580963E-3
491.298294E-3
491.046524E-3
490.863419E-3
490.827942E-3
490.386772E-3
490.219116E-3
489.995384E-3
489.981079E-3
489.999390E-3
489.871216E-3
489.795685E-3
489.701271E-3
489.425468E-3
489.373970E-3
489.299011E-3
489.202881E-3
488.927650E-3
488.652992E-3
488.491631E-3
488.369179E-3
488.172340E-3
487.932014E-3
487.709999E-3
487.629318E-3
487.378120E-3
487.153244E-3
487.011909E-3
486.749840E-3
486.596489E-3
486.197662E-3
485.866356E-3
485.371971E-3
484.926796E-3
484.661293E-3
484.296799E-3
483.910561E-3
483.564949E-3
483.491135E-3
483.598709E-3
483.861351E-3
484.912491E-3
487.066269E-3
490.237999E-3
494.165039E-3
498.440552E-3
502.712059E-3
506.409645E-3
509.478378E-3
511.289406E-3
511.988640E-3
511.564636E-3
510.302353E-3
508.515358E-3
506.460571E-3
504.374886E-3
502.684021E-3
501.314735E-3
500.225258E-3
499.712563E-3
499.322319E-3
499.336624E-3
499.499130E-3
499.775505E-3
500.162315E-3
500.573158E-3
500.504494E-3
500.058746E-3
499.174690E-3
498.227692E-3
497.375107E-3
496.850967E-3
496.477890E-3
496.372604E-3
496.652985E-3
496.876717E-3
497.324181E-3
497.649193E-3
497.882080E-3
498.065758E-3
497.919846E-3
497.597122E-3
497.170830E-3
496.512222E-3
495.924568E-3
495.121193E-3
494.361305E-3
493.605995E-3
492.819214E-3
492.217255E-3
491.724014E-3
491.130638E-3
490.683174E-3
490.251732E-3
489.892387E-3
489.612579E-3
489.340210E-3
489.062691E-3
488.896179E-3
488.838387E-3
488.492775E-3
488.199234E-3
488.178062E-3
488.003540E-3
487.977791E-3
487.782097E-3
487.687111E-3
487.581253E-3
487.425041E-3
487.190437E-3
486.983871E-3
486.831665E-3
486.646843E-3
486.349297E-3
486.099243E-3
485.932159E-3
485.644913E-3
485.486984E-3
485.143661E-3
485.048103E-3
484.711647E-3
484.459305E-3
484.204102E-3
483.853340E-3
483.596992E-3
483.294868E-3
482.807350E-3
482.683182E-3
482.354736E-3
482.065773E-3
481.789398E-3
481.445503E-3
481.059265E-3
480.626106E-3
480.421829E-3
480.258751E-3
480.228424E-3
480.242729E-3
480.596352E-3
481.831169E-3
484.012413E-3
487.377548E-3
491.501427E-3
495.395279E-3
499.442482E-3
502.844238E-3
505.315590E-3
506.603050E-3
506.669426E-3
505.727005E-3
504.098511E-3
501.915550E-3
499.864769E-3
497.872925E-3
496.120834E-3
494.698334E-3
493.686104E-3
493.103027E-3
492.795181E-3
492.786026E-3
493.067551E-3
493.275261E-3
493.545341E-3
493.634033E-3
493.424606E-3
492.649269E-3
491.872215E-3
491.180420E-3
490.657997E-3
490.389633E-3
490.405655E-3
490.683174E-3
491.271973E-3
491.721725E-3
492.227554E-3
492.580605E-3
492.745399E-3
492.701912E-3
492.407799E-3
491.965485E-3
491.274834E-3
490.528679E-3
489.682388E-3
488.927650E-3
488.104248E-3
487.255669E-3
486.558723E-3
485.779953E-3
485.395432E-3
484.993172E-3
484.632683E-3
484.301949E-3
484.073639E-3
483.717728E-3
483.511162E-3
483.373260E-3
483.469963E-3
483.247948E-3
483.102608E-3
483.046532E-3
482.958412E-3
482.971573E-3
482.928658E-3
482.867432E-3
482.881737E-3
482.827377E-3
482.739830E-3
482.802773E-3
482.696915E-3
482.628250E-3
482.541275E-3
482.483482E-3
482.489204E-3
482.296944E-3
482.172775E-3
482.085800E-3
481.976509E-3
481.831741E-3
481.688690E-3
481.603432E-3
481.383705E-3
481.262970E-3
481.077576E-3
480.809784E-3
480.614662E-3
480.283356E-3
479.929733E-3
479.551506E-3
479.243660E-3
479.240227E-3
479.330063E-3
479.155540E-3
479.163551E-3
479.380989E-3
480.274200E-3
481.998825E-3
484.929085E-3
488.513374E-3
492.410088E-3
496.380615E-3
500.071907E-3
502.976990E-3
504.783440E-3
505.352783E-3
505.114746E-3
503.829002E-3
502.080345E-3
500.078201E-3
498.165321E-3
496.489906E-3
494.960976E-3
493.747902E-3
493.010902E-3
492.616081E-3
492.507935E-3
492.614937E-3
492.858124E-3
493.279266E-3
493.347359E-3
493.230629E-3
492.739105E-3
492.021561E-3
491.489983E-3
491.133499E-3
491.012764E-3
491.168976E-3
491.499710E-3
492.118263E-3
492.677879E-3
493.310165E-3
493.695259E-3
494.020271E-3
494.046593E-3
493.794250E-3
493.341637E-3
492.760849E-3
492.152596E-3
491.504288E-3
490.657425E-3
489.891815E-3
489.248085E-3
488.563728E-3
487.991524E-3
487.387848E-3
486.830521E-3
486.425400E-3
486.100388E-3
485.922432E-3
485.686111E-3
485.634613E-3
485.553360E-3
485.666084E-3
485.584831E-3
485.402870E-3
485.424042E-3
485.572815E-3
485.451508E-3
485.482407E-3
485.489845E-3
485.526466E-3
485.688972E-3
485.589409E-3
485.557938E-3
485.466957E-3
485.341644E-3
485.367966E-3
485.307312E-3
485.192299E-3
485.028076E-3
485.002327E-3
484.778023E-3
484.526825E-3
484.470177E-3
484.209251E-3
484.148026E-3
483.897972E-3
483.711433E-3
483.475685E-3
483.479691E-3
483.047104E-3
482.592201E-3
482.258034E-3
482.072067E-3
481.778526E-3
481.420326E-3
481.148529E-3
480.836105E-3
480.756569E-3
480.654144E-3
480.861282E-3
481.832314E-3
483.700562E-3
486.719513E-3
490.437698E-3
494.511795E-3
498.853111E-3
502.833366E-3
506.089783E-3
508.067322E-3
508.949089E-3
508.751106E-3
507.653046E-3
506.118965E-3
504.162598E-3
501.986504E-3
500.049591E-3
498.504066E-3
497.422028E-3
496.594620E-3
496.232986E-3
496.213531E-3
496.298218E-3
496.711349E-3
496.931076E-3
497.100449E-3
497.187424E-3
496.847534E-3
496.270180E-3
495.499420E-3
494.777870E-3
494.176483E-3
493.912697E-3
493.816566E-3
493.908119E-3
494.264030E-3
494.628525E-3
495.063400E-3
495.450211E-3
495.593262E-3
495.692253E-3
495.335770E-3
495.133781E-3
494.881439E-3
494.369316E-3
493.725586E-3
492.952538E-3
492.166901E-3
491.386414E-3
490.624809E-3
490.118980E-3
489.483833E-3
488.893890E-3
488.580322E-3
488.113403E-3
487.789536E-3
487.557793E-3
487.182999E-3
487.051964E-3
486.777306E-3
486.616516E-3
486.489487E-3
486.309242E-3
486.245728E-3
486.039162E-3
485.995102E-3
486.175346E-3
485.931015E-3
485.682106E-3
485.471535E-3
485.385132E-3
485.281563E-3
485.044098E-3
484.905052E-3
484.644699E-3
484.472466E-3
484.261894E-3
483.964920E-3
483.755493E-3
483.401871E-3
483.189583E-3
482.951546E-3
482.629967E-3
482.505226E-3
482.365036E-3
482.015991E-3
481.535339E-3
481.303024E-3
480.968285E-3
480.657578E-3
480.211258E-3
479.937172E-3
479.532623E-3
479.199028E-3
478.826523E-3
478.460312E-3
478.329277E-3
478.256607E-3
478.244019E-3
478.614235E-3
479.659653E-3
481.837463E-3
484.884453E-3
488.854980E-3
492.970276E-3
496.973419E-3
500.261879E-3
502.513504E-3
503.723145E-3
503.671074E-3
502.853966E-3
501.374817E-3
499.421310E-3
497.408295E-3
495.399857E-3
493.715286E-3
492.457581E-3
491.345787E-3
490.545273E-3
490.387917E-3
490.375328E-3
490.538406E-3
490.837669E-3
491.115189E-3
491.275978E-3
491.061401E-3
490.513802E-3
489.655495E-3
489.202881E-3
488.769150E-3
488.628960E-3
488.643837E-3
488.866425E-3
489.274979E-3
489.779091E-3
490.271187E-3
490.429687E-3
490.629959E-3
490.567589E-3
490.374184E-3
489.891815E-3
489.291573E-3
488.626671E-3
487.905693E-3
487.189865E-3
486.578751E-3
485.811996E-3
485.076714E-3
484.511948E-3
484.095383E-3
483.485985E-3
483.028221E-3
482.696915E-3
482.536697E-3
482.374763E-3
482.080650E-3
481.970787E-3
481.849480E-3
481.694412E-3
481.723595E-3
481.652069E-3
481.516457E-3
481.406593E-3
481.586838E-3
481.439781E-3
481.335640E-3
481.395721E-3
481.256104E-3
481.368256E-3
481.268692E-3
481.187439E-3
481.130791E-3
481.129646E-3
481.050682E-3
481.062126E-3
480.956841E-3
480.864143E-3
480.681610E-3
480.539131E-3
480.197525E-3
480.134583E-3
480.061913E-3
479.895973E-3
479.750061E-3
479.528618E-3
479.271698E-3
479.011917E-3
478.646278E-3
478.053474E-3
478.111267E-3
478.023148E-3
478.020287E-3
477.980232E-3
478.169060E-3
478.765869E-3
480.278206E-3
482.764435E-3
485.887527E-3
489.763069E-3
493.532753E-3
497.038078E-3
499.936295E-3
501.682091E-3
502.451134E-3
502.172470E-3
501.104164E-3
499.425888E-3
497.649193E-3
495.833015E-3
494.241142E-3
492.747688E-3
491.678810E-3
490.866852E-3
490.571594E-3
490.321541E-3
490.170479E-3
490.492058E-3
490.720940E-3
490.912056E-3
490.710640E-3
490.216827E-3
489.668083E-3
489.252663E-3
489.116478E-3
489.286995E-3
489.350510E-3
489.797401E-3
490.421677E-3
491.198730E-3
491.852760E-3
492.243576E-3
492.566299E-3
492.631531E-3
492.443275E-3
492.051315E-3
491.527748E-3
490.917778E-3
490.235710E-3
489.438629E-3
488.665581E-3
487.971497E-3
487.268829E-3
486.648560E-3
486.170769E-3
485.767937E-3
485.449791E-3
485.241508E-3
484.972000E-3
484.700203E-3
484.781456E-3
484.537697E-3
484.569168E-3
484.494209E-3
484.355164E-3
484.462738E-3
484.473610E-3
484.478188E-3
484.336853E-3
484.430122E-3
484.375191E-3
484.228134E-3
484.308815E-3
484.235573E-3
484.148026E-3
484.095383E-3
483.910561E-3
483.847618E-3
483.571815E-3
483.500862E-3
483.405304E-3
483.183289E-3
483.146095E-3
482.939529E-3
482.763290E-3
482.653427E-3
482.481194E-3
482.149315E-3
482.048607E-3
481.967354E-3
481.780243E-3
481.441498E-3
481.108475E-3
480.820084E-3
480.502510E-3
480.158043E-3
479.780388E-3
479.777527E-3
479.780960E-3
479.763222E-3
480.085945E-3
480.923653E-3
482.980728E-3
486.048889E-3
489.738464E-3
493.825150E-3
497.969055E-3
501.700974E-3
504.342842E-3
505.887222E-3
506.417656E-3
505.940437E-3
504.812622E-3
503.027344E-3
501.183701E-3
499.280548E-3
497.669220E-3
496.386909E-3
495.346069E-3
494.771576E-3
494.687462E-3
494.758415E-3
494.994736E-3
495.312881E-3
495.661354E-3
495.999527E-3
496.071053E-3
495.782089E-3
495.086288E-3
494.235992E-3
493.595695E-3
493.016624E-3
492.735672E-3
492.838669E-3
493.054962E-3
493.453789E-3
493.880653E-3
494.314957E-3
494.631958E-3
494.904327E-3
494.935226E-3
494.709206E-3
494.384766E-3
493.755913E-3
493.171120E-3
492.501640E-3
491.732597E-3
491.039085E-3
490.361595E-3
489.692116E-3
489.141083E-3
488.659859E-3
488.238144E-3
487.871361E-3
487.611008E-3
487.407303E-3
487.113762E-3
487.109756E-3
486.868286E-3
486.658859E-3
486.687469E-3
486.514091E-3
486.573601E-3
486.486626E-3
486.372757E-3
486.293793E-3
486.139870E-3
486.059189E-3
485.953331E-3
485.869217E-3
485.761642E-3
485.638618E-3
485.517883E-3
485.355949E-3
485.072708E-3
484.933662E-3
484.729958E-3
484.582901E-3
484.348297E-3
484.171486E-3
483.893967E-3
483.609581E-3
483.514595E-3
483.342361E-3
483.103180E-3
482.920647E-3
482.698059E-3
482.584763E-3
482.302666E-3
482.059479E-3
481.762505E-3
481.557083E-3
481.190872E-3
480.738831E-3
480.430984E-3
480.193520E-3
479.986382E-3
479.923439E-3
479.909706E-3
480.056763E-3
480.604935E-3
481.999969E-3
484.526253E-3
487.705421E-3
491.457939E-3
495.423889E-3
498.946953E-3
501.849747E-3
503.631020E-3
504.207802E-3
504.044151E-3
502.922630E-3
501.379395E-3
499.570656E-3
497.630310E-3
495.913696E-3
494.412231E-3
493.276405E-3
492.542839E-3
492.151451E-3
492.114258E-3
492.184067E-3
492.502785E-3
492.785454E-3
493.066406E-3
493.262100E-3
492.862701E-3
492.213249E-3
491.455650E-3
490.698051E-3
490.236282E-3
490.080643E-3
490.107536E-3
490.561295E-3
491.006470E-3
491.552925E-3
491.932297E-3
492.207527E-3
492.301941E-3
492.105103E-3
491.836739E-3
491.283417E-3
490.649986E-3
489.900398E-3
489.231491E-3
488.563728E-3
487.784958E-3
487.189865E-3
486.529541E-3
485.963058E-3
485.503578E-3
485.060692E-3
484.692764E-3
484.520531E-3
484.229851E-3
484.101677E-3
483.895683E-3
483.785820E-3
483.695984E-3
483.553505E-3
483.447647E-3
483.151245E-3
483.305740E-3
483.335495E-3
483.322906E-3
483.380127E-3
483.297729E-3
483.236504E-3
483.185005E-3
483.086586E-3
483.130074E-3
482.924080E-3
482.861710E-3
482.666016E-3
482.434845E-3
482.421112E-3
482.245445E-3
482.158470E-3
481.976509E-3
481.906700E-3
481.748199E-3
481.705284E-3
481.527328E-3
481.360245E-3
481.134796E-3
481.158257E-3
480.943680E-3
480.793762E-3
480.835533E-3
480.391502E-3
480.138588E-3
479.837036E-3
479.621887E-3
479.539490E-3
479.605293E-3
479.749489E-3
479.672241E-3
479.694557E-3
480.479050E-3
482.007980E-3
484.619522E-3
487.918854E-3
491.716003E-3
495.474243E-3
498.882866E-3
501.427460E-3
502.927208E-3
503.327179E-3
502.915192E-3
501.707840E-3
500.222969E-3
498.399925E-3
496.768570E-3
495.372963E-3
493.961334E-3
492.961693E-3
492.325401E-3
491.982079E-3
491.911125E-3
492.088509E-3
492.397499E-3
492.638969E-3
492.855835E-3
492.513084E-3
491.819000E-3
491.302299E-3
490.744972E-3
490.438843E-3
490.418243E-3
490.711784E-3
491.290855E-3
491.814423E-3
492.633247E-3
493.318748E-3
493.830872E-3
494.099236E-3
494.001961E-3
493.826866E-3
493.484688E-3
492.901611E-3
492.371178E-3
491.582680E-3
490.923500E-3
490.220833E-3
489.494133E-3
489.009476E-3
488.387489E-3
487.905693E-3
487.534332E-3
487.465096E-3
487.025642E-3
486.703491E-3
486.580467E-3
486.502647E-3
486.419106E-3
486.412811E-3
486.467743E-3
486.290932E-3
486.236000E-3
486.142731E-3
486.209679E-3
486.250305E-3
486.344147E-3
486.387062E-3
486.261177E-3
486.161041E-3
486.161613E-3
486.100388E-3
486.075211E-3
486.031151E-3
486.021996E-3
485.873795E-3
485.754776E-3
485.582542E-3
485.587692E-3
485.404015E-3
485.215187E-3
485.078430E-3
484.964561E-3
484.807777E-3
484.690475E-3
484.506798E-3
484.336281E-3
483.967209E-3
483.768082E-3
483.536911E-3
483.286285E-3
483.083725E-3
482.956696E-3
482.577324E-3
482.292938E-3
482.134438E-3
481.967354E-3
482.201385E-3
482.534409E-3
483.526611E-3
485.414314E-3
488.416672E-3
492.164612E-3
496.089363E-3
500.024414E-3
503.671074E-3
506.118393E-3
507.566071E-3
507.981491E-3
507.465935E-3
506.267166E-3
504.755974E-3
503.049088E-3
501.338196E-3
499.829292E-3
498.626518E-3
497.862053E-3
497.307014E-3
497.034073E-3
497.265816E-3
497.555351E-3
498.170471E-3
498.504639E-3
498.610497E-3
498.714066E-3
498.424530E-3
497.722435E-3
496.845245E-3
496.122551E-3
495.584106E-3
495.232773E-3
495.188713E-3
495.378113E-3
495.720863E-3
496.129417E-3
496.499634E-3
496.758270E-3
496.901894E-3
496.835518E-3
496.829224E-3
496.231270E-3
495.640755E-3
495.002747E-3
494.277763E-3
493.566513E-3
492.799759E-3
492.109680E-3
491.492844E-3
491.154099E-3
490.639687E-3
490.147591E-3
489.829445E-3
489.571953E-3
489.304161E-3
489.185715E-3
488.967705E-3
488.783455E-3
488.895035E-3
488.628960E-3
488.596344E-3
488.540840E-3
488.445854E-3
488.414383E-3
488.165474E-3
488.214111E-3
488.123131E-3
488.045311E-3
487.911415E-3
487.655640E-3
487.555504E-3
487.478256E-3
487.241936E-3
487.086296E-3
486.639404E-3
486.701202E-3
486.505508E-3
486.243439E-3
485.949898E-3
485.704422E-3
485.557938E-3
