Notes :


2023-11-10 ¿ÀÈÄ 9:52:40
Volts
Ch : LED 2,
338.937378E-3
338.698769E-3
338.554001E-3
338.634682E-3
338.476181E-3
338.412094E-3
338.283348E-3
338.211823E-3
338.318825E-3
338.259888E-3
338.229561E-3
338.131142E-3
337.984085E-3
337.943459E-3
337.698555E-3
337.794685E-3
337.712860E-3
337.706566E-3
337.752342E-3
337.525749E-3
337.560081E-3
337.584686E-3
337.597275E-3
337.508583E-3
337.360382E-3
337.236786E-3
337.200165E-3
337.356949E-3
337.878799E-3
338.496208E-3
339.514732E-3
340.686607E-3
342.275620E-3
343.909836E-3
345.284843E-3
346.505928E-3
347.116470E-3
347.276115E-3
347.066116E-3
346.516800E-3
345.805550E-3
345.036507E-3
344.246864E-3
343.650627E-3
343.096161E-3
342.849541E-3
342.654991E-3
342.646980E-3
342.787170E-3
342.876434E-3
343.113899E-3
343.127632E-3
343.315315E-3
343.255806E-3
343.052101E-3
342.881584E-3
342.542839E-3
342.307091E-3
342.143440E-3
342.039299E-3
342.065620E-3
342.041588E-3
342.077065E-3
342.225838E-3
342.281342E-3
342.489624E-3
342.516518E-3
342.466736E-3
342.457008E-3
342.279625E-3
342.283058E-3
342.114258E-3
341.988945E-3
341.843605E-3
341.686249E-3
341.413879E-3
341.191864E-3
340.932655E-3
340.969849E-3
340.859985E-3
340.893173E-3
340.837669E-3
340.718079E-3
340.702629E-3
340.676308E-3
340.574455E-3
340.395927E-3
340.198517E-3
340.229416E-3
340.171051E-3
340.273476E-3
340.294647E-3
340.144157E-3
340.200806E-3
340.284920E-3
340.271187E-3
340.247726E-3
340.059471E-3
340.011978E-3
339.919281E-3
339.923859E-3
339.954185E-3
339.862061E-3
339.810562E-3
339.774513E-3
339.713860E-3
339.728737E-3
339.738464E-3
339.875793E-3
339.710426E-3
339.644623E-3
339.501572E-3
339.371681E-3
339.498138E-3
339.376831E-3
339.406586E-3
339.296722E-3
339.168549E-3
339.105034E-3
339.069557E-3
339.065552E-3
338.970566E-3
338.825798E-3
338.889313E-3
338.774300E-3
338.748550E-3
338.821793E-3
339.179993E-3
340.011406E-3
341.017914E-3
342.278481E-3
343.737602E-3
345.218468E-3
346.697617E-3
347.494698E-3
347.919846E-3
347.842026E-3
347.412872E-3
346.896172E-3
346.091652E-3
345.279694E-3
344.482040E-3
343.832588E-3
343.474388E-3
343.263817E-3
343.152809E-3
343.207169E-3
343.247223E-3
343.418312E-3
343.498421E-3
343.627167E-3
343.704987E-3
343.403435E-3
343.146515E-3
342.761421E-3
342.605782E-3
342.361450E-3
342.182922E-3
342.267609E-3
342.340279E-3
342.382622E-3
342.594910E-3
342.707634E-3
342.881012E-3
342.977715E-3
343.034935E-3
342.931938E-3
342.653275E-3
342.523956E-3
342.189217E-3
341.954613E-3
341.740036E-3
341.506004E-3
341.360664E-3
341.149521E-3
340.944672E-3
340.843964E-3
340.647125E-3
340.657425E-3
340.552139E-3
340.530396E-3
340.410805E-3
340.314102E-3
340.255737E-3
340.240288E-3
340.292931E-3
340.389633E-3
340.314102E-3
340.327835E-3
340.151024E-3
340.116692E-3
340.116119E-3
340.077782E-3
340.025139E-3
339.872932E-3
339.912415E-3
339.912415E-3
339.848900E-3
339.867783E-3
339.755630E-3
339.791679E-3
339.784241E-3
339.643478E-3
339.734459E-3
339.554214E-3
339.472389E-3
339.468384E-3
339.398003E-3
339.327621E-3
339.209175E-3
339.178848E-3
339.270401E-3
339.266968E-3
339.317894E-3
339.158249E-3
339.146233E-3
339.024925E-3
338.813210E-3
338.693619E-3
338.540840E-3
338.513374E-3
338.536263E-3
338.495636E-3
338.626099E-3
338.924217E-3
339.658928E-3
340.768433E-3
342.014694E-3
343.547058E-3
344.895744E-3
346.397781E-3
347.733879E-3
348.492050E-3
348.805046E-3
348.646545E-3
348.188210E-3
347.664070E-3
346.812630E-3
346.160889E-3
345.431328E-3
344.898605E-3
344.583893E-3
344.364166E-3
344.340134E-3
344.389343E-3
344.585609E-3
344.951820E-3
344.920921E-3
345.058250E-3
345.228195E-3
345.182419E-3
345.014763E-3
344.555855E-3
344.038010E-3
343.511581E-3
343.181992E-3
343.018913E-3
342.964554E-3
343.094444E-3
343.207169E-3
343.324471E-3
343.585968E-3
343.625450E-3
343.628883E-3
343.686676E-3
343.452072E-3
343.299866E-3
342.945099E-3
342.711639E-3
342.536545E-3
342.446136E-3
342.185783E-3
341.883659E-3
341.851044E-3
341.685677E-3
341.629028E-3
341.527748E-3
341.324043E-3
341.183281E-3
341.089439E-3
340.988159E-3
340.991592E-3
340.914917E-3
340.934944E-3
340.833092E-3
340.838814E-3
340.828514E-3
340.747833E-3
340.702629E-3
340.716362E-3
340.635681E-3
340.656281E-3
340.460014E-3
340.524673E-3
340.421677E-3
340.383911E-3
340.304375E-3
340.135002E-3
340.163040E-3
340.057182E-3
340.044594E-3
340.051460E-3
339.877510E-3
339.826584E-3
339.820862E-3
339.881516E-3
339.919853E-3
339.665794E-3
339.668655E-3
339.656639E-3
339.539337E-3
339.627457E-3
339.482689E-3
339.491272E-3
339.531898E-3
339.410019E-3
339.391708E-3
339.241219E-3
339.258385E-3
339.158821E-3
338.995171E-3
338.999748E-3
338.895035E-3
338.969994E-3
338.977432E-3
339.052963E-3
339.502144E-3
340.190506E-3
341.426468E-3
342.861557E-3
344.520950E-3
346.085358E-3
347.204590E-3
348.347282E-3
348.865700E-3
349.045372E-3
348.822212E-3
348.126411E-3
347.349358E-3
346.479607E-3
345.670509E-3
345.086288E-3
344.716644E-3
344.420242E-3
344.270897E-3
344.355583E-3
344.517517E-3
344.658279E-3
344.903183E-3
345.106316E-3
345.291710E-3
345.106316E-3
344.852829E-3
344.654274E-3
344.296646E-3
343.880653E-3
343.619156E-3
343.485260E-3
343.414307E-3
343.414307E-3
343.549919E-3
343.647766E-3
343.706131E-3
343.879509E-3
343.794823E-3
343.825150E-3
343.807411E-3
343.575668E-3
343.418884E-3
343.205452E-3
343.012047E-3
342.686462E-3
342.435837E-3
342.307663E-3
342.095375E-3
341.994667E-3
341.952896E-3
341.752625E-3
341.730309E-3
341.720009E-3
341.625023E-3
341.657066E-3
341.559792E-3
341.512871E-3
341.398430E-3
341.336632E-3
341.302872E-3
341.201591E-3
341.270828E-3
341.240501E-3
341.114044E-3
341.075706E-3
341.039658E-3
341.057968E-3
341.113472E-3
341.023636E-3
340.961266E-3
340.798187E-3
340.725517E-3
340.617943E-3
340.587044E-3
340.639687E-3
340.447426E-3
340.481186E-3
340.393639E-3
340.285492E-3
340.375328E-3
340.265465E-3
340.183640E-3
339.977646E-3
339.840317E-3
339.903259E-3
339.799690E-3
339.846039E-3
339.751625E-3
339.606857E-3
339.555931E-3
339.418602E-3
339.336777E-3
339.329910E-3
339.204025E-3
339.144516E-3
339.001465E-3
338.991165E-3
338.978004E-3
339.064407E-3
339.412308E-3
339.870071E-3
340.885735E-3
342.205238E-3
343.644905E-3
345.127487E-3
346.405792E-3
347.483253E-3
348.085213E-3
348.227119E-3
347.948456E-3
347.286987E-3
346.578026E-3
345.729446E-3
344.863129E-3
344.280624E-3
343.700409E-3
343.383980E-3
343.329048E-3
343.312454E-3
343.392563E-3
343.455505E-3
343.561363E-3
343.722725E-3
343.781662E-3
343.706131E-3
343.212891E-3
343.013763E-3
342.690468E-3
342.339134E-3
342.262459E-3
342.179489E-3
342.240715E-3
342.369461E-3
342.518234E-3
342.867851E-3
343.022919E-3
343.005180E-3
343.002319E-3
342.831230E-3
342.739677E-3
342.460442E-3
342.170334E-3
341.996384E-3
341.738319E-3
341.555214E-3
341.287422E-3
341.154099E-3
341.073990E-3
340.985870E-3
340.859413E-3
340.602493E-3
340.402794E-3
340.262032E-3
340.196800E-3
340.349007E-3
340.250015E-3
340.204239E-3
340.250587E-3
340.214539E-3
340.191650E-3
340.166473E-3
340.197945E-3
340.185928E-3
340.102959E-3
339.999390E-3
339.887238E-3
339.834023E-3
339.806557E-3
339.681244E-3
339.839745E-3
339.750481E-3
339.780807E-3
339.723587E-3
339.605713E-3
339.585686E-3
339.412308E-3
339.273262E-3
339.344788E-3
339.205170E-3
339.093018E-3
339.060974E-3
339.107895E-3
339.059830E-3
339.012337E-3
339.090157E-3
338.995743E-3
338.961411E-3
338.981438E-3
338.839531E-3
338.796616E-3
338.780594E-3
338.780594E-3
338.751984E-3
338.599205E-3
338.643837E-3
338.404655E-3
338.302803E-3
338.375473E-3
338.339424E-3
338.372612E-3
338.423538E-3
338.745689E-3
339.371681E-3
340.243149E-3
341.530037E-3
342.987442E-3
344.603348E-3
346.199226E-3
347.427750E-3
348.427963E-3
348.752403E-3
348.667145E-3
348.248863E-3
347.435760E-3
346.646118E-3
345.767784E-3
345.028496E-3
344.607925E-3
344.237137E-3
344.201088E-3
344.052887E-3
344.283485E-3
344.399071E-3
344.587326E-3
344.770432E-3
344.909477E-3
344.998169E-3
344.851685E-3
344.540977E-3
344.236565E-3
343.793106E-3
343.497276E-3
343.179703E-3
342.920494E-3
342.885017E-3
342.856407E-3
342.900467E-3
343.066406E-3
343.223763E-3
343.385696E-3
343.305016E-3
343.250656E-3
343.159103E-3
343.029785E-3
342.845535E-3
342.616081E-3
342.305374E-3
342.126846E-3
341.792679E-3
341.664505E-3
341.489410E-3
341.364670E-3
341.237640E-3
341.057396E-3
341.073990E-3
340.928078E-3
340.838814E-3
340.719795E-3
340.625381E-3
340.583611E-3
340.502357E-3
340.419388E-3
340.430260E-3
340.466881E-3
340.540123E-3
340.488625E-3
340.465736E-3
340.343857E-3
340.130424E-3
340.010262E-3
340.001106E-3
339.935303E-3
339.969063E-3
339.833450E-3
339.833450E-3
339.788818E-3
339.724159E-3
339.676094E-3
339.510155E-3
339.436913E-3
339.272118E-3
339.229774E-3
339.267540E-3
339.117050E-3
339.088440E-3
339.024353E-3
339.051247E-3
339.057541E-3
338.959694E-3
338.987160E-3
338.920784E-3
338.884735E-3
338.789749E-3
338.709068E-3
338.675880E-3
338.632393E-3
338.610077E-3
338.679886E-3
338.639832E-3
338.635254E-3
338.519669E-3
338.366890E-3
338.279343E-3
338.219261E-3
338.180351E-3
338.269043E-3
338.294792E-3
338.936806E-3
339.852905E-3
341.147804E-3
342.672157E-3
344.242287E-3
345.685387E-3
346.875572E-3
347.644615E-3
347.914696E-3
347.860336E-3
347.438049E-3
346.747398E-3
346.026421E-3
345.252228E-3
344.640541E-3
344.167328E-3
343.761635E-3
343.405724E-3
343.210602E-3
343.242645E-3
343.477821E-3
343.675804E-3
343.866348E-3
344.117546E-3
344.256020E-3
344.334984E-3
344.076920E-3
343.777084E-3
343.331909E-3
342.949104E-3
342.626381E-3
342.455292E-3
342.404938E-3
342.465019E-3
342.597198E-3
342.901039E-3
343.014908E-3
343.098450E-3
343.209457E-3
343.087578E-3
342.950249E-3
342.639542E-3
342.451286E-3
342.209816E-3
341.939735E-3
341.758919E-3
341.511726E-3
341.394997E-3
341.237640E-3
341.025352E-3
341.043663E-3
341.070557E-3
340.950394E-3
340.858269E-3
340.694046E-3
340.595055E-3
340.445709E-3
340.415382E-3
340.436554E-3
340.282059E-3
340.347862E-3
340.279770E-3
340.260887E-3
340.295219E-3
340.273476E-3
340.312958E-3
340.131569E-3
340.064049E-3
340.002823E-3
339.804268E-3
339.797401E-3
339.679527E-3
339.696693E-3
339.660072E-3
339.506721E-3
339.510155E-3
339.452362E-3
339.367104E-3
339.274979E-3
339.109612E-3
339.102745E-3
338.980293E-3
338.904190E-3
338.901901E-3
338.647270E-3
338.604927E-3
338.503075E-3
338.569450E-3
338.720512E-3
338.640976E-3
338.587189E-3
338.298798E-3
338.205528E-3
338.153458E-3
338.006973E-3
337.921143E-3
337.787247E-3
337.773514E-3
337.732315E-3
337.707710E-3
337.794685E-3
337.915993E-3
338.394356E-3
339.095306E-3
340.177917E-3
341.512299E-3
342.765999E-3
344.170761E-3
345.370102E-3
346.053314E-3
346.472740E-3
346.285629E-3
345.850182E-3
345.087433E-3
344.252014E-3
343.529320E-3
342.790604E-3
342.123985E-3
341.649628E-3
341.393280E-3
341.404152E-3
341.403008E-3
341.504860E-3
341.592407E-3
341.661072E-3
341.766357E-3
341.719437E-3
341.629028E-3
341.327477E-3
340.969276E-3
340.777588E-3
340.442848E-3
340.340996E-3
340.353584E-3
340.391922E-3
340.675735E-3
340.781021E-3
340.980721E-3
341.241646E-3
341.298294E-3
341.262245E-3
341.077423E-3
340.845108E-3
340.545273E-3
340.260315E-3
340.130424E-3
339.910126E-3
339.682961E-3
339.537048E-3
339.407158E-3
339.316177E-3
339.210320E-3
339.070702E-3
338.991737E-3
338.808060E-3
338.688469E-3
338.563728E-3
338.515663E-3
338.603783E-3
338.564873E-3
338.628960E-3
338.555145E-3
338.633537E-3
338.608932E-3
338.574028E-3
338.483047E-3
338.501930E-3
338.459015E-3
338.418388E-3
338.333702E-3
338.341141E-3
338.200378E-3
338.211823E-3
338.155174E-3
338.151741E-3
338.142586E-3
338.022423E-3
338.009834E-3
337.945175E-3
337.918282E-3
337.864494E-3
337.772942E-3
337.665367E-3
337.653351E-3
337.596703E-3
337.574387E-3
337.497139E-3
337.550354E-3
337.705421E-3
337.642479E-3
337.727165E-3
337.712860E-3
337.563515E-3
337.368965E-3
337.237930E-3
337.241936E-3
337.126923E-3
337.021065E-3
337.053680E-3
336.982727E-3
337.082291E-3
337.162399E-3
337.414169E-3
337.774086E-3
338.488770E-3
339.535904E-3
340.830803E-3
342.297935E-3
343.890953E-3
345.261955E-3
346.297073E-3
346.842957E-3
346.920776E-3
346.698761E-3
346.167755E-3
345.407295E-3
344.531822E-3
343.704987E-3
343.190575E-3
342.646980E-3
342.364311E-3
342.341423E-3
342.350006E-3
342.436981E-3
342.496490E-3
342.851257E-3
342.977142E-3
343.055534E-3
343.187714E-3
343.072128E-3
342.826653E-3
342.344284E-3
341.974640E-3
341.745186E-3
341.404152E-3
341.198730E-3
341.099739E-3
341.156960E-3
341.384697E-3
341.483688E-3
341.726875E-3
341.696548E-3
341.622162E-3
341.519737E-3
341.259956E-3
341.210747E-3
340.987015E-3
340.783882E-3
340.679741E-3
340.358162E-3
340.280342E-3
340.143013E-3
340.038300E-3
339.957047E-3
339.644051E-3
339.455795E-3
339.320183E-3
339.227486E-3
339.167976E-3
339.016914E-3
339.010620E-3
338.986015E-3
339.072990E-3
339.176559E-3
339.127350E-3
339.077568E-3
338.976288E-3
338.829803E-3
338.768578E-3
338.664436E-3
338.679314E-3
338.635826E-3
338.582611E-3
338.640976E-3
338.544846E-3
338.616371E-3
338.586044E-3
338.586044E-3
338.483047E-3
338.283348E-3
338.204384E-3
338.070488E-3
337.956619E-3
338.052750E-3
337.894821E-3
337.910271E-3
337.944603E-3
337.909126E-3
337.958908E-3
337.931442E-3
338.003540E-3
337.842178E-3
337.722588E-3
337.669373E-3
337.605858E-3
337.685966E-3
337.677383E-3
337.587547E-3
337.410736E-3
337.302589E-3
337.369537E-3
337.299156E-3
337.252235E-3
337.245369E-3
337.232780E-3
337.188148E-3
337.296295E-3
337.653351E-3
338.469887E-3
339.554214E-3
340.954399E-3
342.440987E-3
343.807411E-3
345.220184E-3
346.166039E-3
346.837234E-3
346.971703E-3
346.592331E-3
346.001244E-3
345.140076E-3
344.306374E-3
343.587685E-3
342.907906E-3
342.609787E-3
342.325974E-3
342.352867E-3
342.316818E-3
342.378044E-3
342.518806E-3
342.699051E-3
342.846107E-3
342.877007E-3
342.867851E-3
342.854118E-3
342.574883E-3
342.303085E-3
341.918564E-3
341.657639E-3
341.578102E-3
341.354942E-3
341.397285E-3
341.453934E-3
341.587257E-3
341.761780E-3
341.822433E-3
341.875648E-3
341.965485E-3
341.875648E-3
341.775513E-3
341.600990E-3
341.413307E-3
341.225624E-3
340.988159E-3
340.859413E-3
340.547562E-3
340.383339E-3
340.340424E-3
340.231133E-3
340.179062E-3
340.075493E-3
339.946747E-3
339.866066E-3
339.702415E-3
339.784813E-3
339.663506E-3
339.725876E-3
339.597702E-3
339.508438E-3
339.658928E-3
339.629745E-3
339.640045E-3
339.636040E-3
339.402008E-3
339.416885E-3
339.322472E-3
339.329338E-3
339.285851E-3
339.211464E-3
339.133644E-3
339.146805E-3
339.259529E-3
339.154243E-3
339.117622E-3
339.083862E-3
338.922501E-3
338.755417E-3
338.694191E-3
338.584900E-3
338.599777E-3
338.543701E-3
