Notes :


2023-11-10 ¿ÀÈÄ 11:58:35
Volts
Ch : LED 2,
676.963806E-3
676.808167E-3
676.673126E-3
676.507759E-3
676.642799E-3
676.720619E-3
676.774406E-3
677.220726E-3
678.362274E-3
680.596161E-3
683.890343E-3
687.650299E-3
691.495514E-3
695.060349E-3
698.050690E-3
700.043678E-3
700.868797E-3
701.213264E-3
700.622749E-3
699.575615E-3
698.336220E-3
696.994400E-3
695.813370E-3
694.495010E-3
693.672180E-3
693.046188E-3
692.679977E-3
692.770958E-3
692.808151E-3
693.243027E-3
693.740273E-3
693.854713E-3
693.955994E-3
693.420410E-3
692.661667E-3
691.468048E-3
690.202332E-3
689.223289E-3
688.471985E-3
688.447952E-3
688.637924E-3
689.078522E-3
689.856148E-3
690.428352E-3
690.961647E-3
691.358185E-3
691.438293E-3
691.280937E-3
690.919304E-3
690.676117E-3
690.261841E-3
689.725113E-3
689.223862E-3
688.533783E-3
688.085747E-3
687.618256E-3
687.084389E-3
686.738205E-3
686.261559E-3
685.936546E-3
685.810661E-3
685.634995E-3
685.440445E-3
685.023880E-3
684.882545E-3
684.598160E-3
684.416199E-3
684.253693E-3
683.987617E-3
683.701515E-3
683.492661E-3
683.163071E-3
683.015442E-3
682.624626E-3
682.551956E-3
682.268143E-3
682.122231E-3
681.962585E-3
681.666183E-3
681.384087E-3
681.203270E-3
681.051636E-3
680.876541E-3
680.598450E-3
680.281448E-3
680.081177E-3
679.768753E-3
679.561615E-3
679.392242E-3
679.301262E-3
679.159927E-3
678.960228E-3
678.814316E-3
678.571129E-3
678.570557E-3
678.128242E-3
677.976608E-3
677.682495E-3
677.379799E-3
677.029610E-3
676.688576E-3
676.163864E-3
675.987053E-3
675.658607E-3
675.448608E-3
675.409698E-3
675.267792E-3
675.505829E-3
675.555611E-3
676.420212E-3
677.868462E-3
680.456543E-3
684.106636E-3
688.214493E-3
692.112350E-3
695.831108E-3
698.725891E-3
700.707436E-3
701.482201E-3
701.754570E-3
701.217270E-3
700.348663E-3
699.068642E-3
697.887611E-3
696.770668E-3
695.934105E-3
695.222282E-3
694.964790E-3
694.616318E-3
694.892693E-3
695.043182E-3
695.275497E-3
695.803642E-3
695.855713E-3
695.982742E-3
695.836830E-3
694.950485E-3
693.895912E-3
692.448807E-3
691.217422E-3
690.072441E-3
689.455605E-3
689.471054E-3
689.543724E-3
689.778328E-3
690.284729E-3
690.657806E-3
691.135597E-3
691.165352E-3
691.267204E-3
691.357613E-3
690.925598E-3
690.561676E-3
690.054131E-3
689.716530E-3
689.034462E-3
688.607025E-3
688.090324E-3
687.379646E-3
686.976242E-3
686.495018E-3
686.073303E-3
685.821533E-3
685.328293E-3
685.228157E-3
684.872246E-3
684.485435E-3
684.196472E-3
683.907509E-3
683.662033E-3
683.450890E-3
683.087540E-3
682.994270E-3
682.782555E-3
682.641792E-3
682.446671E-3
682.115364E-3
682.027817E-3
681.753159E-3
681.555176E-3
681.441879E-3
681.192398E-3
681.167221E-3
681.002426E-3
680.893707E-3
680.666542E-3
680.436516E-3
680.383301E-3
680.000496E-3
679.898643E-3
679.526711E-3
679.259491E-3
679.296684E-3
678.902435E-3
678.722763E-3
678.532219E-3
678.305054E-3
678.350830E-3
678.059578E-3
677.911949E-3
677.697945E-3
677.574921E-3
677.408409E-3
677.099991E-3
676.867676E-3
676.635933E-3
676.123810E-3
675.930405E-3
675.482941E-3
675.160789E-3
674.826050E-3
674.590874E-3
674.779701E-3
674.769402E-3
675.076103E-3
675.742722E-3
677.257919E-3
680.013657E-3
683.534431E-3
687.817955E-3
691.941261E-3
695.588493E-3
698.621178E-3
700.615311E-3
701.738548E-3
701.831245E-3
701.332855E-3
700.333214E-3
699.038315E-3
697.806358E-3
696.617317E-3
695.544434E-3
694.853783E-3
694.222069E-3
694.184303E-3
694.314194E-3
694.385147E-3
694.910431E-3
695.188522E-3
695.641708E-3
695.609093E-3
695.300674E-3
694.703293E-3
693.473053E-3
692.277145E-3
690.941048E-3
689.921951E-3
689.435005E-3
689.096832E-3
689.319420E-3
689.580345E-3
689.967728E-3
690.538216E-3
690.851212E-3
691.290665E-3
691.306686E-3
691.159058E-3
690.949059E-3
690.620613E-3
690.292740E-3
689.716530E-3
689.186668E-3
688.676262E-3
688.073730E-3
687.581635E-3
687.079811E-3
686.533356E-3
686.338234E-3
685.775185E-3
685.371208E-3
685.132027E-3
684.896278E-3
684.604454E-3
684.274864E-3
684.049988E-3
683.807373E-3
683.447456E-3
683.250618E-3
683.048058E-3
682.699585E-3
682.445526E-3
682.262993E-3
682.043266E-3
681.774330E-3
681.608963E-3
681.406403E-3
681.207848E-3
681.076813E-3
680.969238E-3
680.874825E-3
680.535507E-3
680.316353E-3
680.347824E-3
680.053139E-3
679.906082E-3
679.670334E-3
679.501534E-3
679.307556E-3
678.959084E-3
678.731918E-3
678.648376E-3
678.388596E-3
678.406334E-3
678.236389E-3
678.110504E-3
677.981186E-3
677.708817E-3
677.712822E-3
677.380371E-3
677.185249E-3
676.839638E-3
676.599312E-3
676.436806E-3
675.989342E-3
675.623703E-3
675.496674E-3
675.172806E-3
674.868965E-3
674.737930E-3
674.728203E-3
674.699020E-3
674.805450E-3
675.777626E-3
677.584076E-3
680.217934E-3
683.850288E-3
687.748146E-3
691.885185E-3
695.370483E-3
698.175430E-3
699.884605E-3
700.646210E-3
700.732040E-3
699.948120E-3
699.032021E-3
697.628403E-3
696.212769E-3
695.086670E-3
693.874741E-3
693.089676E-3
692.484283E-3
692.128944E-3
692.197609E-3
692.314911E-3
692.609024E-3
692.976379E-3
693.089104E-3
693.041611E-3
692.297745E-3
691.366768E-3
689.983749E-3
688.762665E-3
687.983322E-3
687.358475E-3
687.378502E-3
687.737846E-3
688.231659E-3
688.906288E-3
689.257622E-3
689.819527E-3
690.198898E-3
690.321350E-3
690.378571E-3
689.901352E-3
689.527130E-3
689.056206E-3
688.568687E-3
688.018799E-3
687.490082E-3
686.913300E-3
686.421776E-3
685.852432E-3
685.523415E-3
685.022736E-3
684.733772E-3
684.441948E-3
684.148979E-3
683.945274E-3
683.718109E-3
683.446312E-3
683.129311E-3
682.788849E-3
682.523346E-3
682.201767E-3
681.817245E-3
681.511688E-3
681.077957E-3
680.929756E-3
680.597305E-3
680.436516E-3
680.233955E-3
680.002785E-3
679.811096E-3
679.538155E-3
679.449463E-3
679.262352E-3
678.965378E-3
678.817177E-3
678.606033E-3
678.463554E-3
678.277588E-3
678.113937E-3
678.049850E-3
677.903366E-3
677.852440E-3
677.727127E-3
677.536011E-3
677.406693E-3
677.183533E-3
677.069092E-3
676.911163E-3
676.604462E-3
676.514053E-3
676.154137E-3
675.860596E-3
675.403404E-3
674.953651E-3
674.751091E-3
674.389458E-3
674.165154E-3
674.116516E-3
673.955154E-3
674.190903E-3
674.494743E-3
675.634003E-3
677.853012E-3
680.993843E-3
685.000420E-3
689.006424E-3
692.928886E-3
696.334648E-3
698.680115E-3
700.231361E-3
700.678253E-3
700.479698E-3
699.809074E-3
698.800278E-3
697.400665E-3
695.997047E-3
694.842911E-3
693.912506E-3
693.154335E-3
692.863655E-3
692.683411E-3
692.879105E-3
693.183517E-3
693.477058E-3
693.883896E-3
693.881607E-3
693.721962E-3
693.224716E-3
692.317200E-3
691.201401E-3
689.876175E-3
688.926315E-3
688.445091E-3
688.104630E-3
688.344955E-3
688.787270E-3
689.152336E-3
689.846992E-3
690.204620E-3
690.562248E-3
690.539932E-3
690.509033E-3
690.340805E-3
689.969444E-3
689.666176E-3
688.873100E-3
688.282013E-3
687.890625E-3
687.082100E-3
686.505318E-3
685.910797E-3
685.431290E-3
685.039902E-3
684.522057E-3
684.200478E-3
683.910942E-3
683.613968E-3
683.257484E-3
683.081818E-3
682.881546E-3
682.418060E-3
682.182884E-3
681.957436E-3
681.647873E-3
681.501389E-3
681.338310E-3
681.074524E-3
680.869102E-3
680.684280E-3
680.549240E-3
680.378151E-3
680.316353E-3
680.265427E-3
680.033112E-3
679.985619E-3
679.789925E-3
679.753876E-3
679.527855E-3
679.285812E-3
679.260063E-3
678.909302E-3
678.647804E-3
678.567696E-3
678.392029E-3
678.217506E-3
677.945709E-3
677.895355E-3
677.723122E-3
677.550888E-3
677.486229E-3
677.039337E-3
677.028465E-3
676.871681E-3
676.681137E-3
676.669121E-3
676.487732E-3
676.189613E-3
675.961304E-3
675.500107E-3
675.107002E-3
674.808884E-3
674.513626E-3
674.230385E-3
673.943710E-3
673.832703E-3
673.909378E-3
673.980904E-3
674.684143E-3
675.827980E-3
678.190613E-3
681.487656E-3
685.557175E-3
689.945984E-3
694.081306E-3
697.679901E-3
700.238800E-3
701.862144E-3
702.358818E-3
702.147675E-3
701.479912E-3
700.286293E-3
699.002266E-3
697.762299E-3
696.590424E-3
695.799065E-3
695.116425E-3
694.650650E-3
694.740486E-3
694.878960E-3
695.284081E-3
695.738983E-3
696.103477E-3
696.375275E-3
696.465683E-3
696.044540E-3
695.126152E-3
693.830681E-3
692.670822E-3
691.338158E-3
690.524483E-3
690.149689E-3
690.078163E-3
690.571404E-3
690.835190E-3
691.514397E-3
691.916656E-3
692.066002E-3
692.453957E-3
692.271996E-3
692.182159E-3
691.752434E-3
691.456032E-3
691.006851E-3
690.463829E-3
689.946556E-3
689.269066E-3
688.810158E-3
688.252831E-3
687.784767E-3
687.554741E-3
687.098122E-3
686.878967E-3
686.570549E-3
686.089897E-3
685.823822E-3
685.545731E-3
685.304260E-3
685.076523E-3
684.692001E-3
684.594154E-3
684.281158E-3
684.062576E-3
683.825111E-3
683.710670E-3
683.503532E-3
683.186531E-3
682.977676E-3
682.799149E-3
682.558823E-3
682.537079E-3
682.363129E-3
682.140541E-3
682.043266E-3
681.862450E-3
681.734276E-3
681.497955E-3
681.277084E-3
681.114006E-3
680.861092E-3
680.755234E-3
680.575562E-3
680.260277E-3
680.066872E-3
679.807663E-3
679.640007E-3
679.543304E-3
679.424858E-3
679.417419E-3
679.072952E-3
679.006577E-3
678.869247E-3
678.589439E-3
678.377151E-3
678.093338E-3
677.775192E-3
677.585220E-3
677.228737E-3
677.033043E-3
676.574707E-3
676.400757E-3
676.075745E-3
676.062584E-3
676.234818E-3
676.090050E-3
676.243973E-3
676.710892E-3
678.214645E-3
680.562973E-3
683.921814E-3
687.938118E-3
692.151833E-3
696.021652E-3
699.564171E-3
701.824951E-3
703.419113E-3
703.793907E-3
703.565025E-3
702.772522E-3
701.346588E-3
700.027084E-3
698.497009E-3
697.242165E-3
696.283722E-3
695.621681E-3
695.189667E-3
695.150757E-3
695.340157E-3
695.697212E-3
695.974159E-3
696.209335E-3
696.096611E-3
695.804214E-3
695.092392E-3
693.705940E-3
692.609024E-3
691.437149E-3
690.968513E-3
690.784836E-3
690.911293E-3
691.452026E-3
692.063713E-3
692.716599E-3
693.498802E-3
693.786049E-3
694.090462E-3
694.021797E-3
693.876457E-3
693.548012E-3
693.029022E-3
692.645645E-3
692.114067E-3
691.647148E-3
691.115570E-3
690.364265E-3
689.898491E-3
689.512253E-3
689.100838E-3
688.839340E-3
688.213921E-3
688.099480E-3
687.803078E-3
687.657166E-3
687.397385E-3
686.973381E-3
686.738777E-3
686.381149E-3
686.271858E-3
685.982323E-3
685.638428E-3
685.575485E-3
685.252762E-3
684.990120E-3
684.876251E-3
684.471703E-3
684.444809E-3
684.203339E-3
683.940697E-3
683.832550E-3
683.555603E-3
683.444023E-3
683.209419E-3
682.862091E-3
682.855225E-3
682.440948E-3
682.387733E-3
682.157135E-3
681.873322E-3
681.722260E-3
681.455612E-3
681.522560E-3
681.366920E-3
681.227875E-3
681.005287E-3
680.665398E-3
680.556679E-3
680.393600E-3
680.193901E-3
679.795647E-3
679.505539E-3
679.159927E-3
678.765106E-3
678.385735E-3
678.111649E-3
677.701950E-3
677.494240E-3
677.367210E-3
677.384377E-3
677.728271E-3
678.560829E-3
680.344391E-3
683.119011E-3
686.813164E-3
691.112137E-3
695.267487E-3
699.343300E-3
702.380562E-3
704.878807E-3
706.303596E-3
706.637764E-3
706.146812E-3
705.265045E-3
704.019356E-3
702.754211E-3
701.424980E-3
700.428200E-3
699.734688E-3
699.249458E-3
699.026299E-3
699.132729E-3
699.394798E-3
699.581337E-3
699.781036E-3
700.273132E-3
700.184441E-3
700.035667E-3
699.315262E-3
698.150253E-3
696.818161E-3
695.409393E-3
694.440079E-3
693.839264E-3
693.545151E-3
693.680191E-3
693.929100E-3
694.557953E-3
695.123863E-3
695.490074E-3
695.740700E-3
695.641708E-3
695.460892E-3
695.395088E-3
694.944191E-3
694.636345E-3
693.939972E-3
693.465042E-3
692.870522E-3
692.231369E-3
691.564178E-3
690.997124E-3
690.666962E-3
690.078163E-3
689.694786E-3
689.457321E-3
688.890266E-3
688.569832E-3
688.251686E-3
687.900352E-3
687.678337E-3
687.316704E-3
686.976814E-3
686.670113E-3
686.274719E-3
686.070442E-3
685.731697E-3
685.663033E-3
685.537720E-3
685.210991E-3
685.031319E-3
684.808731E-3
684.661674E-3
684.478569E-3
684.327507E-3
684.304047E-3
683.951569E-3
683.873749E-3
683.584213E-3
683.350182E-3
683.161926E-3
682.839775E-3
682.767677E-3
682.546234E-3
682.295036E-3
682.333374E-3
682.082748E-3
681.956291E-3
681.864738E-3
681.728554E-3
681.664467E-3
681.416702E-3
681.470490E-3
681.309700E-3
680.934906E-3
680.825615E-3
680.655670E-3
680.436516E-3
680.056572E-3
679.728127E-3
679.390526E-3
679.019165E-3
678.684425E-3
678.359413E-3
678.104210E-3
678.196335E-3
678.070450E-3
678.480148E-3
679.097557E-3
680.695724E-3
683.422279E-3
687.042618E-3
691.223717E-3
695.694923E-3
699.770737E-3
703.163910E-3
705.439568E-3
706.899261E-3
707.300377E-3
706.791687E-3
706.094170E-3
704.841042E-3
703.545570E-3
702.244377E-3
701.167488E-3
700.387573E-3
699.838829E-3
699.650574E-3
699.825668E-3
699.802208E-3
700.206757E-3
700.515747E-3
700.833321E-3
700.891113E-3
700.586128E-3
699.944115E-3
698.752785E-3
697.402954E-3
695.969582E-3
694.861794E-3
694.177437E-3
693.858147E-3
694.046974E-3
694.339371E-3
694.932175E-3
695.545578E-3
695.853424E-3
696.213913E-3
696.258545E-3
695.989037E-3
695.842552E-3
695.409393E-3
695.089531E-3
694.386292E-3
693.780327E-3
693.367195E-3
692.736053E-3
692.199898E-3
691.579628E-3
691.073227E-3
690.561676E-3
690.080452E-3
689.831543E-3
689.388084E-3
689.135742E-3
688.776970E-3
688.390160E-3
688.119507E-3
687.920952E-3
687.561035E-3
687.298965E-3
687.062073E-3
686.968803E-3
686.699295E-3
686.485863E-3
686.386871E-3
686.203194E-3
686.058426E-3
685.936546E-3
685.758018E-3
685.420990E-3
685.360909E-3
685.285378E-3
685.169792E-3
684.987259E-3
684.825897E-3
684.522057E-3
684.415054E-3
684.231949E-3
683.940125E-3
683.793640E-3
683.456612E-3
683.374786E-3
683.291817E-3
682.990837E-3
682.904434E-3
682.594299E-3
682.585144E-3
682.249260E-3
682.085609E-3
682.018661E-3
681.723976E-3
681.612968E-3
681.277084E-3
680.961227E-3
680.817032E-3
680.322647E-3
679.983330E-3
679.693794E-3
679.532433E-3
679.502678E-3
679.357338E-3
679.377365E-3
679.346466E-3
679.357910E-3
680.284882E-3
681.903648E-3
684.670258E-3
688.240814E-3
692.376709E-3
696.558952E-3
700.107193E-3
703.066635E-3
704.998398E-3
705.871010E-3
706.121063E-3
705.406380E-3
704.481697E-3
703.036880E-3
701.382637E-3
700.266838E-3
699.029732E-3
698.074722E-3
697.667885E-3
697.360611E-3
697.509956E-3
697.712517E-3
698.130226E-3
698.497009E-3
698.601151E-3
698.435211E-3
697.694206E-3
696.510315E-3
695.187950E-3
693.849564E-3
693.077660E-3
692.626190E-3
692.820168E-3
693.074799E-3
693.751717E-3
694.557381E-3
695.056915E-3
695.553589E-3
695.990181E-3
696.132088E-3
696.096611E-3
695.592499E-3
695.298958E-3
694.732475E-3
694.095039E-3
693.563461E-3
692.914581E-3
692.257690E-3
691.672897E-3
691.150475E-3
690.792274E-3
690.419197E-3
690.011787E-3
689.722252E-3
689.311409E-3
689.119720E-3
688.810730E-3
688.661957E-3
688.264275E-3
687.947273E-3
687.720680E-3
687.327003E-3
687.082100E-3
686.749649E-3
686.454964E-3
686.259270E-3
685.914803E-3
685.791779E-3
685.577202E-3
