Notes :


2023-10-31 ¿ÀÀü 12:02:29
Volts
Ch : LED 2,
838.481140E-3
838.190460E-3
837.360764E-3
837.381363E-3
836.299324E-3
836.801147E-3
837.340164E-3
838.824463E-3
842.592430E-3
845.834541E-3
850.760651E-3
854.833031E-3
857.845116E-3
860.848618E-3
861.847115E-3
862.977219E-3
862.632179E-3
860.884094E-3
859.893036E-3
857.547569E-3
856.671524E-3
855.158043E-3
853.405380E-3
852.942467E-3
851.740265E-3
852.095032E-3
852.242661E-3
852.116203E-3
853.668594E-3
853.440857E-3
854.013062E-3
853.643990E-3
851.986885E-3
851.368332E-3
849.276352E-3
848.861504E-3
848.321342E-3
847.798920E-3
849.007416E-3
848.705864E-3
849.711227E-3
850.231361E-3
850.116348E-3
850.979233E-3
849.962997E-3
849.593925E-3
849.115562E-3
847.980309E-3
848.358536E-3
846.894264E-3
846.850777E-3
846.296883E-3
845.607948E-3
845.990753E-3
844.308472E-3
843.760300E-3
843.051338E-3
842.177010E-3
842.826462E-3
841.478348E-3
841.776466E-3
841.762161E-3
841.313553E-3
842.249107E-3
841.148186E-3
841.308403E-3
841.315842E-3
839.945984E-3
841.105843E-3
840.206337E-3
840.367699E-3
840.491295E-3
839.982033E-3
840.587425E-3
839.627266E-3
839.715385E-3
839.952278E-3
839.341736E-3
840.153694E-3
838.790131E-3
838.775826E-3
838.858795E-3
838.197327E-3
839.053345E-3
837.777328E-3
837.714958E-3
837.577057E-3
836.912155E-3
837.488937E-3
836.095047E-3
836.063576E-3
835.887909E-3
835.057640E-3
835.499954E-3
834.137535E-3
833.847427E-3
833.682632E-3
832.927322E-3
833.569908E-3
832.658958E-3
834.457970E-3
837.794495E-3
841.471481E-3
847.249031E-3
851.094818E-3
855.833817E-3
859.098244E-3
860.920143E-3
862.747765E-3
861.693764E-3
861.135292E-3
860.216331E-3
858.364677E-3
857.868576E-3
855.629539E-3
854.889107E-3
854.364395E-3
853.452301E-3
853.904915E-3
852.959061E-3
853.409958E-3
854.174423E-3
854.401016E-3
855.735970E-3
855.741692E-3
856.251526E-3
856.405449E-3
855.252457E-3
854.615021E-3
852.422333E-3
851.050186E-3
850.231361E-3
849.032021E-3
849.651146E-3
849.296951E-3
850.117493E-3
850.840759E-3
850.695419E-3
851.838684E-3
850.867081E-3
850.586128E-3
850.261116E-3
848.284721E-3
849.357033E-3
848.446083E-3
848.167419E-3
847.935677E-3
846.573257E-3
846.795273E-3
845.404243E-3
844.845772E-3
844.705582E-3
843.677902E-3
844.148827E-3
843.395805E-3
843.047905E-3
843.354034E-3
842.550087E-3
843.143463E-3
842.162704E-3
841.905212E-3
842.048264E-3
841.056633E-3
841.375351E-3
840.734482E-3
840.740776E-3
841.086388E-3
840.229797E-3
840.953064E-3
840.196609E-3
840.040398E-3
840.328789E-3
839.234161E-3
839.640427E-3
838.867378E-3
838.455391E-3
838.669395E-3
837.427711E-3
837.931252E-3
837.080383E-3
837.114716E-3
837.677193E-3
836.000633E-3
837.284088E-3
836.726761E-3
836.759949E-3
836.505890E-3
835.158920E-3
835.614967E-3
834.753799E-3
834.497452E-3
834.825325E-3
834.021378E-3
834.651947E-3
833.965874E-3
834.595299E-3
836.895561E-3
839.291954E-3
844.212914E-3
848.719025E-3
853.554153E-3
858.094025E-3
860.116768E-3
862.553787E-3
862.962914E-3
862.535477E-3
861.968994E-3
859.844398E-3
859.020424E-3
857.359886E-3
856.416321E-3
855.845833E-3
854.655075E-3
855.068207E-3
854.855919E-3
855.040741E-3
855.691910E-3
855.387497E-3
856.974792E-3
857.301521E-3
857.508087E-3
857.609940E-3
856.363106E-3
855.721092E-3
853.677750E-3
851.767731E-3
850.845337E-3
849.264908E-3
850.023651E-3
849.846840E-3
850.435638E-3
851.272774E-3
851.252174E-3
852.082443E-3
851.622963E-3
851.507950E-3
851.296806E-3
850.160980E-3
850.522041E-3
849.637985E-3
848.946190E-3
848.614883E-3
847.305107E-3
847.541428E-3
846.442223E-3
845.473480E-3
845.444298E-3
844.576263E-3
845.278358E-3
844.888115E-3
844.427490E-3
844.757080E-3
843.985748E-3
844.612312E-3
843.999481E-3
843.351746E-3
843.249893E-3
842.301750E-3
843.236732E-3
842.937469E-3
842.872810E-3
843.118286E-3
842.243958E-3
843.213844E-3
842.704010E-3
842.105484E-3
841.557312E-3
840.667534E-3
841.399384E-3
840.842056E-3
840.439796E-3
840.781975E-3
839.758873E-3
840.771675E-3
839.847565E-3
839.547729E-3
839.801216E-3
839.087105E-3
839.790344E-3
838.934326E-3
838.010788E-3
838.274574E-3
837.485504E-3
838.334084E-3
837.935829E-3
836.975670E-3
836.801147E-3
835.965157E-3
836.695862E-3
836.465836E-3
836.893272E-3
839.497948E-3
841.882896E-3
846.867943E-3
851.146889E-3
854.866791E-3
859.083939E-3
861.345291E-3
863.687325E-3
864.042091E-3
863.348007E-3
862.764931E-3
860.662651E-3
859.419823E-3
857.705498E-3
856.095314E-3
855.896187E-3
854.621887E-3
854.984093E-3
854.784966E-3
854.666519E-3
855.684471E-3
855.494499E-3
856.523895E-3
856.126213E-3
855.430412E-3
854.761505E-3
852.658081E-3
852.009201E-3
851.148033E-3
850.439644E-3
851.054192E-3
850.802994E-3
852.221489E-3
852.598000E-3
852.485275E-3
853.080368E-3
852.192879E-3
852.683830E-3
852.212334E-3
850.578117E-3
851.447296E-3
850.497437E-3
850.707436E-3
850.173569E-3
848.847771E-3
848.349953E-3
847.132874E-3
846.960640E-3
846.045685E-3
845.071220E-3
845.148468E-3
844.179726E-3
844.662666E-3
844.437790E-3
843.545723E-3
843.704796E-3
842.887688E-3
843.180084E-3
842.844200E-3
842.308044E-3
842.704010E-3
841.881180E-3
842.106056E-3
842.003059E-3
841.282082E-3
841.427994E-3
840.765381E-3
841.419983E-3
841.098404E-3
840.566826E-3
841.128159E-3
840.129662E-3
840.528488E-3
840.335083E-3
839.342880E-3
839.810371E-3
838.777542E-3
838.929176E-3
838.635063E-3
837.023163E-3
838.033676E-3
836.917305E-3
836.826897E-3
836.414337E-3
835.698509E-3
836.334801E-3
835.359192E-3
835.667038E-3
835.577774E-3
834.625626E-3
835.738564E-3
836.303329E-3
839.576340E-3
843.446159E-3
847.843552E-3
853.536987E-3
857.375336E-3
861.035156E-3
863.437843E-3
863.461304E-3
864.542770E-3
862.796974E-3
861.882019E-3
860.753059E-3
858.995819E-3
858.389854E-3
856.377411E-3
856.241798E-3
856.083870E-3
855.660439E-3
856.809425E-3
856.245804E-3
857.060051E-3
857.587624E-3
857.621384E-3
858.697128E-3
857.762146E-3
857.268906E-3
856.177139E-3
854.100037E-3
853.750420E-3
851.543427E-3
851.027298E-3
851.215553E-3
850.699997E-3
851.998901E-3
851.426697E-3
852.163696E-3
852.506447E-3
851.757431E-3
852.231789E-3
850.772667E-3
850.770950E-3
850.368690E-3
849.654579E-3
850.003624E-3
848.421478E-3
847.991180E-3
847.706223E-3
846.562958E-3
846.992683E-3
845.462036E-3
845.331001E-3
845.114708E-3
844.378853E-3
844.775391E-3
843.585205E-3
843.723106E-3
843.773460E-3
843.036461E-3
843.574905E-3
842.285156E-3
842.453957E-3
842.562675E-3
842.120934E-3
842.695999E-3
841.708374E-3
841.738701E-3
841.683197E-3
841.020584E-3
841.842270E-3
840.519905E-3
840.601730E-3
840.535355E-3
839.781189E-3
840.332794E-3
839.005280E-3
838.671684E-3
838.756943E-3
838.326073E-3
839.077377E-3
838.067436E-3
838.275719E-3
837.798500E-3
837.251472E-3
837.863159E-3
836.746216E-3
836.476135E-3
835.840416E-3
834.848213E-3
835.441589E-3
834.471130E-3
834.363556E-3
834.370995E-3
833.536148E-3
834.639931E-3
834.308624E-3
835.861588E-3
839.037323E-3
842.485428E-3
847.978020E-3
852.171707E-3
856.704712E-3
860.695267E-3
862.461090E-3
864.363098E-3
863.825798E-3
863.169479E-3
861.973000E-3
859.417534E-3
859.104538E-3
857.624817E-3
856.814003E-3
856.158257E-3
855.349159E-3
856.555367E-3
856.345940E-3
857.072639E-3
857.908058E-3
858.033943E-3
859.122276E-3
858.649063E-3
858.327484E-3
857.994461E-3
855.638695E-3
855.334854E-3
853.494072E-3
852.201462E-3
851.378632E-3
849.727821E-3
850.493431E-3
849.951553E-3
850.095177E-3
851.021004E-3
850.843620E-3
852.197456E-3
851.606369E-3
851.667595E-3
852.278137E-3
851.124573E-3
851.305962E-3
849.664307E-3
848.724747E-3
847.984886E-3
846.706009E-3
846.649933E-3
845.701790E-3
845.428276E-3
845.432854E-3
844.190598E-3
845.231438E-3
844.515038E-3
844.299889E-3
844.243813E-3
843.024445E-3
843.397522E-3
842.405319E-3
842.230797E-3
842.622757E-3
842.042542E-3
842.969513E-3
842.338943E-3
842.175293E-3
842.408180E-3
841.435432E-3
842.123795E-3
841.235161E-3
840.974236E-3
841.208267E-3
840.416908E-3
840.878677E-3
840.228081E-3
839.763451E-3
840.125656E-3
839.273071E-3
839.797783E-3
839.349747E-3
839.302254E-3
839.387512E-3
838.433647E-3
839.200401E-3
838.623047E-3
838.058853E-3
837.920952E-3
836.850357E-3
837.767601E-3
837.095833E-3
836.813164E-3
837.145615E-3
836.371422E-3
836.773682E-3
835.963440E-3
835.568619E-3
836.007500E-3
836.643791E-3
839.998627E-3
843.523979E-3
847.998619E-3
853.294373E-3
856.885529E-3
861.273766E-3
863.345146E-3
864.082146E-3
864.764786E-3
863.214684E-3
862.691116E-3
861.034584E-3
859.193230E-3
858.217621E-3
856.377411E-3
856.480980E-3
855.899620E-3
855.195236E-3
855.332565E-3
854.821014E-3
856.135941E-3
856.504440E-3
856.627464E-3
857.147598E-3
856.076431E-3
856.244087E-3
854.724312E-3
853.210831E-3
852.335358E-3
850.823593E-3
851.545715E-3
851.577759E-3
851.338577E-3
852.120209E-3
851.687622E-3
852.954483E-3
852.703857E-3
852.170563E-3
852.221489E-3
851.308823E-3
851.947975E-3
850.673676E-3
849.874878E-3
849.303818E-3
847.979164E-3
848.023796E-3
846.711731E-3
845.688629E-3
845.664024E-3
844.662666E-3
845.446014E-3
844.913864E-3
844.278145E-3
844.155693E-3
843.099403E-3
843.613815E-3
843.156052E-3
842.499733E-3
842.613602E-3
842.025948E-3
842.483139E-3
842.237663E-3
842.270851E-3
842.786407E-3
842.135811E-3
842.663956E-3
842.194748E-3
841.529274E-3
841.839981E-3
841.078377E-3
841.722107E-3
841.145325E-3
840.525627E-3
840.878105E-3
840.273857E-3
840.899277E-3
840.580559E-3
840.153694E-3
840.425491E-3
839.285660E-3
839.405251E-3
838.785553E-3
838.083458E-3
838.077164E-3
837.181664E-3
837.931824E-3
837.445450E-3
836.259270E-3
836.298180E-3
835.252190E-3
835.803223E-3
836.131096E-3
836.161423E-3
839.546585E-3
842.821312E-3
848.109627E-3
852.813148E-3
856.923866E-3
860.980797E-3
863.194084E-3
865.294075E-3
865.599060E-3
864.933586E-3
864.306450E-3
862.030792E-3
860.868645E-3
859.064484E-3
857.326126E-3
857.101250E-3
855.709076E-3
855.839539E-3
855.879593E-3
855.694771E-3
856.614876E-3
856.475830E-3
857.601357E-3
857.750702E-3
856.818008E-3
856.693840E-3
854.766655E-3
853.631973E-3
851.814079E-3
850.031662E-3
849.760437E-3
848.887253E-3
849.578476E-3
849.904633E-3
849.678040E-3
851.097107E-3
850.509453E-3
850.586128E-3
850.098038E-3
849.027443E-3
849.202538E-3
847.896767E-3
847.650719E-3
846.937180E-3
845.816803E-3
846.407318E-3
845.055771E-3
844.908714E-3
844.153976E-3
842.765236E-3
842.755508E-3
841.156769E-3
840.999413E-3
840.308189E-3
839.375496E-3
839.991760E-3
838.934326E-3
839.044762E-3
838.859367E-3
838.135529E-3
839.201546E-3
838.043976E-3
837.823677E-3
837.686348E-3
837.031746E-3
837.787056E-3
836.653519E-3
836.886406E-3
836.976242E-3
836.353111E-3
836.779404E-3
835.881042E-3
835.913658E-3
835.811806E-3
835.315704E-3
835.751724E-3
834.185028E-3
833.909798E-3
834.162140E-3
833.658600E-3
834.444809E-3
833.368492E-3
833.526993E-3
833.456612E-3
832.684135E-3
833.293533E-3
832.006073E-3
831.499100E-3
831.275940E-3
830.595589E-3
831.006432E-3
829.697800E-3
829.597664E-3
829.544449E-3
829.603386E-3
832.153702E-3
834.098625E-3
838.344383E-3
843.383789E-3
847.962570E-3
853.612518E-3
856.290436E-3
858.654785E-3
859.906769E-3
859.832954E-3
860.148239E-3
857.859993E-3
856.572533E-3
855.341148E-3
853.935242E-3
853.621674E-3
852.088737E-3
851.873016E-3
851.478767E-3
850.692558E-3
851.677895E-3
851.208687E-3
851.859283E-3
852.172852E-3
852.352524E-3
853.264618E-3
852.049255E-3
851.449585E-3
850.019646E-3
847.963715E-3
847.642708E-3
845.467758E-3
844.727325E-3
844.417191E-3
844.223785E-3
845.578194E-3
845.256042E-3
845.982742E-3
846.392441E-3
845.926666E-3
846.762657E-3
845.715523E-3
845.501518E-3
845.082092E-3
843.260765E-3
843.594360E-3
841.802788E-3
841.261482E-3
840.513039E-3
839.115715E-3
839.484787E-3
838.383293E-3
838.541222E-3
838.656235E-3
837.823677E-3
838.949203E-3
837.951279E-3
837.448883E-3
837.336731E-3
836.304474E-3
836.539078E-3
835.535431E-3
835.759163E-3
836.346817E-3
836.135101E-3
837.055206E-3
836.404610E-3
836.449814E-3
836.663246E-3
834.782982E-3
835.671616E-3
834.669685E-3
834.808159E-3
835.375786E-3
834.733772E-3
835.498810E-3
834.782410E-3
834.760666E-3
835.189247E-3
834.484863E-3
835.225868E-3
834.602165E-3
834.661674E-3
835.005569E-3
834.049988E-3
834.893417E-3
834.280586E-3
834.109497E-3
834.367561E-3
833.694649E-3
834.364128E-3
833.868599E-3
833.932114E-3
834.285164E-3
833.165359E-3
833.464050E-3
832.462692E-3
833.063507E-3
834.940910E-3
837.459755E-3
842.242241E-3
846.551514E-3
851.472473E-3
856.436920E-3
859.248161E-3
862.822723E-3
863.671303E-3
863.999176E-3
863.535118E-3
861.157608E-3
859.861565E-3
857.456589E-3
855.588341E-3
854.118347E-3
852.100754E-3
852.139091E-3
851.327133E-3
851.255035E-3
852.244949E-3
852.231216E-3
853.948975E-3
854.112053E-3
854.027367E-3
853.859711E-3
851.800346E-3
851.234436E-3
849.553299E-3
848.372841E-3
848.192596E-3
847.548866E-3
848.709869E-3
849.049187E-3
849.564743E-3
850.113487E-3
849.639702E-3
850.339508E-3
849.501801E-3
849.051476E-3
849.041176E-3
848.022652E-3
848.261261E-3
847.168922E-3
846.446800E-3
846.061707E-3
844.686699E-3
844.722748E-3
843.680763E-3
842.670822E-3
842.325783E-3
841.244316E-3
841.681480E-3
841.263199E-3
840.376854E-3
840.412903E-3
838.948059E-3
839.804649E-3
839.295387E-3
838.795280E-3
839.303970E-3
838.577271E-3
839.732552E-3
839.221001E-3
838.696861E-3
838.742065E-3
837.701797E-3
838.499451E-3
838.005066E-3
837.476349E-3
837.522697E-3
836.650658E-3
837.562180E-3
836.945343E-3
836.069870E-3
836.535645E-3
835.972595E-3
836.742783E-3
835.935974E-3
835.235596E-3
835.101700E-3
834.030533E-3
834.286308E-3
833.648872E-3
832.656097E-3
832.755089E-3
831.916809E-3
832.718468E-3
831.998062E-3
831.240463E-3
831.490517E-3
830.389023E-3
830.990982E-3
831.499100E-3
833.528709E-3
837.488365E-3
841.306114E-3
847.222710E-3
851.676750E-3
855.563164E-3
858.948898E-3
860.239792E-3
861.551285E-3
861.068916E-3
859.246445E-3
857.759857E-3
855.120277E-3
853.879166E-3
852.190590E-3
850.526619E-3
850.020218E-3
848.808861E-3
849.168205E-3
848.759079E-3
848.475838E-3
849.591064E-3
849.544716E-3
850.661659E-3
850.331497E-3
849.717522E-3
849.327278E-3
847.610092E-3
846.762657E-3
845.360756E-3
844.096756E-3
844.346237E-3
843.626404E-3
844.499588E-3
844.610023E-3
844.561958E-3
845.474052E-3
844.990540E-3
845.331573E-3
844.543076E-3
843.576050E-3
843.802071E-3
842.857933E-3
843.025017E-3
842.207336E-3
841.001129E-3
841.012573E-3
839.863586E-3
839.812660E-3
838.768387E-3
837.339592E-3
837.479210E-3
836.305046E-3
836.563110E-3
836.045837E-3
835.154915E-3
835.264778E-3
834.231949E-3
834.703445E-3
834.174728E-3
833.087540E-3
833.422852E-3
832.685852E-3
833.254623E-3
833.029747E-3
832.420349E-3
833.073235E-3
832.365417E-3
