Notes :


2023-11-04 ¿ÀÈÄ 7:04:01
Volts
Ch : LED 2,
513.236618E-3
513.519859E-3
513.927269E-3
514.229393E-3
514.532089E-3
514.454269E-3
514.128685E-3
513.310432E-3
512.188911E-3
511.352348E-3
510.659981E-3
510.124397E-3
509.892654E-3
510.074615E-3
510.436249E-3
510.787582E-3
511.125755E-3
511.461639E-3
511.470795E-3
511.283112E-3
511.005592E-3
510.440254E-3
509.789658E-3
508.903885E-3
508.032417E-3
507.251358E-3
506.287766E-3
505.511284E-3
504.729080E-3
504.003525E-3
503.384972E-3
502.830505E-3
502.551270E-3
502.095795E-3
501.795959E-3
501.515007E-3
501.244926E-3
501.069260E-3
500.674438E-3
500.435257E-3
500.324249E-3
500.181770E-3
500.053596E-3
499.844170E-3
499.828720E-3
499.697685E-3
499.532318E-3
499.499130E-3
499.385262E-3
499.079704E-3
498.854256E-3
498.559570E-3
498.390198E-3
498.151016E-3
497.974205E-3
497.770500E-3
497.640610E-3
497.644043E-3
497.294998E-3
497.098732E-3
497.018051E-3
496.729660E-3
496.436119E-3
496.023560E-3
495.743179E-3
495.525742E-3
495.299149E-3
494.864273E-3
494.404793E-3
494.084358E-3
493.775368E-3
493.568802E-3
493.631744E-3
493.525887E-3
493.564796E-3
493.765640E-3
494.674873E-3
496.587753E-3
499.532890E-3
503.243637E-3
507.284546E-3
511.367226E-3
515.166664E-3
517.556190E-3
518.909454E-3
519.166374E-3
518.343544E-3
516.865540E-3
514.903450E-3
512.905884E-3
511.033058E-3
509.189987E-3
508.030701E-3
507.091141E-3
506.600189E-3
506.430244E-3
506.469727E-3
506.723213E-3
507.044792E-3
507.219887E-3
507.103157E-3
506.660843E-3
505.890656E-3
504.941940E-3
504.198647E-3
503.704834E-3
503.525162E-3
503.748894E-3
504.228401E-3
505.077553E-3
505.577087E-3
506.046867E-3
506.383896E-3
506.362724E-3
506.188202E-3
505.804253E-3
505.251503E-3
504.574585E-3
503.859329E-3
503.275108E-3
502.565002E-3
501.896667E-3
501.335335E-3
500.812340E-3
500.439835E-3
500.111961E-3
499.815559E-3
499.684525E-3
499.504280E-3
499.380112E-3
499.311447E-3
499.187279E-3
499.172401E-3
498.996162E-3
498.980713E-3
498.916054E-3
498.906326E-3
498.942947E-3
498.979568E-3
498.994446E-3
499.019623E-3
498.924065E-3
498.886299E-3
498.878288E-3
498.699760E-3
498.601341E-3
498.532104E-3
498.581886E-3
498.486328E-3
498.464584E-3
498.395920E-3
498.346138E-3
498.064041E-3
497.926712E-3
497.809410E-3
497.571945E-3
497.262955E-3
497.059822E-3
496.768570E-3
496.492195E-3
496.159744E-3
496.041870E-3
495.621300E-3
495.289993E-3
495.169258E-3
495.058250E-3
494.944382E-3
495.021057E-3
495.259666E-3
496.064758E-3
497.763062E-3
500.633240E-3
504.369736E-3
508.522224E-3
512.765694E-3
516.555405E-3
519.511414E-3
521.373940E-3
521.854591E-3
521.312141E-3
520.168304E-3
518.428802E-3
516.707039E-3
514.779854E-3
513.150787E-3
511.895943E-3
510.956383E-3
510.482025E-3
510.132980E-3
510.296631E-3
510.575867E-3
510.786438E-3
511.154366E-3
511.273384E-3
511.019897E-3
510.345268E-3
509.493256E-3
508.700180E-3
508.113098E-3
507.841873E-3
507.845306E-3
508.153725E-3
508.628082E-3
509.160233E-3
509.814835E-3
510.063744E-3
510.206223E-3
510.278320E-3
510.154152E-3
509.657478E-3
509.199142E-3
508.571434E-3
507.909393E-3
507.154083E-3
506.395912E-3
505.653763E-3
504.891586E-3
504.379463E-3
503.810120E-3
503.351212E-3
502.916336E-3
502.653694E-3
502.470016E-3
502.297211E-3
502.107239E-3
501.961327E-3
501.794815E-3
501.690674E-3
501.470375E-3
501.330185E-3
501.371956E-3
501.347351E-3
501.331329E-3
501.239777E-3
501.202583E-3
501.345062E-3
501.265526E-3
501.132202E-3
501.063538E-3
500.866699E-3
500.664711E-3
500.509071E-3
500.330544E-3
500.065613E-3
500.011826E-3
499.831581E-3
499.661064E-3
499.670792E-3
499.540901E-3
499.342918E-3
499.236488E-3
498.919487E-3
498.738670E-3
498.496056E-3
498.216820E-3
497.913551E-3
497.322464E-3
497.130203E-3
496.921921E-3
496.654129E-3
496.438408E-3
496.148300E-3
496.025848E-3
495.921135E-3
496.010399E-3
496.520233E-3
497.223473E-3
499.258232E-3
502.235413E-3
506.035423E-3
510.363579E-3
514.645386E-3
518.529510E-3
521.479797E-3
523.030472E-3
523.757172E-3
523.093414E-3
521.790504E-3
520.036125E-3
517.976189E-3
516.092491E-3
514.265442E-3
512.983704E-3
512.039566E-3
511.582375E-3
511.460495E-3
511.550903E-3
511.901093E-3
512.246704E-3
512.565994E-3
512.773705E-3
512.595749E-3
511.776352E-3
511.066246E-3
510.034561E-3
509.149933E-3
508.511353E-3
508.305359E-3
508.345413E-3
508.540535E-3
508.992004E-3
509.509277E-3
509.802818E-3
509.900665E-3
509.853172E-3
509.699249E-3
509.211731E-3
508.745384E-3
508.098793E-3
507.497406E-3
506.756973E-3
505.954170E-3
505.296135E-3
504.578018E-3
503.919983E-3
503.403854E-3
502.755547E-3
502.085495E-3
501.798820E-3
501.365089E-3
501.044083E-3
500.772858E-3
500.576019E-3
500.438118E-3
500.231552E-3
500.143433E-3
500.031281E-3
499.806976E-3
499.686241E-3
499.455643E-3
499.387550E-3
499.154091E-3
498.975563E-3
498.758698E-3
498.544121E-3
498.351288E-3
498.232269E-3
498.066330E-3
497.912407E-3
497.710991E-3
497.531319E-3
497.254944E-3
496.969414E-3
496.654129E-3
496.544266E-3
496.238136E-3
495.958900E-3
495.732880E-3
495.550919E-3
495.369530E-3
495.302010E-3
495.166969E-3
494.904327E-3
494.608498E-3
494.477463E-3
494.266319E-3
493.850327E-3
493.584251E-3
493.425179E-3
493.025208E-3
492.742538E-3
492.580605E-3
492.455864E-3
492.489052E-3
492.459297E-3
492.824936E-3
493.528748E-3
495.233917E-3
498.096085E-3
501.630592E-3
505.718422E-3
509.662056E-3
513.248062E-3
515.919113E-3
517.433167E-3
517.821121E-3
517.112160E-3
515.750313E-3
513.677788E-3
511.677361E-3
509.719849E-3
507.954025E-3
506.553268E-3
505.455780E-3
504.798317E-3
504.586601E-3
504.536819E-3
504.639244E-3
504.972267E-3
505.301285E-3
505.455780E-3
505.207443E-3
504.603195E-3
503.702545E-3
502.873993E-3
502.459145E-3
502.293205E-3
502.369308E-3
502.599335E-3
503.182411E-3
503.897095E-3
504.381180E-3
504.873848E-3
505.078697E-3
504.908180E-3
504.733086E-3
504.022980E-3
503.268242E-3
502.585602E-3
501.925850E-3
501.216316E-3
500.424385E-3
499.772072E-3
499.298859E-3
498.599625E-3
498.255157E-3
497.855186E-3
497.584534E-3
497.303581E-3
497.024918E-3
496.910477E-3
496.689606E-3
496.693039E-3
496.545410E-3
496.561432E-3
496.638680E-3
496.603775E-3
496.683884E-3
496.786308E-3
496.798897E-3
496.920204E-3
496.731377E-3
496.719360E-3
496.619797E-3
496.561432E-3
496.562576E-3
496.634102E-3
496.513939E-3
496.409798E-3
496.017265E-3
496.151733E-3
496.093369E-3
496.023560E-3
496.016121E-3
495.800400E-3
495.753479E-3
495.619011E-3
495.350647E-3
495.358086E-3
494.989586E-3
494.803619E-3
494.615936E-3
494.400215E-3
494.143295E-3
493.917274E-3
493.686676E-3
493.301010E-3
492.892456E-3
492.990303E-3
492.931366E-3
493.014336E-3
493.247223E-3
493.993378E-3
495.538330E-3
498.137856E-3
501.574516E-3
505.490112E-3
509.696388E-3
513.567352E-3
516.521072E-3
518.400764E-3
519.067955E-3
518.712616E-3
517.639160E-3
515.866470E-3
513.925552E-3
511.911392E-3
510.110092E-3
508.611488E-3
507.483673E-3
506.840515E-3
506.385040E-3
506.307793E-3
506.445694E-3
506.392479E-3
506.743813E-3
506.971550E-3
506.904602E-3
506.449127E-3
505.855179E-3
505.288696E-3
504.784584E-3
504.400635E-3
504.436111E-3
504.546547E-3
505.009460E-3
505.543327E-3
505.999947E-3
506.417084E-3
506.606483E-3
506.923485E-3
506.714630E-3
506.355286E-3
505.906677E-3
505.186272E-3
504.616356E-3
503.906250E-3
503.129196E-3
502.417946E-3
501.536179E-3
501.078415E-3
500.490761E-3
500.004387E-3
499.646187E-3
499.290276E-3
499.017334E-3
498.835373E-3
498.656273E-3
498.613930E-3
498.465157E-3
498.377037E-3
498.221397E-3
498.121834E-3
498.104668E-3
498.041153E-3
498.103523E-3
498.161888E-3
498.187065E-3
498.086357E-3
497.957039E-3
497.915840E-3
497.805405E-3
497.606850E-3
497.532463E-3
497.451782E-3
497.356224E-3
497.371674E-3
497.030067E-3
496.884155E-3
496.649551E-3
496.382332E-3
496.143150E-3
495.903969E-3
495.814705E-3
495.697403E-3
495.703697E-3
495.447922E-3
495.377541E-3
495.172119E-3
494.864845E-3
494.737816E-3
494.535828E-3
494.294930E-3
494.016266E-3
493.754768E-3
493.508720E-3
493.200874E-3
492.957115E-3
493.001175E-3
493.016624E-3
493.212318E-3
494.171333E-3
495.983505E-3
498.912048E-3
502.499771E-3
506.669426E-3
510.948944E-3
514.762688E-3
517.795944E-3
519.632721E-3
520.461273E-3
520.014381E-3
518.813324E-3
517.208862E-3
515.270233E-3
513.388252E-3
511.672783E-3
510.196495E-3
509.224319E-3
508.535385E-3
508.210373E-3
508.126259E-3
508.375740E-3
508.688736E-3
509.057808E-3
509.303284E-3
509.426880E-3
509.185982E-3
508.717346E-3
507.797813E-3
507.036209E-3
506.359291E-3
505.883217E-3
505.751038E-3
505.837440E-3
506.280899E-3
506.573868E-3
506.905746E-3
507.247925E-3
507.389832E-3
507.385826E-3
507.146072E-3
506.755829E-3
506.239128E-3
505.579948E-3
504.798889E-3
504.067612E-3
503.200150E-3
502.487183E-3
501.718712E-3
501.020050E-3
500.473595E-3
499.979210E-3
499.681091E-3
499.218750E-3
498.977852E-3
498.553276E-3
498.251724E-3
498.063469E-3
497.693825E-3
497.515869E-3
497.381401E-3
497.088432E-3
497.151375E-3
496.942520E-3
496.929932E-3
496.838379E-3
496.693039E-3
496.573448E-3
496.332550E-3
496.074486E-3
496.139145E-3
495.799828E-3
495.566368E-3
495.323181E-3
495.182991E-3
495.107460E-3
494.852829E-3
494.637680E-3
494.306374E-3
494.050026E-3
493.877792E-3
493.694115E-3
493.508720E-3
493.372536E-3
493.226624E-3
493.063545E-3
492.902756E-3
492.790031E-3
492.834091E-3
492.599487E-3
492.365456E-3
492.202377E-3
491.966629E-3
491.657639E-3
491.339493E-3
491.013336E-3
490.639687E-3
490.760994E-3
490.674019E-3
490.668869E-3
490.720367E-3
491.376114E-3
493.048668E-3
495.645332E-3
499.143791E-3
503.012466E-3
506.928062E-3
510.536385E-3
513.212585E-3
514.754677E-3
515.249634E-3
514.642525E-3
513.313293E-3
511.640739E-3
509.571648E-3
507.797241E-3
506.074333E-3
504.674721E-3
503.556633E-3
502.826500E-3
502.514076E-3
502.341843E-3
502.625084E-3
502.795601E-3
503.091431E-3
503.300285E-3
503.230476E-3
502.706909E-3
502.024269E-3
501.249504E-3
500.679016E-3
500.347137E-3
500.439835E-3
500.676727E-3
501.251793E-3
501.895523E-3
502.390480E-3
502.794456E-3
502.967834E-3
502.966690E-3
502.694893E-3
502.311516E-3
501.801682E-3
501.256943E-3
500.590897E-3
499.908829E-3
499.080849E-3
498.366165E-3
497.757912E-3
497.276688E-3
496.747398E-3
496.185493E-3
495.917702E-3
495.657349E-3
495.545197E-3
495.417023E-3
495.312309E-3
495.307159E-3
494.976425E-3
495.066261E-3
495.087433E-3
495.077705E-3
495.153809E-3
495.138359E-3
495.189857E-3
495.169258E-3
495.222473E-3
495.311165E-3
495.311165E-3
495.308876E-3
495.320320E-3
495.164680E-3
495.123482E-3
495.065689E-3
495.103455E-3
494.979858E-3
494.904900E-3
494.805336E-3
494.730949E-3
494.627380E-3
494.530106E-3
494.447136E-3
494.270897E-3
494.195938E-3
493.899536E-3
493.683243E-3
493.346214E-3
493.184280E-3
492.919922E-3
492.628098E-3
492.366028E-3
492.220116E-3
492.058182E-3
492.072487E-3
492.109680E-3
492.444992E-3
493.152809E-3
495.052528E-3
497.915840E-3
501.451492E-3
505.373383E-3
509.296417E-3
512.919044E-3
515.542603E-3
517.066383E-3
517.596245E-3
517.081833E-3
515.807533E-3
513.971901E-3
512.050438E-3
510.371017E-3
508.677292E-3
507.319450E-3
506.409645E-3
505.813980E-3
505.570793E-3
505.555916E-3
505.601692E-3
505.903244E-3
506.310654E-3
506.280899E-3
506.062889E-3
505.459213E-3
504.822922E-3
504.262733E-3
503.859901E-3
503.580093E-3
503.772926E-3
504.115105E-3
504.526520E-3
505.105591E-3
505.622292E-3
505.993080E-3
506.189346E-3
506.355286E-3
506.191063E-3
505.894661E-3
505.408287E-3
504.842949E-3
504.127121E-3
503.486824E-3
502.752113E-3
502.009964E-3
501.275826E-3
500.734520E-3
500.097656E-3
499.532318E-3
499.126625E-3
498.698616E-3
498.477173E-3
498.262024E-3
498.131561E-3
497.994804E-3
498.114967E-3
497.775078E-3
497.444916E-3
497.346497E-3
497.331047E-3
497.274399E-3
497.250366E-3
497.224045E-3
497.157669E-3
497.244072E-3
497.245216E-3
497.135925E-3
497.121048E-3
497.142220E-3
497.046661E-3
496.950531E-3
496.774292E-3
496.622658E-3
496.548843E-3
496.532822E-3
496.457291E-3
496.342278E-3
496.320534E-3
496.168900E-3
496.097374E-3
495.972633E-3
495.843887E-3
495.541191E-3
495.324326E-3
495.124626E-3
494.859123E-3
494.547272E-3
494.383049E-3
494.067192E-3
493.828011E-3
493.770218E-3
493.775940E-3
494.051743E-3
494.423103E-3
495.450211E-3
497.539330E-3
500.559998E-3
504.318810E-3
508.069038E-3
512.270737E-3
515.793228E-3
518.269730E-3
519.688225E-3
519.895363E-3
519.374657E-3
518.017960E-3
516.242409E-3
514.579010E-3
512.702179E-3
511.170387E-3
510.021973E-3
509.154510E-3
508.773422E-3
508.666420E-3
508.799744E-3
509.117317E-3
509.469223E-3
509.790802E-3
509.801674E-3
509.722710E-3
509.261513E-3
508.418655E-3
507.465935E-3
506.727791E-3
506.222534E-3
506.112671E-3
505.997658E-3
506.360435E-3
506.775856E-3
507.279396E-3
507.557487E-3
507.675934E-3
507.715416E-3
507.512856E-3
506.993866E-3
506.703186E-3
506.171608E-3
505.635452E-3
504.992294E-3
504.263878E-3
503.569794E-3
502.844238E-3
502.199936E-3
501.757050E-3
501.232338E-3
500.711060E-3
500.356865E-3
500.080490E-3
499.795532E-3
499.623871E-3
499.402428E-3
499.158096E-3
499.047661E-3
498.893738E-3
498.657990E-3
498.541260E-3
498.382759E-3
498.294640E-3
498.039436E-3
498.121262E-3
497.943306E-3
497.675514E-3
497.526169E-3
497.279549E-3
497.121048E-3
497.027206E-3
496.812630E-3
496.509361E-3
496.361732E-3
495.997238E-3
495.861053E-3
495.645332E-3
495.480537E-3
495.303154E-3
495.091438E-3
494.935226E-3
494.857407E-3
494.671440E-3
494.443703E-3
494.052887E-3
493.888092E-3
493.623161E-3
493.283844E-3
492.905617E-3
492.664146E-3
492.479897E-3
492.082787E-3
491.952896E-3
491.951180E-3
492.033005E-3
492.113113E-3
492.363167E-3
493.477821E-3
495.549202E-3
498.586464E-3
502.526665E-3
506.255150E-3
510.077477E-3
513.218307E-3
515.433311E-3
516.489601E-3
516.388321E-3
515.506554E-3
513.961029E-3
512.093353E-3
510.293198E-3
508.572578E-3
507.167816E-3
506.052589E-3
505.244637E-3
504.919052E-3
504.833794E-3
504.999161E-3
505.238914E-3
505.598831E-3
505.827141E-3
505.730438E-3
505.365372E-3
504.593468E-3
503.750610E-3
503.383827E-3
502.808189E-3
502.710915E-3
502.861977E-3
503.388405E-3
503.974342E-3
504.538536E-3
505.022621E-3
505.291557E-3
505.482101E-3
505.159378E-3
504.662704E-3
504.152298E-3
503.482246E-3
502.700615E-3
502.114105E-3
501.363373E-3
500.693321E-3
499.991798E-3
499.427605E-3
498.945808E-3
498.404503E-3
498.105240E-3
497.791672E-3
497.635460E-3
497.413445E-3
497.249794E-3
497.301292E-3
497.165680E-3
497.099876E-3
497.174835E-3
497.109032E-3
497.159958E-3
497.201157E-3
497.162247E-3
497.164536E-3
496.986008E-3
497.163963E-3
497.208595E-3
497.170830E-3
497.276688E-3
497.205162E-3
497.185707E-3
497.139359E-3
497.067833E-3
