Notes :


2023-10-25 ¿ÀÈÄ 9:58:47
Volts
Ch : LED 2,
260.852623E-3
260.750771E-3
260.700989E-3
260.379410E-3
260.601997E-3
260.190582E-3
260.108757E-3
260.202599E-3
260.050964E-3
260.305023E-3
259.961128E-3
259.942818E-3
260.008049E-3
259.844971E-3
260.089302E-3
259.858131E-3
259.814072E-3
259.981155E-3
259.492493E-3
260.060120E-3
259.889603E-3
259.890175E-3
259.924507E-3
259.760857E-3
260.161972E-3
259.939384E-3
259.909630E-3
260.073853E-3
259.981728E-3
260.282707E-3
259.986305E-3
260.045242E-3
260.108185E-3
259.938812E-3
260.138512E-3
259.802628E-3
259.872437E-3
259.992027E-3
259.827232E-3
260.168839E-3
259.818077E-3
259.731674E-3
259.744835E-3
259.472466E-3
259.704781E-3
259.332275E-3
259.346008E-3
259.620094E-3
259.737968E-3
260.519600E-3
261.026001E-3
261.895180E-3
262.931442E-3
263.746834E-3
264.775085E-3
265.095520E-3
265.401077E-3
265.629387E-3
265.532684E-3
265.616798E-3
264.985657E-3
264.497566E-3
264.248657E-3
263.739395E-3
263.689613E-3
263.140297E-3
262.967491E-3
262.857056E-3
262.787819E-3
262.949181E-3
262.699699E-3
262.583542E-3
262.524605E-3
262.209320E-3
262.296867E-3
261.761856E-3
261.491776E-3
261.273766E-3
261.091232E-3
261.222839E-3
260.983658E-3
261.007690E-3
261.190796E-3
261.150742E-3
261.428833E-3
261.258888E-3
261.285782E-3
261.353874E-3
261.173630E-3
261.151886E-3
260.727310E-3
260.667229E-3
260.498428E-3
260.314751E-3
260.388565E-3
260.104179E-3
259.996605E-3
259.934235E-3
259.768867E-3
259.929657E-3
259.641838E-3
259.533119E-3
259.597206E-3
259.558296E-3
259.751701E-3
259.614944E-3
259.547997E-3
259.610939E-3
259.518814E-3
259.624672E-3
259.527397E-3
259.495926E-3
259.513092E-3
259.491348E-3
259.694481E-3
259.459877E-3
259.444427E-3
259.531975E-3
259.438705E-3
259.590912E-3
259.341431E-3
259.212112E-3
259.307671E-3
259.275055E-3
259.450150E-3
259.337997E-3
259.403801E-3
259.410095E-3
259.182930E-3
259.285927E-3
259.117699E-3
259.113693E-3
259.069061E-3
258.854485E-3
259.021568E-3
258.827591E-3
258.698845E-3
258.757782E-3
258.681107E-3
258.878517E-3
258.766937E-3
258.958626E-3
259.554291E-3
260.104752E-3
261.161041E-3
262.028503E-3
263.054466E-3
264.042091E-3
264.704704E-3
265.425682E-3
265.509224E-3
265.458298E-3
265.192795E-3
264.765358E-3
264.478683E-3
263.866425E-3
263.514519E-3
263.300514E-3
262.950897E-3
262.983513E-3
262.725449E-3
262.687683E-3
262.804413E-3
262.641907E-3
262.908554E-3
262.705421E-3
262.597275E-3
262.437057E-3
261.942101E-3
261.914062E-3
261.385345E-3
261.075211E-3
260.995674E-3
260.718155E-3
260.964775E-3
260.892105E-3
260.909271E-3
261.104393E-3
261.042595E-3
261.348152E-3
261.112976E-3
260.960197E-3
260.948181E-3
260.651207E-3
260.729599E-3
260.423470E-3
260.297585E-3
260.184860E-3
259.938812E-3
260.068130E-3
259.861565E-3
259.713936E-3
259.726524E-3
259.521103E-3
259.601212E-3
259.436417E-3
259.404945E-3
259.440422E-3
259.334564E-3
259.541702E-3
259.418678E-3
259.392929E-3
259.497070E-3
259.329987E-3
259.440994E-3
259.348297E-3
259.228706E-3
259.378052E-3
259.087372E-3
259.303093E-3
259.290504E-3
259.295082E-3
259.400368E-3
259.151459E-3
259.360313E-3
259.267044E-3
259.078217E-3
259.300232E-3
259.189224E-3
259.328270E-3
259.152603E-3
259.003258E-3
259.142303E-3
258.551216E-3
259.038162E-3
259.035873E-3
259.003830E-3
259.125710E-3
259.034729E-3
259.097672E-3
258.958626E-3
258.837891E-3
258.890533E-3
258.798409E-3
258.860207E-3
258.922577E-3
259.075356E-3
259.630394E-3
259.796906E-3
261.202240E-3
262.193871E-3
263.277054E-3
264.306450E-3
264.868355E-3
265.374184E-3
265.538406E-3
265.417671E-3
265.275192E-3
264.701271E-3
264.391708E-3
263.828087E-3
263.504791E-3
263.375473E-3
262.666512E-3
262.986946E-3
262.843323E-3
262.827873E-3
263.059044E-3
262.859917E-3
263.085937E-3
262.893105E-3
262.704849E-3
262.627029E-3
262.012482E-3
262.106323E-3
261.868286E-3
261.789894E-3
261.836243E-3
261.681747E-3
261.985016E-3
261.931801E-3
262.012482E-3
262.277412E-3
262.106323E-3
262.300873E-3
262.116623E-3
261.983299E-3
262.063408E-3
261.648560E-3
261.786461E-3
261.488342E-3
261.283493E-3
261.351013E-3
261.005402E-3
261.166191E-3
261.054039E-3
260.860634E-3
260.857773E-3
260.742760E-3
260.860062E-3
260.842323E-3
260.810280E-3
260.820007E-3
260.627747E-3
260.811424E-3
260.719872E-3
260.610008E-3
260.703850E-3
260.652351E-3
260.840034E-3
260.789680E-3
260.731316E-3
260.870361E-3
260.511017E-3
260.721588E-3
260.763359E-3
260.577393E-3
260.695839E-3
260.535049E-3
260.751343E-3
260.592270E-3
260.454941E-3
260.561371E-3
260.365677E-3
260.571671E-3
260.444069E-3
260.392570E-3
260.354233E-3
260.223770E-3
260.257530E-3
260.191727E-3
259.943962E-3
259.967422E-3
259.800339E-3
259.887886E-3
259.773445E-3
259.519958E-3
259.673309E-3
259.648132E-3
260.169411E-3
260.777092E-3
261.541557E-3
262.589836E-3
263.345718E-3
264.430618E-3
265.211105E-3
265.628815E-3
266.056252E-3
265.900612E-3
266.057968E-3
265.756989E-3
265.173340E-3
264.785385E-3
264.222908E-3
264.105606E-3
263.726234E-3
263.385201E-3
263.357735E-3
263.056755E-3
263.336563E-3
263.271332E-3
263.123131E-3
263.203239E-3
262.938881E-3
262.857056E-3
262.606430E-3
262.172699E-3
261.934090E-3
261.555290E-3
261.773300E-3
261.655426E-3
261.340141E-3
261.516380E-3
261.470032E-3
261.764145E-3
261.745834E-3
261.610222E-3
261.786461E-3
261.528397E-3
261.610222E-3
261.524963E-3
261.227417E-3
261.123276E-3
260.794258E-3
260.835457E-3
260.692406E-3
260.401154E-3
260.373116E-3
260.185432E-3
260.408020E-3
260.119057E-3
259.929085E-3
260.040665E-3
259.913063E-3
260.182571E-3
260.046387E-3
259.804916E-3
259.940529E-3
259.704208E-3
259.933090E-3
259.850693E-3
259.659004E-3
259.753990E-3
259.580040E-3
259.836388E-3
259.776306E-3
259.625816E-3
259.719086E-3
259.520531E-3
259.806633E-3
259.710503E-3
259.449577E-3
259.546280E-3
259.397507E-3
259.546852E-3
259.505653E-3
259.342003E-3
259.381485E-3
259.208107E-3
259.467888E-3
259.379768E-3
259.258461E-3
259.370041E-3
259.178352E-3
259.343719E-3
259.196091E-3
258.923721E-3
259.106255E-3
258.932304E-3
259.107399E-3
259.056473E-3
258.926010E-3
258.916855E-3
258.649635E-3
258.848190E-3
258.893394E-3
259.113121E-3
259.951401E-3
260.739899E-3
261.886597E-3
262.857056E-3
263.777733E-3
264.631462E-3
265.030861E-3
265.509796E-3
265.544701E-3
265.118980E-3
264.969063E-3
264.422607E-3
264.145660E-3
263.697624E-3
263.201523E-3
263.041306E-3
262.730598E-3
262.696266E-3
262.685394E-3
262.514877E-3
262.633324E-3
262.544060E-3
262.662506E-3
262.686539E-3
262.203026E-3
262.243652E-3
261.910057E-3
261.682320E-3
261.447144E-3
261.113548E-3
261.076927E-3
260.852051E-3
261.038017E-3
261.110115E-3
261.009979E-3
261.223984E-3
261.172485E-3
261.307526E-3
261.257744E-3
261.051178E-3
261.095238E-3
260.832024E-3
260.807419E-3
260.679245E-3
260.402298E-3
260.405159E-3
260.220337E-3
260.273552E-3
260.006905E-3
259.841537E-3
259.968567E-3
259.755135E-3
259.810638E-3
259.893608E-3
259.713936E-3
259.783745E-3
259.696198E-3
259.824371E-3
259.791183E-3
259.475327E-3
259.692192E-3
259.620667E-3
259.809494E-3
259.827232E-3
259.712219E-3
259.894180E-3
259.643555E-3
259.640694E-3
259.598923E-3
259.471893E-3
259.752846E-3
259.530830E-3
259.687614E-3
259.700775E-3
259.244156E-3
259.598923E-3
259.449577E-3
259.590340E-3
259.477615E-3
259.383774E-3
259.679604E-3
259.501076E-3
259.661293E-3
259.608650E-3
259.491348E-3
259.560585E-3
259.285927E-3
259.347153E-3
259.293938E-3
259.212685E-3
259.321404E-3
259.212112E-3
259.245300E-3
259.190369E-3
258.991241E-3
259.133720E-3
259.073067E-3
259.541702E-3
260.289574E-3
260.959053E-3
261.909485E-3
262.763786E-3
263.915062E-3
264.796829E-3
265.081215E-3
265.224266E-3
265.158463E-3
265.088081E-3
264.973068E-3
264.431763E-3
264.177132E-3
263.563156E-3
263.270187E-3
262.911987E-3
262.521744E-3
262.612724E-3
262.456512E-3
262.549210E-3
262.622452E-3
262.463951E-3
262.457657E-3
262.458801E-3
262.526894E-3
262.236786E-3
261.874008E-3
261.716080E-3
261.523247E-3
261.455727E-3
261.564445E-3
261.496353E-3
261.748123E-3
261.870575E-3
261.945534E-3
262.061119E-3
261.935806E-3
262.223625E-3
262.000465E-3
261.874580E-3
261.793327E-3
261.437988E-3
261.473465E-3
261.181068E-3
261.177635E-3
261.132431E-3
260.764503E-3
260.883522E-3
260.673523E-3
260.656929E-3
260.615158E-3
260.190010E-3
260.523605E-3
260.308456E-3
260.398865E-3
260.444641E-3
260.241508E-3
260.579681E-3
260.157394E-3
260.107613E-3
260.112190E-3
259.952545E-3
260.359955E-3
260.073280E-3
260.133934E-3
260.129356E-3
259.914207E-3
260.148811E-3
259.844398E-3
259.768295E-3
259.778595E-3
259.546852E-3
259.842682E-3
259.626389E-3
259.636116E-3
259.627533E-3
259.500504E-3
259.795189E-3
259.471893E-3
259.539413E-3
259.478760E-3
258.786392E-3
259.389496E-3
259.086800E-3
259.004974E-3
259.056473E-3
258.476830E-3
259.075356E-3
258.880234E-3
258.895683E-3
258.932877E-3
258.677101E-3
259.089088E-3
259.131432E-3
259.704781E-3
260.611725E-3
261.381340E-3
262.609291E-3
263.369179E-3
264.165115E-3
264.867783E-3
265.068054E-3
265.543556E-3
265.172768E-3
264.842606E-3
264.550781E-3
263.885880E-3
263.731956E-3
263.053322E-3
262.672234E-3
262.533188E-3
262.314034E-3
262.587547E-3
262.310600E-3
262.268257E-3
262.335205E-3
262.137222E-3
262.358665E-3
262.010193E-3
261.799622E-3
261.680031E-3
261.397934E-3
261.334419E-3
260.835457E-3
260.706139E-3
260.707283E-3
260.673523E-3
261.091805E-3
260.863495E-3
261.020851E-3
261.088943E-3
260.588837E-3
261.105537E-3
260.903549E-3
260.694122E-3
260.697556E-3
260.429192E-3
260.603142E-3
260.072708E-3
259.910202E-3
259.858131E-3
259.687042E-3
259.815788E-3
259.475327E-3
259.332848E-3
259.308243E-3
259.211540E-3
259.315681E-3
259.103394E-3
259.108543E-3
259.275055E-3
259.133148E-3
259.383774E-3
259.023857E-3
258.997536E-3
259.032440E-3
259.030151E-3
259.209251E-3
258.990669E-3
259.022713E-3
259.118271E-3
259.030724E-3
259.256172E-3
258.948326E-3
258.899117E-3
258.953476E-3
258.952332E-3
259.118843E-3
258.888817E-3
258.847618E-3
258.738327E-3
258.638763E-3
258.964348E-3
258.689690E-3
258.650780E-3
258.846474E-3
258.685112E-3
258.816719E-3
258.606148E-3
258.645630E-3
258.611870E-3
258.473969E-3
258.629036E-3
258.278275E-3
258.414459E-3
258.370972E-3
258.233643E-3
258.313751E-3
258.045959E-3
258.036232E-3
258.392143E-3
258.843613E-3
259.792328E-3
260.429764E-3
261.493492E-3
262.359810E-3
262.644768E-3
263.872147E-3
264.272690E-3
264.547348E-3
264.506149E-3
263.982582E-3
263.890457E-3
263.269615E-3
262.871933E-3
262.402725E-3
261.920357E-3
261.833382E-3
261.370468E-3
261.244583E-3
261.218262E-3
261.161613E-3
261.301804E-3
261.172485E-3
261.051178E-3
261.158180E-3
260.993385E-3
261.123276E-3
260.699272E-3
260.478401E-3
260.370255E-3
259.626389E-3
259.957123E-3
259.884453E-3
259.965706E-3
260.206032E-3
260.097313E-3
260.408592E-3
260.348511E-3
260.341072E-3
260.416031E-3
260.168266E-3
260.283852E-3
259.946823E-3
259.828949E-3
259.695053E-3
259.490776E-3
259.539986E-3
259.321976E-3
259.094238E-3
259.158897E-3
258.972931E-3
259.071922E-3
258.964348E-3
258.775520E-3
258.845329E-3
258.769226E-3
258.889961E-3
258.727455E-3
258.630753E-3
258.845329E-3
258.701134E-3
258.867073E-3
258.628464E-3
258.643913E-3
258.820724E-3
258.657646E-3
258.954048E-3
258.757210E-3
258.795547E-3
258.768654E-3
258.614159E-3
258.865929E-3
258.649635E-3
258.579826E-3
258.636475E-3
258.449364E-3
258.801842E-3
258.622169E-3
258.728600E-3
258.687401E-3
258.626747E-3
258.756638E-3
258.591843E-3
258.623314E-3
258.726311E-3
258.592415E-3
258.749771E-3
258.476830E-3
258.431053E-3
258.349800E-3
258.193588E-3
258.541489E-3
258.248520E-3
258.278275E-3
258.405304E-3
258.286285E-3
258.747482E-3
259.243584E-3
259.990883E-3
261.054611E-3
261.951828E-3
263.112259E-3
263.759422E-3
264.304733E-3
264.767075E-3
264.734459E-3
264.836311E-3
264.403725E-3
263.967133E-3
263.692474E-3
263.025284E-3
262.739182E-3
262.245369E-3
261.882591E-3
261.832237E-3
261.269188E-3
261.598778E-3
261.660576E-3
261.648560E-3
261.721230E-3
260.990524E-3
261.506081E-3
261.380196E-3
261.251450E-3
261.157036E-3
261.043167E-3
261.058044E-3
261.012840E-3
261.033440E-3
261.172485E-3
261.197662E-3
261.490631E-3
261.401367E-3
261.457443E-3
261.583328E-3
261.332130E-3
261.433983E-3
261.217117E-3
261.058044E-3
261.016273E-3
260.115051E-3
260.422897E-3
260.408592E-3
260.278130E-3
260.417175E-3
260.090446E-3
260.108757E-3
260.060692E-3
259.905624E-3
259.934807E-3
259.808350E-3
259.876442E-3
259.718513E-3
259.594345E-3
259.838676E-3
259.598351E-3
259.706497E-3
259.665298E-3
259.570885E-3
259.646988E-3
259.398079E-3
259.645271E-3
259.513092E-3
259.367180E-3
259.454155E-3
259.245300E-3
259.423828E-3
259.305954E-3
259.265900E-3
259.361458E-3
259.210396E-3
259.343719E-3
259.204102E-3
259.082222E-3
259.181786E-3
259.081078E-3
259.221840E-3
259.124565E-3
258.911133E-3
258.965492E-3
258.709717E-3
258.831024E-3
258.770943E-3
258.550072E-3
258.710289E-3
258.385277E-3
258.580399E-3
258.496857E-3
258.548355E-3
259.026718E-3
259.262466E-3
260.515594E-3
261.589050E-3
262.385559E-3
263.368607E-3
263.848686E-3
264.620018E-3
264.772224E-3
264.749908E-3
264.614296E-3
264.031219E-3
263.923073E-3
263.186073E-3
262.576675E-3
262.310600E-3
261.668587E-3
261.777878E-3
261.626816E-3
261.469460E-3
261.422539E-3
261.186790E-3
261.360168E-3
261.249733E-3
261.085510E-3
261.053467E-3
260.723305E-3
260.740471E-3
260.606575E-3
260.311317E-3
260.392570E-3
260.044670E-3
260.274124E-3
260.282707E-3
260.223198E-3
260.445213E-3
260.409164E-3
260.599136E-3
260.501289E-3
260.406303E-3
260.315323E-3
260.025215E-3
260.073853E-3
259.941101E-3
259.723663E-3
259.684181E-3
259.343147E-3
259.423828E-3
259.312820E-3
259.069633E-3
259.016991E-3
258.630180E-3
258.782959E-3
258.740044E-3
258.677673E-3
258.746910E-3
258.602142E-3
258.804703E-3
258.791542E-3
258.577538E-3
258.668518E-3
258.485985E-3
258.655357E-3
258.640480E-3
258.514023E-3
258.611870E-3
258.442497E-3
258.654213E-3
258.562088E-3
258.402443E-3
258.578110E-3
258.358955E-3
258.600998E-3
258.459091E-3
258.272552E-3
258.253670E-3
258.171272E-3
258.449936E-3
258.407593E-3
258.221626E-3
258.356094E-3
258.075142E-3
258.286858E-3
258.218765E-3
257.912636E-3
258.063698E-3
257.856560E-3
258.114052E-3
257.936668E-3
257.740402E-3
257.774162E-3
257.517242E-3
257.850838E-3
257.967567E-3
258.382416E-3
259.177780E-3
260.055542E-3
261.230850E-3
262.170982E-3
262.835884E-3
263.571739E-3
263.778877E-3
264.096451E-3
264.003754E-3
263.594627E-3
263.334846E-3
262.720299E-3
262.370110E-3
261.807632E-3
261.211395E-3
260.997391E-3
260.727882E-3
260.740471E-3
260.650635E-3
260.465813E-3
260.669518E-3
260.527039E-3
260.749054E-3
260.637474E-3
