Notes :


2023-11-04 ¿ÀÈÄ 10:12:26
Volts
Ch : LED 2,
433.858681E-3
433.632088E-3
433.568573E-3
433.396339E-3
433.238411E-3
432.660484E-3
432.701111E-3
432.669067E-3
432.571220E-3
432.388687E-3
432.186699E-3
432.060242E-3
431.894875E-3
431.743813E-3
431.432533E-3
431.413651E-3
431.360435E-3
431.273460E-3
431.234550E-3
431.148720E-3
431.080627E-3
430.879784E-3
430.786514E-3
430.547333E-3
430.391121E-3
430.256653E-3
430.148506E-3
430.023766E-3
429.692459E-3
429.586029E-3
429.468155E-3
429.330254E-3
429.400063E-3
429.164886E-3
429.072189E-3
428.816986E-3
428.645325E-3
428.415871E-3
428.271103E-3
428.001595E-3
427.758408E-3
427.665710E-3
427.391624E-3
427.233124E-3
427.408218E-3
428.289986E-3
430.084991E-3
432.459641E-3
435.229683E-3
438.113022E-3
440.869904E-3
443.072891E-3
444.735718E-3
445.763969E-3
445.956230E-3
445.683289E-3
444.881630E-3
443.859100E-3
442.737579E-3
441.641235E-3
440.576363E-3
439.754677E-3
439.077759E-3
438.545036E-3
438.369942E-3
438.272095E-3
438.257217E-3
438.178825E-3
438.130760E-3
438.110161E-3
437.909317E-3
437.547112E-3
437.001228E-3
436.461067E-3
436.016464E-3
435.721207E-3
435.567284E-3
435.553551E-3
435.633087E-3
435.714340E-3
435.920334E-3
436.204147E-3
436.331749E-3
436.413574E-3
436.473656E-3
436.178398E-3
436.022758E-3
435.682297E-3
435.360146E-3
434.905243E-3
434.577370E-3
434.155083E-3
433.676720E-3
433.158302E-3
432.900810E-3
432.588387E-3
432.370949E-3
432.128906E-3
431.903458E-3
431.698036E-3
431.657982E-3
431.457710E-3
431.272316E-3
431.216812E-3
431.138992E-3
430.951309E-3
430.864334E-3
430.725288E-3
430.605125E-3
430.462074E-3
430.320740E-3
430.405998E-3
430.237770E-3
430.139923E-3
430.007172E-3
429.891014E-3
429.867554E-3
429.642105E-3
429.631233E-3
429.567146E-3
429.385185E-3
429.314232E-3
429.223251E-3
429.279900E-3
429.079628E-3
428.894234E-3
428.758049E-3
428.461647E-3
428.271675E-3
428.043938E-3
427.727509E-3
427.575302E-3
427.336693E-3
427.325821E-3
427.552414E-3
428.479958E-3
430.441475E-3
432.782936E-3
435.548401E-3
438.411140E-3
441.073608E-3
443.360138E-3
445.114517E-3
446.277809E-3
446.563911E-3
446.415710E-3
445.654678E-3
444.652748E-3
443.707466E-3
442.623138E-3
441.720772E-3
440.987206E-3
440.436745E-3
440.068817E-3
439.984703E-3
439.905167E-3
439.885712E-3
439.980698E-3
440.131187E-3
440.040779E-3
439.907455E-3
439.621925E-3
439.043999E-3
438.333893E-3
437.801743E-3
437.430954E-3
437.207794E-3
437.034416E-3
437.038994E-3
437.114525E-3
437.158585E-3
437.332535E-3
437.546539E-3
437.573433E-3
437.487030E-3
437.461853E-3
437.277603E-3
436.931419E-3
436.643600E-3
436.304855E-3
435.877419E-3
435.318947E-3
434.975052E-3
434.679794E-3
434.409142E-3
434.066963E-3
433.823776E-3
433.589172E-3
433.315659E-3
433.206367E-3
433.126831E-3
432.843590E-3
432.634735E-3
432.602692E-3
432.450485E-3
432.248497E-3
432.150650E-3
432.049942E-3
431.917191E-3
431.893158E-3
431.738091E-3
431.656265E-3
431.494331E-3
431.490326E-3
431.360435E-3
431.258583E-3
431.302643E-3
431.081200E-3
430.975342E-3
430.868912E-3
430.698395E-3
430.736160E-3
430.533028E-3
430.411148E-3
430.281258E-3
430.230904E-3
430.066109E-3
429.849815E-3
429.663277E-3
429.559135E-3
429.418373E-3
429.390335E-3
429.251289E-3
429.219818E-3
429.008675E-3
428.960609E-3
428.922844E-3
428.930855E-3
428.873634E-3
428.836441E-3
428.618431E-3
428.491974E-3
428.374672E-3
428.133774E-3
427.906609E-3
427.790451E-3
427.790451E-3
427.898598E-3
428.886223E-3
430.475807E-3
433.007240E-3
435.902023E-3
438.877487E-3
441.918755E-3
444.626427E-3
446.793938E-3
448.220444E-3
448.858452E-3
448.770332E-3
448.175812E-3
447.197342E-3
445.928192E-3
444.830704E-3
443.881416E-3
443.019676E-3
442.422867E-3
442.090416E-3
441.836929E-3
441.782570E-3
441.831207E-3
441.676140E-3
441.871262E-3
442.025757E-3
442.076683E-3
441.925049E-3
441.474152E-3
441.027832E-3
440.403557E-3
439.753532E-3
439.262581E-3
439.039421E-3
439.020538E-3
438.848305E-3
439.029694E-3
439.091492E-3
439.158440E-3
439.482307E-3
439.419937E-3
439.298630E-3
439.283752E-3
439.057732E-3
438.787079E-3
438.497543E-3
438.161087E-3
437.809181E-3
437.529945E-3
437.102509E-3
436.761475E-3
436.594391E-3
436.217308E-3
436.100578E-3
435.812187E-3
435.592461E-3
435.330963E-3
434.979630E-3
434.829712E-3
434.680939E-3
434.577370E-3
434.374237E-3
434.143066E-3
434.040070E-3
433.983994E-3
433.766556E-3
433.617783E-3
433.510780E-3
433.372879E-3
433.283043E-3
433.089066E-3
432.927132E-3
432.814980E-3
432.654762E-3
432.524872E-3
432.512856E-3
432.404137E-3
432.137489E-3
431.948662E-3
431.767845E-3
431.600189E-3
431.449127E-3
431.349564E-3
431.112671E-3
430.741882E-3
430.773354E-3
430.752182E-3
430.691528E-3
430.531311E-3
430.449486E-3
430.296707E-3
430.213165E-3
430.105591E-3
430.027199E-3
429.670143E-3
429.468727E-3
429.305077E-3
429.106522E-3
429.068756E-3
429.178619E-3
429.665565E-3
430.791092E-3
432.646751E-3
435.289764E-3
438.282967E-3
441.173744E-3
443.977547E-3
446.309853E-3
447.817039E-3
448.811531E-3
448.850441E-3
448.429298E-3
447.529793E-3
446.473503E-3
445.347977E-3
444.323730E-3
443.393326E-3
442.657471E-3
442.216301E-3
441.821480E-3
441.545105E-3
441.561699E-3
441.657829E-3
441.674995E-3
441.707039E-3
441.703606E-3
441.625214E-3
441.284180E-3
440.659332E-3
439.970398E-3
439.322662E-3
438.933563E-3
438.789368E-3
438.619423E-3
438.686943E-3
438.774490E-3
438.926697E-3
438.956451E-3
439.035988E-3
439.026833E-3
438.897514E-3
438.719559E-3
438.558197E-3
438.303566E-3
437.837219E-3
437.531090E-3
437.066460E-3
436.656189E-3
436.288261E-3
435.824203E-3
435.516357E-3
435.159874E-3
434.817123E-3
434.529877E-3
434.351349E-3
434.110451E-3
433.944511E-3
433.791733E-3
433.622360E-3
433.453560E-3
433.378601E-3
433.275032E-3
433.111382E-3
432.915115E-3
432.899666E-3
432.834435E-3
432.667351E-3
432.546043E-3
432.459068E-3
432.345772E-3
432.361221E-3
432.373238E-3
432.230186E-3
432.142639E-3
432.027054E-3
431.922340E-3
431.855392E-3
431.732941E-3
431.611633E-3
431.627655E-3
431.507492E-3
431.326675E-3
431.098366E-3
430.863762E-3
430.693817E-3
430.483818E-3
430.220032E-3
430.015182E-3
429.727364E-3
429.564285E-3
429.471016E-3
429.676437E-3
430.496407E-3
432.158089E-3
434.438324E-3
437.127113E-3
439.943504E-3
442.404556E-3
444.796371E-3
446.373367E-3
447.391319E-3
447.659683E-3
447.412491E-3
446.710396E-3
445.735359E-3
444.688797E-3
443.532372E-3
442.702675E-3
441.898727E-3
441.374588E-3
441.018677E-3
440.697098E-3
440.616989E-3
440.596962E-3
440.656471E-3
440.738297E-3
440.585518E-3
440.400696E-3
440.000153E-3
439.447975E-3
438.821983E-3
438.356781E-3
437.872124E-3
437.614059E-3
437.687302E-3
437.652969E-3
437.703896E-3
437.861824E-3
437.947083E-3
438.088417E-3
438.146210E-3
438.163948E-3
438.081551E-3
437.858391E-3
437.542534E-3
437.131691E-3
436.699677E-3
436.355209E-3
435.878563E-3
435.472870E-3
435.276604E-3
434.832001E-3
434.519577E-3
434.206009E-3
433.959389E-3
433.768845E-3
433.558846E-3
433.349991E-3
433.136559E-3
432.805824E-3
432.807541E-3
432.772064E-3
432.656479E-3
432.572365E-3
432.497406E-3
432.377243E-3
432.260513E-3
432.169533E-3
432.137489E-3
432.085991E-3
431.997299E-3
431.762695E-3
431.697464E-3
431.544685E-3
431.493187E-3
431.414223E-3
431.247139E-3
431.127548E-3
431.008530E-3
430.934143E-3
430.790520E-3
430.661201E-3
430.509567E-3
430.366516E-3
430.258369E-3
430.140495E-3
430.134773E-3
430.054665E-3
429.899025E-3
429.929352E-3
429.828644E-3
429.691887E-3
429.592323E-3
429.441261E-3
429.236984E-3
429.135132E-3
428.860474E-3
428.656769E-3
428.486252E-3
428.423309E-3
428.548050E-3
429.180336E-3
430.664062E-3
432.865906E-3
435.642242E-3
438.686371E-3
441.557693E-3
444.277954E-3
446.472931E-3
447.959518E-3
448.759460E-3
448.858452E-3
448.412704E-3
447.600746E-3
446.570778E-3
445.559692E-3
444.596100E-3
443.831062E-3
443.199348E-3
442.888641E-3
442.795944E-3
442.668343E-3
442.731857E-3
442.852020E-3
443.072891E-3
443.139267E-3
443.171310E-3
443.091774E-3
442.789650E-3
442.487526E-3
441.613197E-3
440.872765E-3
440.253639E-3
439.760971E-3
439.607620E-3
439.524078E-3
439.468575E-3
439.518356E-3
439.450836E-3
439.525795E-3
439.539528E-3
439.435387E-3
439.334106E-3
439.151573E-3
438.855171E-3
438.528442E-3
438.237762E-3
437.800026E-3
437.474442E-3
437.042999E-3
436.790657E-3
436.399841E-3
436.130333E-3
435.855103E-3
435.694313E-3
435.421944E-3
435.256004E-3
435.072327E-3
434.916687E-3
434.813118E-3
434.743881E-3
434.671783E-3
434.420013E-3
434.313583E-3
434.234047E-3
433.933640E-3
433.857536E-3
433.774567E-3
433.724785E-3
433.630943E-3
433.502769E-3
433.450127E-3
433.357430E-3
433.176613E-3
433.310509E-3
433.057022E-3
432.937431E-3
432.768631E-3
432.702827E-3
432.635880E-3
432.449341E-3
432.274818E-3
432.179260E-3
431.959534E-3
431.920052E-3
431.798744E-3
431.663132E-3
431.601906E-3
431.389618E-3
431.400490E-3
431.155586E-3
431.077766E-3
431.012535E-3
430.780792E-3
430.582809E-3
430.350494E-3
430.027199E-3
429.964256E-3
429.892159E-3
430.209160E-3
430.901527E-3
432.495689E-3
434.787369E-3
437.571716E-3
440.429878E-3
443.364716E-3
445.809746E-3
447.743225E-3
448.824692E-3
449.367142E-3
449.204063E-3
448.576355E-3
447.684860E-3
446.623993E-3
445.595741E-3
444.680214E-3
443.885422E-3
443.392181E-3
443.010521E-3
442.751312E-3
442.728996E-3
442.730141E-3
442.945290E-3
442.996788E-3
443.059731E-3
443.048859E-3
442.779922E-3
442.220306E-3
441.473007E-3
440.808105E-3
440.199280E-3
439.766693E-3
439.496613E-3
439.449120E-3
439.484024E-3
439.666557E-3
439.706612E-3
439.829636E-3
439.889717E-3
439.889717E-3
439.797592E-3
439.562416E-3
439.336395E-3
438.978195E-3
438.596535E-3
438.202286E-3
437.807465E-3
437.480736E-3
437.032127E-3
436.802673E-3
436.483383E-3
436.096001E-3
435.917473E-3
435.655403E-3
435.514069E-3
435.320663E-3
435.091209E-3
434.985352E-3
434.845161E-3
434.603691E-3
434.363365E-3
434.340477E-3
434.177971E-3
434.168816E-3
434.053802E-3
433.960533E-3
433.896446E-3
433.775711E-3
433.564568E-3
433.559990E-3
433.402634E-3
433.272743E-3
433.161163E-3
433.069038E-3
432.844162E-3
432.763481E-3
432.728004E-3
432.579803E-3
432.525444E-3
432.417870E-3
432.152939E-3
432.021904E-3
431.807327E-3
431.541252E-3
431.279755E-3
431.037140E-3
430.689812E-3
430.571365E-3
430.274391E-3
430.170250E-3
430.135345E-3
430.694389E-3
431.819344E-3
433.710480E-3
436.231041E-3
439.089775E-3
441.907310E-3
444.426155E-3
446.460915E-3
447.936058E-3
448.575783E-3
448.594093E-3
448.005867E-3
447.093201E-3
446.046066E-3
445.206070E-3
443.963814E-3
443.126678E-3
442.488098E-3
442.018318E-3
441.760826E-3
441.576004E-3
441.725922E-3
441.649818E-3
441.917038E-3
441.874695E-3
441.669273E-3
441.347122E-3
440.885353E-3
440.139198E-3
439.419365E-3
438.918114E-3
438.537025E-3
438.355064E-3
438.344193E-3
438.361931E-3
438.411140E-3
438.597107E-3
438.684654E-3
438.801956E-3
438.854027E-3
438.684082E-3
438.436317E-3
438.115883E-3
437.817764E-3
437.450409E-3
437.003517E-3
436.609840E-3
436.166954E-3
435.686874E-3
435.388756E-3
435.131836E-3
434.888649E-3
434.709549E-3
434.440041E-3
434.376526E-3
434.102440E-3
433.887863E-3
433.914757E-3
433.735657E-3
433.642387E-3
433.527374E-3
433.362007E-3
433.166313E-3
433.163452E-3
433.019257E-3
433.002663E-3
433.040428E-3
432.897949E-3
432.721710E-3
432.605553E-3
432.509422E-3
432.415009E-3
432.419586E-3
432.372093E-3
432.172394E-3
431.802750E-3
431.806755E-3
431.645393E-3
431.575012E-3
431.463432E-3
431.340408E-3
431.110954E-3
430.989647E-3
430.873489E-3
430.892372E-3
430.787659E-3
430.669785E-3
430.660629E-3
430.734444E-3
430.572510E-3
430.389977E-3
430.270386E-3
430.064392E-3
429.944229E-3
429.628372E-3
429.407501E-3
429.277039E-3
429.143143E-3
429.174614E-3
429.579735E-3
430.813408E-3
432.818413E-3
435.318375E-3
438.385963E-3
441.559982E-3
444.524002E-3
447.205925E-3
449.013519E-3
450.310135E-3
450.770187E-3
450.580788E-3
449.937057E-3
448.901939E-3
447.802162E-3
446.914673E-3
446.061516E-3
445.334816E-3
444.836998E-3
445.042992E-3
444.782639E-3
444.775200E-3
444.859314E-3
445.052147E-3
445.215225E-3
445.297050E-3
445.336533E-3
445.176888E-3
444.592667E-3
443.972397E-3
443.169022E-3
442.300415E-3
441.644096E-3
441.143417E-3
440.932274E-3
441.026115E-3
440.913391E-3
440.814972E-3
440.805817E-3
440.865898E-3
440.900230E-3
440.807533E-3
440.663910E-3
440.402412E-3
440.083122E-3
439.684296E-3
439.373016E-3
439.042854E-3
438.596535E-3
438.260651E-3
437.980843E-3
437.641525E-3
437.438965E-3
436.972046E-3
436.814117E-3
436.673927E-3
436.402702E-3
436.263657E-3
436.054230E-3
435.835075E-3
435.623932E-3
435.395050E-3
435.619354E-3
435.235405E-3
435.055161E-3
434.854317E-3
434.748459E-3
434.715271E-3
434.488106E-3
433.971977E-3
434.106445E-3
433.997154E-3
433.966255E-3
433.744240E-3
433.715057E-3
433.581734E-3
433.380318E-3
433.287048E-3
432.736015E-3
432.771492E-3
432.751465E-3
432.638741E-3
432.580376E-3
432.614136E-3
432.459641E-3
432.370377E-3
432.254219E-3
432.377815E-3
432.150078E-3
431.946373E-3
431.708908E-3
431.443405E-3
431.289482E-3
431.072617E-3
430.890656E-3
430.666351E-3
430.611992E-3
430.443764E-3
430.626869E-3
431.604195E-3
433.243561E-3
435.726357E-3
438.595390E-3
441.626930E-3
444.700813E-3
447.383881E-3
449.416924E-3
450.827980E-3
451.392174E-3
451.274300E-3
450.671768E-3
449.738503E-3
448.635864E-3
447.594452E-3
446.473503E-3
445.901299E-3
445.317650E-3
444.955444E-3
444.757462E-3
444.635010E-3
444.645309E-3
444.785500E-3
444.834137E-3
445.049858E-3
444.883347E-3
444.569778E-3
444.067955E-3
443.275452E-3
442.494392E-3
441.864395E-3
441.436958E-3
440.939713E-3
440.617561E-3
440.559769E-3
440.540314E-3
440.638161E-3
440.759468E-3
440.813828E-3
440.869331E-3
440.752602E-3
440.542603E-3
440.190697E-3
439.958382E-3
439.593315E-3
439.150429E-3
438.758469E-3
438.434601E-3
438.057518E-3
437.410355E-3
437.251854E-3
436.998940E-3
436.704254E-3
436.461639E-3
436.227608E-3
436.007881E-3
435.789299E-3
435.655403E-3
435.513496E-3
435.238266E-3
435.064316E-3
434.968185E-3
434.823990E-3
434.659195E-3
434.510994E-3
434.296417E-3
434.251785E-3
434.192848E-3
434.110451E-3
433.967400E-3
433.933067E-3
433.879852E-3
433.675575E-3
433.552551E-3
433.403778E-3
433.253288E-3
433.243561E-3
433.070755E-3
432.684517E-3
432.602692E-3
432.501984E-3
432.444191E-3
432.283974E-3
432.108307E-3
431.989861E-3
431.703758E-3
431.556702E-3
431.355286E-3
431.089211E-3
430.891800E-3
430.650330E-3
430.317307E-3
430.068970E-3
429.909325E-3
429.646683E-3
430.212021E-3
431.578445E-3
433.521080E-3
436.186409E-3
439.082909E-3
442.012024E-3
444.703102E-3
447.014809E-3
448.517990E-3
449.490166E-3
449.623489E-3
449.133682E-3
448.251343E-3
