Notes :


2023-11-04 ¿ÀÈÄ 9:40:29
Volts
Ch : LED 2,
507.928848E-3
507.711411E-3
507.485962E-3
507.363510E-3
507.419014E-3
506.971550E-3
506.798172E-3
506.698036E-3
506.560707E-3
506.381607E-3
506.304932E-3
506.194496E-3
506.132126E-3
506.108093E-3
505.896378E-3
505.768776E-3
505.487251E-3
505.358505E-3
505.203438E-3
505.002022E-3
504.902458E-3
504.721642E-3
504.622650E-3
504.292488E-3
503.937149E-3
503.858185E-3
503.771782E-3
504.000092E-3
504.589462E-3
505.902672E-3
508.125687E-3
511.213875E-3
514.723778E-3
518.342400E-3
521.891212E-3
525.042915E-3
527.137756E-3
528.318214E-3
528.450966E-3
527.619553E-3
526.126671E-3
524.202347E-3
522.270584E-3
520.314789E-3
518.574715E-3
517.269516E-3
516.188622E-3
515.398979E-3
515.214729E-3
515.103722E-3
515.193558E-3
515.418434E-3
515.543175E-3
515.508842E-3
515.236473E-3
514.937210E-3
514.664841E-3
514.675713E-3
514.696312E-3
514.902306E-3
515.405846E-3
515.919113E-3
516.530800E-3
517.161942E-3
517.469215E-3
517.846298E-3
517.580795E-3
517.330170E-3
516.883278E-3
516.327095E-3
515.830994E-3
515.227318E-3
514.541817E-3
513.956451E-3
513.498688E-3
512.963104E-3
512.378311E-3
511.978912E-3
511.648178E-3
511.322594E-3
511.118317E-3
511.032486E-3
510.896301E-3
510.955811E-3
510.789871E-3
510.835648E-3
510.823059E-3
510.817909E-3
510.816193E-3
510.740089E-3
510.808754E-3
510.834503E-3
510.695457E-3
510.806465E-3
510.726357E-3
510.750389E-3
510.591316E-3
510.486603E-3
510.440254E-3
510.235405E-3
510.159874E-3
510.009956E-3
509.862328E-3
509.685516E-3
509.498978E-3
509.454346E-3
509.276962E-3
509.244347E-3
509.100723E-3
508.846664E-3
508.765984E-3
508.702469E-3
508.578873E-3
508.475304E-3
508.297348E-3
508.260727E-3
508.018684E-3
508.014679E-3
507.827568E-3
507.483673E-3
507.435036E-3
507.231331E-3
507.068825E-3
507.005882E-3
506.800461E-3
506.809616E-3
506.722641E-3
507.116890E-3
507.982635E-3
509.652328E-3
512.360001E-3
515.602112E-3
519.086266E-3
522.478294E-3
525.444603E-3
527.793503E-3
529.018593E-3
529.102707E-3
528.435516E-3
526.939201E-3
525.256348E-3
523.258209E-3
521.300125E-3
519.552040E-3
518.000221E-3
516.704178E-3
515.781784E-3
515.213013E-3
514.894295E-3
514.730072E-3
514.744377E-3
514.670563E-3
514.413071E-3
514.175606E-3
513.796234E-3
513.716125E-3
513.709259E-3
513.956451E-3
514.451981E-3
515.067673E-3
515.812111E-3
516.466713E-3
517.177963E-3
517.491531E-3
517.443466E-3
517.337608E-3
516.888428E-3
516.475296E-3
515.961456E-3
515.188408E-3
514.513779E-3
513.663483E-3
512.932205E-3
512.281036E-3
511.577797E-3
511.051369E-3
510.478020E-3
509.971619E-3
509.906960E-3
509.462357E-3
509.314156E-3
509.184265E-3
509.013748E-3
509.000015E-3
508.951378E-3
508.929634E-3
508.930206E-3
508.946800E-3
508.959389E-3
508.862686E-3
508.931351E-3
508.890152E-3
508.740234E-3
508.739090E-3
508.502769E-3
508.477020E-3
508.208656E-3
508.095360E-3
507.848740E-3
507.685661E-3
507.645607E-3
507.435608E-3
507.253647E-3
507.132912E-3
506.889153E-3
507.114029E-3
506.734085E-3
506.567574E-3
506.439972E-3
506.082916E-3
506.030846E-3
505.831718E-3
505.558205E-3
505.349922E-3
504.867554E-3
504.760551E-3
504.467010E-3
504.107094E-3
503.935432E-3
503.888512E-3
504.030991E-3
504.353142E-3
505.309296E-3
507.563782E-3
510.319519E-3
513.658333E-3
517.434883E-3
521.154785E-3
524.586296E-3
526.926041E-3
528.592300E-3
529.017448E-3
528.341103E-3
527.152634E-3
525.383377E-3
523.513412E-3
521.609688E-3
519.812393E-3
518.391609E-3
517.037201E-3
516.473579E-3
516.067886E-3
515.882492E-3
515.973473E-3
516.068459E-3
516.335106E-3
516.470146E-3
516.398621E-3
516.303635E-3
515.626717E-3
515.162659E-3
514.723206E-3
514.625931E-3
514.719772E-3
514.887428E-3
515.313721E-3
515.678787E-3
515.889931E-3
516.317940E-3
516.382599E-3
516.473579E-3
516.250992E-3
515.820122E-3
515.443611E-3
514.892578E-3
514.292336E-3
513.735580E-3
513.054085E-3
512.489319E-3
511.807251E-3
511.307144E-3
510.875702E-3
510.462570E-3
510.288048E-3
510.036850E-3
509.915543E-3
509.719849E-3
509.531593E-3
509.501839E-3
509.334183E-3
509.283257E-3
509.206581E-3
509.125328E-3
509.243774E-3
509.252930E-3
509.214020E-3
509.107590E-3
509.022331E-3
509.017181E-3
508.826065E-3
508.680153E-3
508.534241E-3
508.408928E-3
508.701324E-3
508.347130E-3
508.262444E-3
508.114815E-3
507.912827E-3
507.827568E-3
507.654190E-3
507.630730E-3
507.535172E-3
507.273102E-3
507.161522E-3
506.992149E-3
506.911469E-3
506.873131E-3
506.623077E-3
506.463432E-3
505.990219E-3
505.818558E-3
505.610275E-3
505.300713E-3
505.161095E-3
504.806900E-3
504.820633E-3
504.888725E-3
505.308723E-3
506.212234E-3
508.247566E-3
511.145782E-3
514.526939E-3
518.352699E-3
522.178459E-3
525.287247E-3
527.774620E-3
529.128456E-3
529.591942E-3
528.948212E-3
527.426147E-3
525.738716E-3
523.873901E-3
521.928406E-3
520.218658E-3
518.775558E-3
517.700386E-3
516.859245E-3
516.456413E-3
516.343117E-3
516.361427E-3
516.574860E-3
516.782570E-3
516.794014E-3
516.852951E-3
516.434097E-3
516.069031E-3
515.599251E-3
515.140915E-3
515.087700E-3
515.140343E-3
515.491676E-3
515.912819E-3
516.333389E-3
516.717911E-3
516.955376E-3
516.991425E-3
516.899300E-3
516.585159E-3
516.242409E-3
515.708542E-3
515.182686E-3
514.619064E-3
514.030266E-3
513.487816E-3
512.832069E-3
512.359428E-3
511.910248E-3
511.400414E-3
511.084557E-3
510.794449E-3
510.928345E-3
510.706902E-3
510.419655E-3
510.366440E-3
510.271454E-3
510.223389E-3
510.208511E-3
510.078049E-3
510.115242E-3
510.010529E-3
510.071754E-3
510.152435E-3
510.128975E-3
510.167885E-3
510.046577E-3
509.897232E-3
509.878922E-3
509.687805E-3
509.683800E-3
509.527016E-3
509.361076E-3
509.231186E-3
509.050369E-3
508.915329E-3
508.705902E-3
508.602905E-3
508.483887E-3
508.383751E-3
508.431244E-3
508.221245E-3
508.042145E-3
507.907104E-3
507.678223E-3
507.594109E-3
507.390976E-3
507.200432E-3
507.210732E-3
506.877708E-3
506.692314E-3
506.354141E-3
506.081200E-3
505.888367E-3
505.768204E-3
505.843735E-3
506.061745E-3
507.021332E-3
508.530235E-3
510.916901E-3
514.181900E-3
517.755318E-3
521.457481E-3
524.940491E-3
527.612114E-3
529.294395E-3
529.863739E-3
529.412270E-3
528.365707E-3
526.642799E-3
524.825478E-3
522.894287E-3
521.047783E-3
519.851303E-3
518.518639E-3
517.704391E-3
517.102432E-3
516.810036E-3
516.802597E-3
516.795731E-3
517.065239E-3
517.178535E-3
517.376518E-3
516.906738E-3
516.506767E-3
516.231537E-3
516.049004E-3
516.053581E-3
516.345406E-3
516.712189E-3
517.267227E-3
517.926979E-3
518.186760E-3
518.498611E-3
518.488884E-3
518.478012E-3
518.192482E-3
517.739296E-3
517.230606E-3
516.592598E-3
516.157722E-3
515.451622E-3
514.897728E-3
514.329529E-3
513.737297E-3
513.344765E-3
512.858391E-3
512.581444E-3
512.315941E-3
512.222672E-3
512.145996E-3
511.940575E-3
511.872482E-3
511.810684E-3
511.657333E-3
511.699104E-3
511.635017E-3
511.593819E-3
511.898232E-3
511.780357E-3
511.731720E-3
511.679649E-3
511.594963E-3
511.613846E-3
511.415291E-3
511.430168E-3
511.235046E-3
511.044502E-3
510.904312E-3
510.765266E-3
510.752678E-3
510.502052E-3
510.332108E-3
510.239410E-3
510.013962E-3
509.932137E-3
509.659195E-3
509.458351E-3
509.274673E-3
508.967972E-3
508.809471E-3
508.644104E-3
508.299065E-3
507.881355E-3
507.546043E-3
507.371521E-3
507.169533E-3
506.909180E-3
506.820488E-3
506.651688E-3
506.871986E-3
507.346916E-3
508.545685E-3
510.670853E-3
513.554764E-3
517.038345E-3
520.640373E-3
524.011230E-3
526.796722E-3
528.580284E-3
529.443741E-3
528.947067E-3
528.025818E-3
526.554680E-3
524.719048E-3
522.954941E-3
521.201706E-3
519.669342E-3
518.416214E-3
517.462349E-3
517.092705E-3
516.614914E-3
516.486168E-3
516.447258E-3
516.360855E-3
516.528511E-3
516.397476E-3
515.981483E-3
515.578079E-3
515.183258E-3
514.854813E-3
514.773560E-3
514.871407E-3
515.306854E-3
515.702820E-3
516.356850E-3
516.796303E-3
517.109871E-3
517.119598E-3
517.113876E-3
516.862679E-3
516.448402E-3
515.928268E-3
515.349770E-3
514.685440E-3
514.003944E-3
513.352203E-3
512.718773E-3
512.223244E-3
511.701393E-3
511.188698E-3
510.803604E-3
510.452843E-3
510.269165E-3
510.163307E-3
510.055161E-3
509.895515E-3
509.741592E-3
509.774208E-3
509.604263E-3
509.692383E-3
509.504128E-3
509.559631E-3
509.694099E-3
509.615135E-3
509.560204E-3
509.525871E-3
509.516716E-3
509.423447E-3
509.241486E-3
509.106445E-3
508.982277E-3
508.605766E-3
508.683014E-3
508.442116E-3
508.337975E-3
508.119965E-3
507.988358E-3
507.811546E-3
507.608986E-3
507.539177E-3
507.416153E-3
507.282257E-3
507.311440E-3
506.992149E-3
506.929207E-3
506.900024E-3
506.632805E-3
506.542397E-3
506.344414E-3
506.323242E-3
505.990791E-3
505.652046E-3
505.430031E-3
505.149651E-3
504.939079E-3
504.880142E-3
504.926491E-3
505.508423E-3
506.888008E-3
508.965683E-3
511.875343E-3
515.454483E-3
519.376373E-3
523.112297E-3
526.285172E-3
528.561974E-3
529.646301E-3
529.852867E-3
528.974533E-3
527.598381E-3
525.900650E-3
524.020958E-3
522.413063E-3
520.810318E-3
519.460487E-3
518.677139E-3
518.156433E-3
517.904663E-3
517.829132E-3
518.044853E-3
518.403625E-3
518.704605E-3
519.067955E-3
518.755531E-3
518.640518E-3
518.084335E-3
517.453766E-3
516.943932E-3
516.565704E-3
516.533661E-3
516.602325E-3
516.776276E-3
517.033195E-3
517.366791E-3
517.437172E-3
517.692375E-3
517.565346E-3
517.438316E-3
517.092133E-3
516.738510E-3
516.237259E-3
515.715981E-3
515.130043E-3
514.576149E-3
514.017105E-3
513.539314E-3
512.905884E-3
512.603188E-3
512.175751E-3
511.947441E-3
511.515427E-3
511.467934E-3
511.382103E-3
511.212730E-3
511.187553E-3
511.015892E-3
510.914040E-3
510.876846E-3
510.932350E-3
510.918617E-3
510.914612E-3
510.837364E-3
510.848808E-3
510.684013E-3
510.544968E-3
510.461998E-3
510.359573E-3
510.313225E-3
510.103226E-3
510.004807E-3
509.882927E-3
509.679794E-3
509.592247E-3
509.355927E-3
509.214592E-3
509.173965E-3
508.970833E-3
508.725357E-3
508.518219E-3
508.376884E-3
508.204079E-3
508.036995E-3
508.099365E-3
507.887650E-3
507.910538E-3
507.769775E-3
507.489967E-3
507.562637E-3
507.368088E-3
507.169533E-3
507.028198E-3
506.721497E-3
506.608772E-3
506.224251E-3
506.088638E-3
505.899811E-3
505.802536E-3
505.866051E-3
506.029129E-3
506.781578E-3
508.315086E-3
510.637093E-3
514.026260E-3
517.503548E-3
521.205139E-3
524.619484E-3
527.369499E-3
529.216003E-3
529.848862E-3
529.578209E-3
528.576279E-3
526.742935E-3
525.166512E-3
523.403549E-3
521.761894E-3
520.405197E-3
519.328880E-3
518.694878E-3
518.184471E-3
518.053436E-3
518.207359E-3
518.525505E-3
518.824196E-3
519.140625E-3
519.185829E-3
519.117165E-3
518.566704E-3
517.865753E-3
517.366791E-3
517.013168E-3
516.901588E-3
516.945076E-3
517.197418E-3
517.477798E-3
517.837715E-3
518.143272E-3
518.204498E-3
518.300629E-3
518.162155E-3
517.878342E-3
517.463493E-3
516.945648E-3
516.597748E-3
515.980911E-3
515.465927E-3
515.215874E-3
514.541817E-3
513.981628E-3
513.491821E-3
513.032341E-3
512.847519E-3
512.542534E-3
512.383461E-3
512.215233E-3
512.101936E-3
512.147141E-3
511.960030E-3
511.875343E-3
511.913681E-3
511.896515E-3
511.904526E-3
511.820412E-3
511.834145E-3
511.850166E-3
511.858749E-3
511.740875E-3
511.586380E-3
511.522865E-3
511.402130E-3
511.304855E-3
511.194420E-3
511.014175E-3
510.847664E-3
510.765266E-3
510.526085E-3
510.481453E-3
510.262871E-3
510.094070E-3
509.870911E-3
509.801674E-3
509.671783E-3
509.434319E-3
509.330177E-3
509.258080E-3
509.206009E-3
509.117317E-3
508.968544E-3
508.950233E-3
508.955956E-3
508.794022E-3
508.684158E-3
508.459282E-3
508.403206E-3
508.207512E-3
507.980919E-3
507.750320E-3
507.501411E-3
507.075119E-3
506.996727E-3
507.115173E-3
507.225037E-3
507.332039E-3
508.104515E-3
509.690666E-3
512.179184E-3
515.502548E-3
519.238472E-3
522.764397E-3
525.761032E-3
528.218651E-3
529.589653E-3
529.734421E-3
529.194260E-3
528.017235E-3
526.279449E-3
524.398041E-3
522.769547E-3
521.363640E-3
519.931984E-3
518.874550E-3
518.206215E-3
517.758751E-3
517.679214E-3
517.683220E-3
517.996216E-3
518.175888E-3
518.227959E-3
518.251991E-3
517.878342E-3
517.275810E-3
516.823196E-3
516.537666E-3
516.639519E-3
516.750526E-3
517.256355E-3
517.759895E-3
518.242836E-3
518.690300E-3
518.872833E-3
518.840218E-3
518.815041E-3
518.460274E-3
517.920685E-3
517.376518E-3
516.815186E-3
516.156578E-3
515.469360E-3
514.930344E-3
514.336967E-3
513.932991E-3
513.508415E-3
512.936783E-3
512.688446E-3
512.364578E-3
512.098503E-3
511.963463E-3
511.760330E-3
511.675072E-3
511.588669E-3
511.521149E-3
511.469078E-3
511.344910E-3
511.287117E-3
511.287689E-3
511.194992E-3
511.160088E-3
511.027336E-3
511.216164E-3
510.907173E-3
510.685730E-3
510.625076E-3
510.389900E-3
510.305786E-3
510.190201E-3
510.024834E-3
509.809113E-3
509.761620E-3
509.558487E-3
509.244347E-3
508.941650E-3
508.799744E-3
508.558273E-3
508.474159E-3
508.309364E-3
508.230972E-3
508.142281E-3
507.857895E-3
507.705688E-3
507.488251E-3
507.290268E-3
507.193565E-3
506.890869E-3
506.686592E-3
506.402206E-3
505.989647E-3
505.788231E-3
505.601692E-3
505.525589E-3
505.632591E-3
505.825996E-3
506.786156E-3
508.253288E-3
510.872841E-3
514.011383E-3
517.540741E-3
521.232605E-3
524.458694E-3
526.850510E-3
528.253555E-3
528.657532E-3
528.147125E-3
526.995850E-3
525.504684E-3
523.758316E-3
522.145844E-3
520.664406E-3
519.396973E-3
518.514633E-3
517.844582E-3
517.506409E-3
517.391968E-3
517.371368E-3
517.725563E-3
517.964172E-3
518.221664E-3
518.306923E-3
518.033981E-3
517.527580E-3
517.000580E-3
516.438103E-3
516.174889E-3
515.988922E-3
516.176033E-3
516.436958E-3
516.616631E-3
516.953659E-3
517.221451E-3
517.065811E-3
517.243195E-3
517.043495E-3
516.869545E-3
516.293907E-3
515.912819E-3
515.411568E-3
514.849663E-3
514.313507E-3
513.718987E-3
513.234329E-3
512.671852E-3
512.210655E-3
511.901665E-3
511.609840E-3
511.600685E-3
511.264801E-3
511.091423E-3
510.715485E-3
510.803604E-3
510.803604E-3
510.823059E-3
510.630798E-3
510.568428E-3
510.456276E-3
510.492897E-3
510.560989E-3
510.317230E-3
510.362434E-3
510.211372E-3
510.198784E-3
510.046005E-3
509.884071E-3
509.845734E-3
509.670067E-3
509.525871E-3
509.367371E-3
509.195137E-3
509.059525E-3
508.836365E-3
508.646393E-3
508.412933E-3
508.259583E-3
508.200073E-3
507.872772E-3
507.728004E-3
507.520866E-3
507.361221E-3
507.342911E-3
507.161522E-3
507.137489E-3
507.044220E-3
506.884003E-3
506.825066E-3
506.702042E-3
506.669426E-3
506.549835E-3
506.399345E-3
506.208801E-3
505.908394E-3
505.642891E-3
505.484390E-3
505.225754E-3
505.144501E-3
505.119324E-3
505.376816E-3
506.069183E-3
507.592392E-3
510.084343E-3
513.183975E-3
516.883278E-3
520.564270E-3
523.885345E-3
526.525497E-3
528.109360E-3
528.665543E-3
528.454971E-3
527.324867E-3
