Notes :


2023-10-27 ¿ÀÈÄ 9:19:58
Volts
Ch : LED 2,
874.429893E-3
873.021126E-3
873.400497E-3
874.269104E-3
873.513222E-3
875.609779E-3
873.835945E-3
873.041725E-3
871.783447E-3
869.653702E-3
870.407295E-3
868.624306E-3
869.040871E-3
869.574738E-3
869.683456E-3
872.270393E-3
871.735382E-3
873.169327E-3
873.811340E-3
873.446274E-3
874.602699E-3
872.522736E-3
872.068405E-3
871.075058E-3
868.461800E-3
869.276047E-3
867.078209E-3
866.119766E-3
865.204811E-3
863.524246E-3
864.095306E-3
861.645126E-3
861.303520E-3
860.585976E-3
859.475899E-3
860.425758E-3
858.848763E-3
858.675385E-3
858.616447E-3
857.287216E-3
858.621025E-3
857.104683E-3
857.184219E-3
857.596207E-3
856.980515E-3
858.352661E-3
856.834602E-3
857.225418E-3
857.232857E-3
855.726242E-3
857.455444E-3
856.104469E-3
856.360245E-3
856.474113E-3
855.213547E-3
856.693840E-3
854.963493E-3
854.897118E-3
854.676247E-3
853.675461E-3
854.827309E-3
853.285217E-3
853.199959E-3
853.168488E-3
852.093887E-3
853.154182E-3
851.104546E-3
850.997543E-3
850.526047E-3
848.372269E-3
849.837685E-3
848.414040E-3
848.173141E-3
847.996902E-3
847.024155E-3
848.322487E-3
847.328568E-3
849.094391E-3
853.421402E-3
858.699989E-3
867.666435E-3
874.028778E-3
881.506920E-3
887.426949E-3
890.383530E-3
893.674850E-3
892.521286E-3
890.964317E-3
888.626862E-3
884.934425E-3
882.987213E-3
878.309441E-3
875.890160E-3
873.776436E-3
871.713066E-3
872.265816E-3
870.718575E-3
870.942879E-3
871.476746E-3
871.265602E-3
872.831154E-3
871.110535E-3
870.221329E-3
869.006538E-3
867.374611E-3
868.053818E-3
866.293716E-3
866.905403E-3
867.669296E-3
866.799545E-3
870.085716E-3
869.914627E-3
871.004105E-3
871.740532E-3
871.273613E-3
872.273827E-3
870.124054E-3
869.310951E-3
868.583107E-3
866.491699E-3
866.695404E-3
864.099312E-3
862.986374E-3
862.120628E-3
860.378838E-3
860.933876E-3
858.934593E-3
858.717728E-3
858.260536E-3
857.229424E-3
858.631897E-3
858.001900E-3
858.210754E-3
858.047676E-3
857.059479E-3
858.509445E-3
856.709862E-3
856.973648E-3
857.696342E-3
857.188225E-3
858.576965E-3
857.171631E-3
857.097816E-3
857.260895E-3
856.260109E-3
857.828522E-3
856.292152E-3
856.327629E-3
856.452942E-3
855.708504E-3
857.141876E-3
855.432701E-3
855.354881E-3
855.548859E-3
854.593277E-3
856.066132E-3
854.593277E-3
854.647636E-3
854.652786E-3
853.731537E-3
854.949760E-3
853.095818E-3
852.994537E-3
852.766228E-3
851.581764E-3
852.620316E-3
850.665665E-3
850.281715E-3
850.088882E-3
849.284363E-3
850.949478E-3
850.795555E-3
854.732895E-3
861.174774E-3
868.111610E-3
877.982712E-3
884.323883E-3
890.892792E-3
895.999146E-3
897.800446E-3
900.096130E-3
897.866821E-3
896.129608E-3
893.554687E-3
888.522720E-3
887.439537E-3
883.758545E-3
881.623650E-3
880.725861E-3
879.186630E-3
880.408287E-3
879.513359E-3
880.199432E-3
881.318665E-3
881.163025E-3
883.133698E-3
882.083130E-3
881.066322E-3
880.079842E-3
877.637100E-3
878.096581E-3
876.086426E-3
875.756264E-3
876.333618E-3
875.961113E-3
878.152084E-3
877.755547E-3
878.032494E-3
878.913689E-3
878.118324E-3
879.496193E-3
877.719498E-3
876.925850E-3
876.139641E-3
874.126625E-3
874.193001E-3
871.798897E-3
870.470810E-3
869.789314E-3
867.891884E-3
868.662071E-3
866.699409E-3
866.007042E-3
865.719223E-3
864.447784E-3
865.601349E-3
864.355087E-3
864.308167E-3
864.335060E-3
863.253021E-3
864.823151E-3
863.745689E-3
863.695908E-3
863.924789E-3
863.065338E-3
864.399719E-3
863.349152E-3
863.203239E-3
863.417816E-3
862.549210E-3
863.715363E-3
862.518883E-3
862.126923E-3
862.165260E-3
861.110687E-3
862.092018E-3
860.874939E-3
860.516739E-3
860.598564E-3
859.480476E-3
860.608864E-3
859.527397E-3
859.271049E-3
859.343719E-3
858.323479E-3
859.420967E-3
858.000183E-3
857.619667E-3
857.529831E-3
855.531693E-3
856.609154E-3
855.267334E-3
854.667664E-3
854.358101E-3
852.963638E-3
854.167557E-3
853.729820E-3
855.231857E-3
859.117699E-3
864.167404E-3
873.216820E-3
880.305862E-3
887.402344E-3
893.861961E-3
896.942711E-3
901.084900E-3
900.661469E-3
899.569702E-3
897.906303E-3
893.719482E-3
892.263794E-3
888.254356E-3
885.800743E-3
884.101295E-3
881.206512E-3
882.311440E-3
881.455994E-3
881.447411E-3
882.263374E-3
881.747818E-3
883.771706E-3
883.153152E-3
882.886505E-3
882.353783E-3
879.113960E-3
879.618645E-3
877.849388E-3
877.250862E-3
877.713203E-3
876.642036E-3
879.084206E-3
878.944016E-3
879.730225E-3
880.665207E-3
878.533173E-3
881.034851E-3
880.191994E-3
879.505348E-3
879.220963E-3
876.531029E-3
877.191353E-3
875.301361E-3
874.134064E-3
873.298073E-3
870.663071E-3
871.455002E-3
869.915199E-3
869.012833E-3
868.838310E-3
865.830803E-3
867.692757E-3
866.586685E-3
866.145515E-3
866.312599E-3
864.528465E-3
866.170692E-3
865.276909E-3
864.968491E-3
865.325546E-3
863.615799E-3
865.397072E-3
864.615440E-3
864.395714E-3
864.665222E-3
862.927437E-3
864.279556E-3
863.449860E-3
862.187576E-3
862.053108E-3
860.853767E-3
863.594627E-3
862.692261E-3
862.320328E-3
862.395287E-3
860.126495E-3
861.278915E-3
860.253525E-3
859.885025E-3
860.335350E-3
858.248520E-3
859.827805E-3
858.950043E-3
858.313179E-3
858.090019E-3
855.944824E-3
857.159042E-3
856.161690E-3
855.575180E-3
855.323982E-3
853.138161E-3
854.247665E-3
853.764153E-3
853.798485E-3
855.614090E-3
856.973648E-3
864.373398E-3
870.988655E-3
878.686523E-3
886.376953E-3
890.361786E-3
896.281242E-3
898.032761E-3
898.108864E-3
897.474861E-3
893.819046E-3
892.376518E-3
888.546753E-3
885.083199E-3
882.570648E-3
878.664207E-3
878.814125E-3
877.165031E-3
876.406860E-3
877.188492E-3
875.824928E-3
878.002739E-3
877.744675E-3
877.313232E-3
876.889801E-3
874.153519E-3
874.738312E-3
873.406792E-3
872.369957E-3
873.026276E-3
871.935654E-3
874.610710E-3
875.035286E-3
875.626945E-3
876.809120E-3
875.632095E-3
877.573586E-3
876.813126E-3
875.910759E-3
875.590897E-3
873.014259E-3
873.585320E-3
871.772003E-3
870.389557E-3
869.623375E-3
866.809845E-3
867.529106E-3
866.243935E-3
865.185928E-3
865.176773E-3
862.956047E-3
864.561653E-3
863.810349E-3
862.846184E-3
862.810135E-3
861.375046E-3
863.125420E-3
862.521744E-3
861.961555E-3
862.285995E-3
860.478401E-3
862.178421E-3
861.428833E-3
860.766220E-3
861.166191E-3
859.259033E-3
861.115265E-3
860.448647E-3
859.639549E-3
859.986305E-3
858.281136E-3
859.902763E-3
858.736610E-3
857.739830E-3
857.930946E-3
855.965424E-3
857.322693E-3
857.190514E-3
856.685257E-3
856.787682E-3
854.637909E-3
856.351089E-3
855.405807E-3
854.333496E-3
854.713440E-3
852.821159E-3
854.315758E-3
853.456306E-3
851.802063E-3
851.912498E-3
850.168991E-3
851.706505E-3
851.775169E-3
853.040886E-3
858.287430E-3
863.306236E-3
872.427750E-3
879.599762E-3
885.314941E-3
891.535378E-3
893.546104E-3
897.138405E-3
896.737862E-3
894.320869E-3
892.533302E-3
888.107300E-3
886.926270E-3
884.002876E-3
880.846024E-3
879.747391E-3
877.259445E-3
877.900314E-3
876.861763E-3
876.027489E-3
877.248573E-3
876.481247E-3
878.688812E-3
877.346420E-3
875.594330E-3
874.133492E-3
871.381760E-3
871.470451E-3
869.538689E-3
868.735313E-3
869.053459E-3
868.016052E-3
870.022774E-3
869.870567E-3
869.955826E-3
870.423889E-3
869.487762E-3
871.246719E-3
870.116615E-3
868.378830E-3
868.604279E-3
867.195511E-3
867.963409E-3
866.568947E-3
865.514946E-3
865.465736E-3
863.912201E-3
864.938736E-3
864.078140E-3
862.648201E-3
863.146591E-3
862.193298E-3
863.639832E-3
862.983513E-3
861.846542E-3
862.524033E-3
861.289215E-3
862.668228E-3
861.855125E-3
860.898972E-3
861.594200E-3
860.525322E-3
861.797905E-3
861.094666E-3
860.035515E-3
860.370827E-3
859.352303E-3
860.634613E-3
859.764862E-3
858.498001E-3
858.705139E-3
857.718658E-3
858.663368E-3
857.759857E-3
856.671524E-3
857.106972E-3
856.150246E-3
857.413101E-3
856.579399E-3
855.618668E-3
856.347084E-3
855.342865E-3
856.812859E-3
855.950546E-3
854.908562E-3
855.211258E-3
854.138947E-3
855.222702E-3
854.105759E-3
852.865219E-3
853.034019E-3
851.897621E-3
852.893257E-3
852.010918E-3
851.653862E-3
854.942322E-3
858.724022E-3
866.686249E-3
873.992729E-3
881.227684E-3
888.908386E-3
893.762398E-3
898.616982E-3
899.751091E-3
898.762321E-3
898.033333E-3
895.109367E-3
893.645668E-3
890.163803E-3
886.832428E-3
885.455132E-3
882.964897E-3
882.877350E-3
881.889153E-3
880.902672E-3
881.602478E-3
881.291199E-3
883.036995E-3
882.599831E-3
881.385040E-3
881.219101E-3
879.164886E-3
878.887939E-3
876.519012E-3
874.250221E-3
874.073410E-3
873.303795E-3
874.924850E-3
874.758339E-3
874.340630E-3
874.968338E-3
874.652481E-3
876.189995E-3
875.285339E-3
874.126625E-3
873.991013E-3
872.499847E-3
873.013687E-3
871.313667E-3
869.364738E-3
869.068336E-3
867.293930E-3
867.452431E-3
866.177559E-3
864.236069E-3
864.399719E-3
863.394928E-3
864.428902E-3
863.723373E-3
862.664795E-3
862.973785E-3
862.125206E-3
863.457870E-3
862.838745E-3
862.215614E-3
862.450790E-3
861.839104E-3
863.185501E-3
862.811852E-3
862.193298E-3
862.754059E-3
861.978149E-3
863.369751E-3
862.780952E-3
861.888885E-3
862.585831E-3
861.602783E-3
862.642479E-3
861.783600E-3
860.734749E-3
861.151314E-3
860.128212E-3
861.063766E-3
860.293579E-3
859.345436E-3
859.641266E-3
858.534050E-3
859.293365E-3
858.346939E-3
856.955338E-3
857.054329E-3
855.778885E-3
856.194305E-3
854.990959E-3
853.527260E-3
853.547287E-3
852.107048E-3
853.014565E-3
852.147675E-3
851.414680E-3
853.107262E-3
855.162048E-3
861.678314E-3
868.055534E-3
874.931145E-3
883.109665E-3
888.470078E-3
894.095421E-3
896.042633E-3
895.923615E-3
895.667839E-3
892.850876E-3
891.219521E-3
887.447548E-3
882.831001E-3
881.373596E-3
878.383827E-3
878.252792E-3
876.613426E-3
875.086784E-3
876.226044E-3
876.291275E-3
878.307152E-3
878.215027E-3
877.827072E-3
878.030205E-3
876.417732E-3
876.183128E-3
874.516869E-3
872.906685E-3
873.340988E-3
872.896385E-3
874.742889E-3
875.046158E-3
875.221825E-3
876.690674E-3
876.417160E-3
877.940369E-3
877.134705E-3
875.828934E-3
875.854683E-3
874.061394E-3
874.445343E-3
872.591400E-3
870.691109E-3
870.372963E-3
868.508720E-3
868.958473E-3
867.427826E-3
865.319252E-3
865.923500E-3
864.637756E-3
865.495491E-3
864.559937E-3
863.604927E-3
863.971138E-3
862.906837E-3
864.012909E-3
863.456726E-3
862.198448E-3
862.779236E-3
862.061119E-3
863.357735E-3
862.751198E-3
861.862564E-3
862.533188E-3
861.577606E-3
862.617302E-3
862.089729E-3
861.231422E-3
861.826515E-3
860.963058E-3
861.982727E-3
861.345863E-3
860.303307E-3
861.070061E-3
859.973145E-3
861.138153E-3
860.537338E-3
859.370613E-3
859.605217E-3
858.300591E-3
858.896255E-3
858.054543E-3
856.454086E-3
856.482124E-3
855.173492E-3
855.957985E-3
855.043602E-3
853.569603E-3
854.271126E-3
853.951836E-3
856.725311E-3
860.507011E-3
865.670586E-3
874.143791E-3
881.045151E-3
889.374161E-3
894.521141E-3
897.137260E-3
899.819756E-3
899.269295E-3
899.353981E-3
896.867180E-3
893.158150E-3
890.555191E-3
887.141418E-3
886.123466E-3
884.074974E-3
881.989861E-3
882.396126E-3
881.579590E-3
883.256721E-3
883.401489E-3
883.252716E-3
884.603119E-3
883.692741E-3
884.471512E-3
882.867050E-3
880.208015E-3
879.371452E-3
877.375603E-3
878.233337E-3
877.563286E-3
876.903534E-3
878.430176E-3
878.322601E-3
879.979134E-3
880.119324E-3
879.349136E-3
880.181694E-3
878.823853E-3
879.385185E-3
878.162384E-3
876.058960E-3
875.805473E-3
873.765564E-3
873.650551E-3
872.220612E-3
869.594193E-3
869.861984E-3
868.325615E-3
868.888092E-3
867.777443E-3
866.241646E-3
866.624451E-3
865.271187E-3
866.201591E-3
865.697479E-3
864.491844E-3
865.101814E-3
864.024925E-3
865.200806E-3
864.625168E-3
863.254738E-3
864.020348E-3
863.121414E-3
864.121056E-3
863.832664E-3
862.707138E-3
863.682175E-3
862.751770E-3
863.484192E-3
862.802124E-3
861.509514E-3
862.223053E-3
861.439705E-3
862.227058E-3
861.653137E-3
860.703850E-3
861.229706E-3
860.354233E-3
861.090088E-3
860.387421E-3
858.867645E-3
859.315681E-3
858.039665E-3
858.693695E-3
857.801628E-3
856.291580E-3
856.636620E-3
855.254745E-3
856.011200E-3
855.720520E-3
855.168915E-3
858.008766E-3
861.258888E-3
868.676376E-3
876.062965E-3
882.642746E-3
890.488815E-3
895.107651E-3
899.736786E-3
901.376152E-3
900.285530E-3
899.937630E-3
896.813393E-3
895.289612E-3
892.048645E-3
888.185120E-3
886.956596E-3
884.454346E-3
884.353065E-3
883.705330E-3
882.626724E-3
884.008598E-3
883.723068E-3
885.537529E-3
885.825920E-3
884.460068E-3
885.321236E-3
883.514214E-3
882.952309E-3
881.166458E-3
878.667641E-3
879.017258E-3
877.792168E-3
878.996658E-3
879.256439E-3
878.181267E-3
880.100441E-3
879.818344E-3
881.165886E-3
880.849457E-3
879.496193E-3
879.915619E-3
878.256226E-3
878.277397E-3
876.966476E-3
874.806976E-3
874.546623E-3
872.824287E-3
872.868347E-3
871.733093E-3
869.504356E-3
870.012474E-3
868.748474E-3
869.007683E-3
868.544769E-3
866.996384E-3
867.574883E-3
866.627312E-3
867.182350E-3
867.013550E-3
865.821075E-3
866.426468E-3
865.884018E-3
866.631889E-3
866.266823E-3
864.805412E-3
865.656281E-3
865.011406E-3
865.523529E-3
865.160179E-3
863.121986E-3
864.273834E-3
863.479042E-3
864.117050E-3
863.837242E-3
862.235641E-3
863.009834E-3
862.137794E-3
862.663651E-3
862.335205E-3
860.898972E-3
861.565018E-3
860.619736E-3
860.998535E-3
860.352516E-3
858.156967E-3
858.976364E-3
857.772446E-3
858.066559E-3
857.520676E-3
855.703926E-3
856.608582E-3
855.562019E-3
856.777954E-3
857.916641E-3
860.196877E-3
866.860771E-3
872.941017E-3
881.470299E-3
888.416290E-3
893.004799E-3
898.121452E-3
898.677635E-3
899.864388E-3
898.418427E-3
895.038414E-3
893.738937E-3
889.319801E-3
887.178612E-3
884.759903E-3
881.608772E-3
881.811333E-3
879.681587E-3
880.351639E-3
880.296707E-3
878.984642E-3
881.855392E-3
881.213951E-3
882.048225E-3
881.474304E-3
879.065895E-3
879.333687E-3
876.801109E-3
877.041435E-3
876.854324E-3
876.122475E-3
878.774071E-3
878.034210E-3
879.392624E-3
879.897308E-3
879.183197E-3
881.308365E-3
879.418373E-3
879.499054E-3
878.433037E-3
876.333046E-3
877.102089E-3
874.440765E-3
874.001884E-3
872.555923E-3
870.437050E-3
871.370316E-3
869.024277E-3
868.945885E-3
868.118477E-3
866.563797E-3
867.937660E-3
866.185570E-3
866.502571E-3
866.036797E-3
864.514160E-3
866.521454E-3
864.961052E-3
865.501785E-3
865.148735E-3
863.941383E-3
865.863419E-3
864.258385E-3
864.855766E-3
864.626884E-3
863.490486E-3
865.302658E-3
863.661575E-3
864.154816E-3
863.757133E-3
862.364388E-3
864.263535E-3
862.599564E-3
862.964630E-3
862.837029E-3
861.151886E-3
862.634468E-3
860.818291E-3
861.062622E-3
860.647774E-3
859.082222E-3
860.294724E-3
858.206749E-3
858.326912E-3
857.980156E-3
856.048393E-3
857.613945E-3
855.628395E-3
856.165123E-3
856.886101E-3
857.689476E-3
863.781738E-3
868.310738E-3
876.291847E-3
883.701324E-3
889.366722E-3
896.609116E-3
