Notes :


2023-11-02 ¿ÀÈÄ 6:34:40
Volts
Ch : LED 2,
702.533340E-3
702.808571E-3
702.231789E-3
702.531052E-3
702.042961E-3
701.101685E-3
701.154327E-3
699.933815E-3
700.194740E-3
700.519180E-3
700.457382E-3
701.617241E-3
701.660728E-3
702.610016E-3
703.234863E-3
703.185081E-3
704.260254E-3
703.622818E-3
703.824806E-3
703.719521E-3
702.666092E-3
702.873802E-3
701.633835E-3
701.297951E-3
700.793839E-3
699.141884E-3
700.054550E-3
699.168777E-3
698.867226E-3
698.598862E-3
697.868156E-3
698.504448E-3
697.546577E-3
697.447586E-3
697.216415E-3
696.672249E-3
697.295952E-3
696.548653E-3
696.753502E-3
696.753502E-3
696.295166E-3
697.116280E-3
696.263695E-3
696.653366E-3
696.699142E-3
696.182442E-3
696.971512E-3
696.069717E-3
696.187592E-3
696.322060E-3
695.661736E-3
696.383858E-3
695.285797E-3
695.457458E-3
695.614243E-3
695.046043E-3
695.533562E-3
694.647789E-3
694.564819E-3
694.318199E-3
693.542862E-3
694.124222E-3
692.929459E-3
692.894554E-3
692.595291E-3
691.843414E-3
692.362976E-3
691.287231E-3
691.383362E-3
691.694641E-3
692.340660E-3
694.827461E-3
696.716309E-3
699.988747E-3
703.625679E-3
705.738258E-3
709.859848E-3
711.550713E-3
712.827873E-3
713.313675E-3
711.770439E-3
712.184143E-3
710.628891E-3
709.382629E-3
708.314323E-3
706.787682E-3
706.549072E-3
704.738045E-3
704.438210E-3
704.206467E-3
702.937317E-3
703.798485E-3
703.173065E-3
702.963066E-3
702.672386E-3
701.205254E-3
701.950264E-3
700.852776E-3
700.606155E-3
700.655365E-3
700.373840E-3
701.498795E-3
701.388931E-3
702.066422E-3
702.692986E-3
702.664948E-3
703.670311E-3
703.415108E-3
703.724098E-3
703.530693E-3
702.218056E-3
703.121567E-3
702.161980E-3
701.869583E-3
701.835251E-3
700.025368E-3
700.975227E-3
700.083160E-3
699.946976E-3
699.766159E-3
699.260902E-3
699.742699E-3
698.871803E-3
699.212265E-3
699.179649E-3
698.447227E-3
699.184799E-3
698.716164E-3
698.834610E-3
699.098969E-3
698.111343E-3
699.366188E-3
699.037743E-3
699.121857E-3
699.575043E-3
699.187660E-3
699.918365E-3
699.514389E-3
699.445724E-3
699.788475E-3
699.366760E-3
699.932098E-3
699.591064E-3
699.406242E-3
699.735832E-3
699.387360E-3
699.842834E-3
699.429131E-3
699.492645E-3
699.308395E-3
698.903847E-3
699.640846E-3
698.606873E-3
698.265266E-3
698.208618E-3
697.267342E-3
697.485924E-3
696.568680E-3
696.443367E-3
696.633339E-3
695.388222E-3
696.658516E-3
697.079086E-3
698.454666E-3
700.806427E-3
703.268623E-3
707.224846E-3
710.377693E-3
713.273048E-3
715.926361E-3
716.754341E-3
717.946815E-3
717.311668E-3
716.599846E-3
715.762711E-3
714.022636E-3
713.338852E-3
711.820221E-3
710.555649E-3
709.854698E-3
708.492851E-3
708.655930E-3
708.171272E-3
707.767296E-3
708.130074E-3
707.383919E-3
707.892036E-3
707.052040E-3
706.165123E-3
706.158829E-3
705.626106E-3
706.310463E-3
706.194305E-3
706.781960E-3
707.509804E-3
707.480049E-3
708.626175E-3
708.848763E-3
709.006119E-3
709.586334E-3
708.886528E-3
709.126282E-3
708.574104E-3
707.801628E-3
707.595634E-3
706.319618E-3
706.598282E-3
705.483627E-3
704.543495E-3
704.515457E-3
703.211975E-3
703.582191E-3
702.781105E-3
702.163696E-3
702.107048E-3
701.039886E-3
701.617241E-3
701.027298E-3
700.223351E-3
700.457954E-3
699.655724E-3
700.462532E-3
700.065422E-3
699.712944E-3
699.726677E-3
698.940468E-3
699.639702E-3
699.251747E-3
698.584557E-3
698.847198E-3
698.049545E-3
698.459244E-3
698.052979E-3
697.354889E-3
697.690773E-3
696.809578E-3
697.245598E-3
696.611023E-3
695.859146E-3
695.713806E-3
694.520187E-3
694.873810E-3
694.183731E-3
693.297958E-3
693.244743E-3
692.219925E-3
692.648506E-3
692.425919E-3
692.907143E-3
694.318771E-3
695.592499E-3
698.888969E-3
701.585197E-3
704.474258E-3
707.438278E-3
709.075356E-3
711.119843E-3
711.522102E-3
710.723305E-3
711.109543E-3
709.680176E-3
709.187508E-3
707.821655E-3
706.229210E-3
705.373192E-3
703.754425E-3
703.498077E-3
702.737045E-3
702.110481E-3
702.099037E-3
701.638985E-3
701.806068E-3
701.466751E-3
700.618744E-3
700.415039E-3
699.643707E-3
699.917793E-3
699.719238E-3
699.817085E-3
700.786400E-3
701.050758E-3
702.049255E-3
702.682686E-3
702.782249E-3
703.593636E-3
703.170776E-3
703.354454E-3
703.060913E-3
702.202034E-3
702.202034E-3
701.198387E-3
701.213264E-3
700.625038E-3
699.596786E-3
699.321556E-3
698.321915E-3
698.300743E-3
697.836113E-3
697.031593E-3
697.247887E-3
696.262550E-3
696.485138E-3
696.320915E-3
695.565605E-3
696.123505E-3
695.256042E-3
695.700073E-3
695.596504E-3
695.027733E-3
695.682907E-3
694.922447E-3
695.238304E-3
695.046616E-3
694.350243E-3
694.638634E-3
693.799782E-3
694.124794E-3
694.030380E-3
693.490791E-3
694.101906E-3
693.240738E-3
693.603516E-3
693.463326E-3
692.797852E-3
693.365479E-3
692.477417E-3
692.737770E-3
692.373848E-3
691.356468E-3
691.580772E-3
690.587425E-3
690.574837E-3
690.369415E-3
689.571762E-3
689.961433E-3
689.376068E-3
689.596939E-3
690.304756E-3
691.377640E-3
694.331932E-3
696.626472E-3
700.059700E-3
703.541565E-3
705.908775E-3
709.180069E-3
709.790039E-3
710.799408E-3
710.897827E-3
709.573174E-3
709.303665E-3
707.336998E-3
706.228065E-3
705.388641E-3
703.778458E-3
703.783035E-3
702.432632E-3
701.972580E-3
701.854134E-3
701.287651E-3
701.947975E-3
701.067352E-3
700.679398E-3
700.544357E-3
699.740982E-3
699.946976E-3
698.753357E-3
698.847771E-3
699.061775E-3
698.998833E-3
700.146675E-3
699.914360E-3
700.673676E-3
701.406670E-3
701.401520E-3
702.400017E-3
701.688194E-3
701.806641E-3
701.744843E-3
701.154900E-3
701.271057E-3
700.131226E-3
700.104904E-3
699.746704E-3
698.045540E-3
698.834610E-3
698.075294E-3
698.093033E-3
697.908783E-3
697.418976E-3
697.791481E-3
696.779251E-3
696.546936E-3
696.540070E-3
696.358681E-3
697.132874E-3
696.477127E-3
696.331787E-3
696.568108E-3
696.246529E-3
696.811867E-3
696.197319E-3
696.661377E-3
696.568680E-3
696.119499E-3
696.805000E-3
696.158981E-3
696.138954E-3
696.359253E-3
695.936966E-3
696.546936E-3
695.837975E-3
695.716095E-3
695.896339E-3
695.384216E-3
695.892334E-3
695.169640E-3
695.003700E-3
695.155334E-3
694.396591E-3
694.880676E-3
694.042969E-3
693.728828E-3
693.658447E-3
692.956924E-3
693.479347E-3
692.773819E-3
692.823601E-3
693.420410E-3
693.978310E-3
696.438789E-3
698.579979E-3
701.885605E-3
705.486488E-3
708.015633E-3
711.165047E-3
712.457657E-3
713.499069E-3
713.790894E-3
713.016701E-3
712.734032E-3
711.289215E-3
709.965134E-3
708.984375E-3
707.274628E-3
707.010841E-3
705.792618E-3
705.440712E-3
705.231285E-3
704.806709E-3
705.281639E-3
704.660225E-3
704.480553E-3
704.010201E-3
702.109337E-3
703.048325E-3
702.568245E-3
702.495003E-3
703.137016E-3
703.149605E-3
704.419327E-3
704.720306E-3
705.157471E-3
705.968285E-3
705.785179E-3
706.722450E-3
706.414032E-3
705.958557E-3
705.950546E-3
704.899406E-3
704.933739E-3
704.050827E-3
703.454018E-3
703.178787E-3
702.116776E-3
702.105904E-3
701.396370E-3
700.893974E-3
700.917435E-3
700.143242E-3
700.496292E-3
699.825096E-3
699.446297E-3
699.263763E-3
698.644066E-3
699.196815E-3
698.743629E-3
698.292732E-3
698.622322E-3
697.814369E-3
698.426628E-3
698.101044E-3
697.608948E-3
697.780037E-3
696.901703E-3
697.349739E-3
696.981812E-3
696.519470E-3
696.656799E-3
695.711517E-3
696.256828E-3
695.516968E-3
694.848061E-3
694.692421E-3
693.649292E-3
694.022942E-3
693.072510E-3
692.166138E-3
692.092323E-3
691.212845E-3
691.594505E-3
690.880394E-3
690.320778E-3
690.863800E-3
691.207695E-3
693.716812E-3
695.737839E-3
698.386574E-3
701.842690E-3
703.935814E-3
706.834030E-3
708.209038E-3
708.582115E-3
708.941460E-3
708.043098E-3
707.810211E-3
706.333923E-3
704.935455E-3
703.826523E-3
702.211189E-3
701.945114E-3
700.993538E-3
700.086594E-3
699.986458E-3
699.238586E-3
699.845695E-3
699.121284E-3
698.527908E-3
698.232651E-3
697.214127E-3
697.207260E-3
696.904564E-3
696.776962E-3
697.554016E-3
697.761726E-3
699.061775E-3
699.645424E-3
699.790764E-3
700.623322E-3
700.345230E-3
701.119423E-3
700.919724E-3
700.324631E-3
700.078011E-3
699.088097E-3
699.221420E-3
698.648071E-3
697.780609E-3
697.665596E-3
696.744347E-3
696.924019E-3
696.291733E-3
695.178795E-3
695.150185E-3
694.767380E-3
695.177078E-3
694.886398E-3
693.974876E-3
694.639206E-3
694.176865E-3
694.622040E-3
694.548798E-3
694.103622E-3
694.326210E-3
693.695641E-3
694.135094E-3
694.187164E-3
693.665886E-3
694.027519E-3
693.319130E-3
693.559456E-3
693.350029E-3
692.659950E-3
692.928886E-3
692.202187E-3
692.330933E-3
692.314911E-3
691.643715E-3
692.069435E-3
691.127586E-3
691.175652E-3
690.790558E-3
689.893913E-3
690.134239E-3
688.946342E-3
688.776970E-3
688.318634E-3
686.555099E-3
687.682343E-3
687.108994E-3
687.811661E-3
688.806152E-3
689.927673E-3
693.223000E-3
695.590210E-3
699.287224E-3
702.381706E-3
704.650497E-3
707.190514E-3
707.559013E-3
708.382416E-3
708.078575E-3
706.909561E-3
706.675529E-3
704.701996E-3
703.614807E-3
702.565384E-3
701.030731E-3
701.297951E-3
700.135231E-3
699.920082E-3
699.825096E-3
699.429703E-3
700.231361E-3
699.430847E-3
699.350739E-3
698.952484E-3
697.994041E-3
698.304749E-3
697.085381E-3
697.041321E-3
697.276497E-3
696.200180E-3
698.038673E-3
698.017502E-3
698.643494E-3
699.399948E-3
699.487495E-3
700.475121E-3
699.551010E-3
699.699211E-3
699.687767E-3
698.727608E-3
699.152756E-3
697.888756E-3
697.725105E-3
697.573471E-3
696.751785E-3
697.182083E-3
695.981026E-3
695.625687E-3
695.622253E-3
694.912148E-3
695.439148E-3
694.579124E-3
694.849777E-3
694.905281E-3
694.482422E-3
695.001411E-3
694.413757E-3
694.437790E-3
694.677544E-3
694.496155E-3
695.018005E-3
694.233513E-3
694.266129E-3
694.537926E-3
694.169426E-3
694.822884E-3
693.900490E-3
693.874741E-3
694.004631E-3
693.723106E-3
694.141388E-3
693.530273E-3
693.663597E-3
693.710518E-3
691.936111E-3
693.211555E-3
692.646790E-3
692.263985E-3
691.930389E-3
691.234016E-3
691.536713E-3
690.459251E-3
690.248108E-3
690.390015E-3
690.027809E-3
690.993118E-3
690.950203E-3
692.292023E-3
694.600296E-3
696.988106E-3
700.770378E-3
703.379631E-3
706.510735E-3
708.874512E-3
709.891891E-3
711.439133E-3
711.000252E-3
710.296440E-3
709.519386E-3
707.862854E-3
707.385635E-3
705.640411E-3
704.624176E-3
704.030800E-3
702.954483E-3
703.242302E-3
702.465820E-3
702.510452E-3
702.553368E-3
701.957130E-3
702.487564E-3
701.543427E-3
701.041603E-3
700.739479E-3
700.236511E-3
700.903130E-3
700.796127E-3
701.101685E-3
702.120209E-3
702.244377E-3
703.520393E-3
703.352165E-3
703.590202E-3
704.093742E-3
703.407097E-3
703.796196E-3
702.986526E-3
702.228928E-3
702.133942E-3
701.156616E-3
701.172638E-3
699.980736E-3
699.473190E-3
699.131012E-3
698.273277E-3
698.757935E-3
697.937965E-3
697.484207E-3
697.496223E-3
696.727180E-3
696.966934E-3
696.501160E-3
696.320915E-3
696.521187E-3
695.864868E-3
696.453094E-3
696.310043E-3
695.959282E-3
696.250534E-3
695.582199E-3
696.084595E-3
695.549011E-3
695.287514E-3
695.230865E-3
694.651794E-3
694.993973E-3
694.346809E-3
693.596649E-3
693.744278E-3
692.804146E-3
693.176651E-3
692.607307E-3
691.755295E-3
691.565895E-3
690.310478E-3
690.673256E-3
689.812088E-3
689.364052E-3
689.483070E-3
688.498306E-3
689.421844E-3
690.009499E-3
691.125870E-3
693.701935E-3
695.845985E-3
699.539566E-3
702.002335E-3
704.010773E-3
706.016922E-3
706.152534E-3
707.021713E-3
706.402016E-3
705.147171E-3
704.441071E-3
702.458382E-3
701.684761E-3
700.459671E-3
698.572540E-3
698.240662E-3
697.018433E-3
697.204971E-3
696.758652E-3
696.166420E-3
696.277428E-3
695.562172E-3
695.513535E-3
694.638634E-3
693.683052E-3
693.665314E-3
693.153763E-3
694.187737E-3
694.611740E-3
694.359398E-3
695.588493E-3
695.905495E-3
697.020721E-3
697.185516E-3
697.041321E-3
697.410393E-3
696.665382E-3
696.667671E-3
696.465683E-3
695.461464E-3
695.088387E-3
693.987465E-3
694.057274E-3
693.525696E-3
692.653656E-3
692.389297E-3
691.603088E-3
691.964149E-3
691.516685E-3
691.027451E-3
691.303825E-3
690.563965E-3
691.022301E-3
690.801430E-3
690.095901E-3
690.594292E-3
690.008926E-3
690.551949E-3
690.447807E-3
690.024948E-3
690.438080E-3
689.991188E-3
690.481567E-3
690.145683E-3
689.651299E-3
690.000916E-3
689.295959E-3
689.675903E-3
689.409828E-3
689.040756E-3
689.233017E-3
688.598442E-3
688.777542E-3
688.464546E-3
687.795639E-3
687.932968E-3
686.803436E-3
687.188530E-3
686.672401E-3
685.746574E-3
685.630989E-3
684.449387E-3
684.743500E-3
684.436226E-3
683.981323E-3
684.780693E-3
685.402107E-3
687.599945E-3
690.010643E-3
692.733765E-3
696.514893E-3
698.937035E-3
702.022934E-3
703.835678E-3
703.779030E-3
705.066490E-3
704.302025E-3
703.873444E-3
702.480698E-3
700.877953E-3
700.567245E-3
698.710442E-3
698.252678E-3
697.585487E-3
695.463753E-3
696.607018E-3
695.926094E-3
696.279716E-3
696.258545E-3
695.664024E-3
695.780754E-3
694.634628E-3
694.028091E-3
693.577766E-3
692.651367E-3
693.204689E-3
692.683983E-3
693.256760E-3
693.894196E-3
693.909645E-3
695.101547E-3
694.730759E-3
695.254898E-3
695.466614E-3
694.933319E-3
695.607376E-3
694.525337E-3
694.327927E-3
694.196892E-3
693.483925E-3
693.811226E-3
692.729759E-3
692.333221E-3
692.459679E-3
691.757584E-3
692.360687E-3
691.269493E-3
691.258621E-3
691.100693E-3
690.609169E-3
691.169930E-3
690.416908E-3
690.451813E-3
690.549088E-3
690.046120E-3
690.776253E-3
689.884186E-3
690.163994E-3
690.261269E-3
689.956284E-3
690.850639E-3
690.159416E-3
690.388870E-3
690.537071E-3
690.038109E-3
690.830040E-3
690.154266E-3
690.135384E-3
690.158272E-3
689.893341E-3
690.343094E-3
689.558029E-3
689.971161E-3
689.923096E-3
689.186668E-3
689.786911E-3
688.727760E-3
688.286018E-3
688.521194E-3
687.900352E-3
688.404465E-3
687.460327E-3
687.397385E-3
687.387085E-3
687.232018E-3
688.015938E-3
687.892342E-3
689.836121E-3
692.216492E-3
694.763947E-3
698.756218E-3
701.414108E-3
704.364395E-3
706.677246E-3
707.735825E-3
709.022141E-3
708.284569E-3
707.683182E-3
706.625748E-3
705.198669E-3
704.505157E-3
702.302170E-3
701.568031E-3
700.663948E-3
699.756432E-3
699.933815E-3
699.106407E-3
699.029732E-3
699.199104E-3
698.572540E-3
698.769951E-3
697.900200E-3
697.174644E-3
696.797562E-3
696.129799E-3
696.993256E-3
696.696281E-3
697.313118E-3
698.153114E-3
698.078728E-3
699.272919E-3
699.248314E-3
699.504089E-3
700.075722E-3
699.521828E-3
699.868011E-3
698.939323E-3
698.362541E-3
698.128510E-3
697.211266E-3
697.087669E-3
695.914078E-3
695.189667E-3
695.116425E-3
694.147110E-3
694.298172E-3
693.454170E-3
693.217278E-3
693.320847E-3
691.766739E-3
692.976379E-3
692.768669E-3
692.521477E-3
692.761803E-3
692.273140E-3
692.916870E-3
692.560959E-3
692.647362E-3
692.935753E-3
692.201614E-3
692.781830E-3
692.246246E-3
691.875458E-3
692.322922E-3
691.320419E-3
691.921806E-3
691.494370E-3
691.102982E-3
691.256905E-3
