Notes :


2023-11-04 ¿ÀÈÄ 10:06:57
Volts
Ch : LED 2,
521.511841E-3
521.331024E-3
521.143913E-3
521.046066E-3
520.853233E-3
520.866394E-3
520.759392E-3
520.778847E-3
520.774841E-3
520.960236E-3
521.055794E-3
521.109581E-3
521.041489E-3
521.031761E-3
520.788002E-3
520.728493E-3
520.484161E-3
520.163155E-3
519.968605E-3
519.724846E-3
519.618988E-3
519.516563E-3
519.257927E-3
518.986130E-3
518.864822E-3
518.510056E-3
518.444252E-3
519.031906E-3
520.639801E-3
523.317146E-3
526.815605E-3
530.759811E-3
534.952354E-3
538.494301E-3
541.705513E-3
543.820381E-3
544.725037E-3
544.587708E-3
543.666458E-3
541.928101E-3
540.093613E-3
538.133240E-3
536.406326E-3
534.837914E-3
533.612823E-3
532.729340E-3
532.283592E-3
531.985474E-3
531.948280E-3
531.992912E-3
532.019234E-3
532.036400E-3
531.932259E-3
531.575775E-3
531.083679E-3
530.558395E-3
530.075455E-3
529.834557E-3
530.005646E-3
530.108643E-3
530.417633E-3
530.829048E-3
531.210136E-3
531.507111E-3
531.703949E-3
531.837273E-3
531.743431E-3
531.655884E-3
531.368637E-3
531.052780E-3
530.769539E-3
530.391884E-3
529.980469E-3
529.509544E-3
529.009438E-3
528.341675E-3
527.810669E-3
527.335739E-3
526.932335E-3
526.492310E-3
526.268005E-3
526.035690E-3
525.825691E-3
525.711823E-3
525.429153E-3
525.474930E-3
525.111580E-3
524.784279E-3
524.554825E-3
524.356270E-3
524.293900E-3
524.062729E-3
524.035835E-3
524.105644E-3
524.174309E-3
524.134254E-3
524.038124E-3
524.090767E-3
524.039268E-3
523.919678E-3
523.858452E-3
523.825836E-3
523.699951E-3
523.610115E-3
523.381805E-3
523.260498E-3
523.087692E-3
522.843933E-3
522.708893E-3
522.337532E-3
522.128677E-3
521.777916E-3
521.724129E-3
521.440315E-3
521.836281E-3
523.327446E-3
525.823975E-3
529.046631E-3
532.651520E-3
536.374855E-3
539.798355E-3
542.383003E-3
544.291306E-3
545.264053E-3
545.158195E-3
544.262695E-3
542.879105E-3
541.132164E-3
539.511681E-3
537.835121E-3
536.224937E-3
534.919167E-3
533.778191E-3
532.767105E-3
532.117081E-3
531.699944E-3
531.519127E-3
531.409836E-3
531.177521E-3
530.997276E-3
530.571556E-3
530.073166E-3
529.710960E-3
529.465485E-3
529.136467E-3
529.015732E-3
529.008865E-3
529.287529E-3
529.757881E-3
530.097771E-3
530.620766E-3
531.122017E-3
531.276512E-3
531.386375E-3
531.219292E-3
530.925751E-3
530.253983E-3
529.654312E-3
529.089546E-3
528.250694E-3
527.685356E-3
527.216721E-3
526.778412E-3
526.368713E-3
526.122665E-3
525.768471E-3
525.436020E-3
525.080109E-3
524.550819E-3
524.297905E-3
524.061012E-3
523.776054E-3
523.554611E-3
523.499107E-3
523.399544E-3
523.361778E-3
523.501396E-3
523.347473E-3
523.290825E-3
523.166656E-3
523.121452E-3
522.944069E-3
522.779274E-3
522.857666E-3
522.875977E-3
522.905731E-3
522.866821E-3
522.938347E-3
522.809601E-3
522.660255E-3
522.501755E-3
522.533226E-3
522.103500E-3
521.913528E-3
521.693230E-3
521.393394E-3
521.103287E-3
520.937347E-3
521.121025E-3
521.784210E-3
523.547173E-3
526.217079E-3
529.696083E-3
533.485794E-3
537.020302E-3
540.448380E-3
543.138885E-3
545.126724E-3
545.767593E-3
545.652580E-3
544.779396E-3
543.347168E-3
541.679192E-3
539.987183E-3
538.218498E-3
536.745071E-3
535.531425E-3
534.593582E-3
534.074593E-3
533.724976E-3
533.719826E-3
533.654594E-3
533.756447E-3
533.825111E-3
533.695221E-3
533.252907E-3
532.799149E-3
532.073593E-3
531.628990E-3
531.162071E-3
531.018448E-3
530.946922E-3
531.123161E-3
531.391525E-3
531.484222E-3
531.991196E-3
532.221794E-3
532.361984E-3
532.424927E-3
532.216072E-3
532.054138E-3
531.699371E-3
531.266785E-3
531.062508E-3
530.538368E-3
530.021095E-3
529.589653E-3
529.113579E-3
528.635216E-3
528.067017E-3
527.576065E-3
527.081680E-3
526.662254E-3
526.308632E-3
525.967026E-3
525.732994E-3
525.754166E-3
525.565338E-3
525.516701E-3
525.249481E-3
525.240898E-3
525.067520E-3
524.903870E-3
524.828339E-3
524.629211E-3
524.540520E-3
524.409485E-3
524.401474E-3
524.237251E-3
524.450111E-3
524.524498E-3
524.401474E-3
524.292755E-3
524.091339E-3
523.746300E-3
523.414993E-3
523.116302E-3
522.615051E-3
522.370720E-3
521.998787E-3
521.945000E-3
522.364426E-3
523.568916E-3
525.821114E-3
528.718758E-3
532.212067E-3
535.922241E-3
539.243317E-3
541.933823E-3
543.811226E-3
544.877815E-3
544.988251E-3
544.298744E-3
543.148613E-3
541.652298E-3
540.280151E-3
538.603020E-3
537.131310E-3
535.813522E-3
534.698296E-3
533.967590E-3
533.388519E-3
532.990265E-3
532.974815E-3
532.879257E-3
532.959938E-3
532.899284E-3
532.672119E-3
532.180595E-3
531.595802E-3
530.853081E-3
530.264282E-3
529.884911E-3
529.826546E-3
529.558754E-3
529.657745E-3
529.846001E-3
530.167580E-3
530.635643E-3
531.002998E-3
531.174088E-3
531.223297E-3
531.345177E-3
530.975533E-3
530.480003E-3
530.097771E-3
529.550743E-3
529.056931E-3
528.635216E-3
528.144264E-3
527.748871E-3
527.318001E-3
527.019310E-3
526.687431E-3
526.270866E-3
525.926399E-3
525.711823E-3
525.362206E-3
524.989700E-3
524.789429E-3
524.677849E-3
524.618912E-3
524.455261E-3
524.466705E-3
524.390602E-3
524.317932E-3
524.204636E-3
524.202347E-3
523.966599E-3
523.783493E-3
523.633575E-3
523.675919E-3
523.444176E-3
523.392677E-3
523.263931E-3
523.078537E-3
522.754669E-3
522.608757E-3
522.306633E-3
522.056580E-3
521.910095E-3
522.034264E-3
522.661400E-3
524.471855E-3
527.042198E-3
530.323219E-3
533.929825E-3
537.377357E-3
540.379143E-3
542.590714E-3
543.833542E-3
544.132805E-3
543.451881E-3
542.225075E-3
540.649223E-3
538.815880E-3
537.023735E-3
535.329437E-3
533.982468E-3
532.975388E-3
532.262421E-3
531.842995E-3
531.488228E-3
531.368637E-3
531.349754E-3
531.247902E-3
531.011009E-3
530.550385E-3
530.079460E-3
529.407692E-3
528.860664E-3
528.642082E-3
528.715897E-3
528.881264E-3
529.093552E-3
529.501534E-3
529.909515E-3
530.258560E-3
530.569267E-3
530.845642E-3
530.671120E-3
530.560684E-3
530.200768E-3
529.885483E-3
529.484367E-3
529.175377E-3
528.811455E-3
528.343391E-3
527.801514E-3
527.404404E-3
526.811028E-3
526.313210E-3
525.795937E-3
525.449181E-3
525.093269E-3
524.735641E-3
524.600029E-3
524.289322E-3
524.345970E-3
524.398041E-3
524.359703E-3
524.238396E-3
524.075890E-3
524.066734E-3
523.965454E-3
523.960876E-3
524.129677E-3
523.932266E-3
523.895073E-3
523.928261E-3
523.970032E-3
524.027824E-3
524.115372E-3
524.049568E-3
523.987198E-3
523.935127E-3
523.639870E-3
523.320007E-3
522.942924E-3
522.663689E-3
522.311783E-3
522.159576E-3
522.152138E-3
522.763824E-3
524.122238E-3
526.574707E-3
529.717827E-3
533.204269E-3
536.820030E-3
539.869308E-3
542.242813E-3
543.795204E-3
544.444656E-3
544.480705E-3
543.433571E-3
542.057991E-3
540.573120E-3
538.880539E-3
537.353897E-3
536.017227E-3
534.795570E-3
533.812523E-3
533.156776E-3
532.645226E-3
532.384300E-3
532.341957E-3
532.255554E-3
532.065582E-3
531.840706E-3
531.560898E-3
531.211281E-3
530.957222E-3
530.755806E-3
530.739212E-3
530.838776E-3
531.056786E-3
531.483650E-3
531.868172E-3
532.211494E-3
532.573700E-3
532.777405E-3
532.919312E-3
532.841492E-3
532.661247E-3
532.428932E-3
531.929398E-3
531.439018E-3
530.908012E-3
530.263710E-3
529.732704E-3
529.241753E-3
528.812027E-3
528.349113E-3
528.107071E-3
527.830696E-3
527.679634E-3
527.458763E-3
527.349472E-3
527.168083E-3
526.978683E-3
526.744080E-3
526.473999E-3
526.340103E-3
526.241112E-3
526.104927E-3
525.893784E-3
526.145554E-3
526.213074E-3
526.167870E-3
526.213074E-3
526.167297E-3
526.180458E-3
526.127243E-3
526.157570E-3
525.898933E-3
525.835419E-3
525.825691E-3
525.525856E-3
525.360489E-3
525.176811E-3
524.901581E-3
524.681854E-3
524.415207E-3
524.367142E-3
524.224091E-3
524.671555E-3
526.227379E-3
528.694153E-3
531.766891E-3
535.104561E-3
538.375282E-3
541.302109E-3
543.418121E-3
544.794273E-3
545.106125E-3
544.551659E-3
543.388939E-3
541.721535E-3
539.992332E-3
538.479424E-3
536.704445E-3
535.291672E-3
534.183311E-3
533.407974E-3
532.984543E-3
532.732201E-3
532.736778E-3
532.625198E-3
532.519341E-3
532.119942E-3
531.552315E-3
530.994415E-3
530.361557E-3
530.077744E-3
530.019379E-3
530.118370E-3
530.584717E-3
531.092834E-3
531.684494E-3
532.075882E-3
532.417488E-3
532.724190E-3
532.676697E-3
532.486725E-3
532.207489E-3
531.760025E-3
531.341743E-3
530.813026E-3
530.284882E-3
529.806519E-3
529.350471E-3
528.847504E-3
528.409195E-3
527.867317E-3
527.402687E-3
526.895714E-3
526.603317E-3
526.395607E-3
526.124382E-3
525.940132E-3
525.718117E-3
525.626564E-3
525.560760E-3
525.397110E-3
525.108147E-3
525.142479E-3
525.046349E-3
524.896431E-3
524.719620E-3
524.687576E-3
524.571991E-3
524.612045E-3
524.686432E-3
524.707603E-3
524.777412E-3
524.786568E-3
524.765968E-3
524.478722E-3
524.352837E-3
524.286461E-3
524.040413E-3
523.792076E-3
523.650169E-3
523.498535E-3
523.319435E-3
523.016739E-3
522.752953E-3
522.512054E-3
522.537231E-3
523.036194E-3
524.951935E-3
527.832413E-3
531.287956E-3
535.028458E-3
538.736343E-3
541.901207E-3
544.236946E-3
545.534134E-3
545.939255E-3
545.381355E-3
544.187737E-3
542.645073E-3
540.887833E-3
539.294815E-3
537.882042E-3
536.718750E-3
535.907364E-3
535.409546E-3
535.138893E-3
534.964371E-3
534.964371E-3
535.042763E-3
534.949493E-3
534.805298E-3
534.496880E-3
533.964729E-3
533.465767E-3
532.767677E-3
532.287025E-3
532.133102E-3
532.187462E-3
532.471275E-3
532.708740E-3
533.002853E-3
533.213425E-3
533.418274E-3
533.320999E-3
533.255768E-3
533.112144E-3
532.784843E-3
532.468987E-3
532.146835E-3
531.762886E-3
531.356621E-3
530.945778E-3
530.490875E-3
529.910660E-3
529.377365E-3
528.832626E-3
528.349113E-3
527.913094E-3
527.557755E-3
527.410126E-3
527.220726E-3
527.169800E-3
527.029610E-3
526.981544E-3
526.855659E-3
526.772690E-3
526.550674E-3
526.396179E-3
526.132965E-3
525.900650E-3
525.732422E-3
525.680923E-3
525.604820E-3
525.603676E-3
525.643158E-3
525.608826E-3
525.793648E-3
525.671196E-3
525.577927E-3
525.415421E-3
525.274658E-3
525.104713E-3
524.847794E-3
524.727631E-3
524.537086E-3
524.479294E-3
524.306488E-3
523.991203E-3
523.678207E-3
523.374939E-3
522.912598E-3
522.597313E-3
522.324371E-3
522.611618E-3
523.737144E-3
526.024246E-3
529.150772E-3
533.028030E-3
536.948776E-3
540.514755E-3
543.374062E-3
545.278931E-3
546.120071E-3
545.825386E-3
545.014000E-3
543.573761E-3
542.048264E-3
540.363693E-3
538.784981E-3
537.571335E-3
536.506462E-3
535.848427E-3
535.358620E-3
535.242462E-3
535.351753E-3
535.394096E-3
535.447311E-3
535.325432E-3
535.186958E-3
534.664536E-3
533.917809E-3
533.196259E-3
532.606888E-3
532.347107E-3
532.313919E-3
532.371712E-3
532.724762E-3
533.078957E-3
533.389664E-3
533.747864E-3
533.929825E-3
533.850861E-3
533.723259E-3
533.480644E-3
533.141899E-3
532.803154E-3
532.575417E-3
532.490730E-3
532.102203E-3
531.768608E-3
531.318855E-3
530.886841E-3
530.299759E-3
529.812813E-3
529.373932E-3
529.018593E-3
528.884697E-3
528.624916E-3
528.576279E-3
528.544807E-3
528.462982E-3
528.565979E-3
528.504181E-3
528.446960E-3
528.318214E-3
528.243828E-3
527.943993E-3
527.622986E-3
527.494240E-3
527.316856E-3
527.254486E-3
527.315712E-3
527.398109E-3
527.308846E-3
527.188110E-3
527.294540E-3
527.158356E-3
527.003288E-3
526.820183E-3
526.607323E-3
526.369286E-3
526.234818E-3
525.907516E-3
525.857735E-3
525.629425E-3
525.468636E-3
525.418282E-3
525.141907E-3
524.913025E-3
524.506760E-3
524.150848E-3
523.758316E-3
523.480797E-3
523.259354E-3
523.519135E-3
524.692154E-3
526.860809E-3
529.975891E-3
533.686066E-3
537.571335E-3
540.851784E-3
543.586349E-3
545.409966E-3
546.219063E-3
546.193314E-3
545.209122E-3
543.984604E-3
542.223358E-3
540.490723E-3
538.970947E-3
537.715530E-3
536.729622E-3
535.906219E-3
535.467339E-3
535.328293E-3
535.066795E-3
535.123444E-3
535.221291E-3
535.058212E-3
534.846497E-3
534.305763E-3
533.709526E-3
533.084106E-3
532.737923E-3
532.571411E-3
532.542801E-3
533.051491E-3
533.156204E-3
533.565903E-3
533.962440E-3
534.257126E-3
534.508324E-3
534.614182E-3
534.539795E-3
534.226227E-3
533.596230E-3
533.325005E-3
532.696724E-3
532.188606E-3
531.770325E-3
531.211281E-3
530.720901E-3
530.296898E-3
529.841995E-3
529.601097E-3
529.241753E-3
528.995705E-3
528.722763E-3
528.351974E-3
528.108215E-3
527.763748E-3
527.542877E-3
527.403259E-3
527.358627E-3
527.252197E-3
527.154350E-3
527.228737E-3
527.130890E-3
527.029037E-3
526.960945E-3
526.737213E-3
526.617050E-3
526.423645E-3
526.325226E-3
526.278305E-3
526.245117E-3
526.242828E-3
526.249123E-3
526.274872E-3
526.284027E-3
526.016235E-3
525.587654E-3
525.435448E-3
525.303841E-3
525.016594E-3
524.678993E-3
524.452400E-3
524.038124E-3
523.746300E-3
523.564339E-3
523.272514E-3
523.023605E-3
522.886276E-3
522.831345E-3
523.223305E-3
524.313354E-3
526.475716E-3
529.406548E-3
532.909012E-3
536.375999E-3
539.575195E-3
542.174149E-3
543.953133E-3
544.923592E-3
544.873810E-3
544.235802E-3
542.997551E-3
541.341019E-3
539.774895E-3
538.335800E-3
537.082100E-3
536.048698E-3
535.386658E-3
534.844208E-3
534.741211E-3
534.686279E-3
534.828758E-3
535.056496E-3
535.053635E-3
534.839630E-3
534.348106E-3
533.781052E-3
533.037758E-3
532.500458E-3
532.086754E-3
532.015800E-3
532.114220E-3
532.451820E-3
532.834053E-3
533.292961E-3
533.483505E-3
533.714676E-3
533.658600E-3
533.604813E-3
533.328438E-3
532.914162E-3
532.507896E-3
532.209206E-3
531.704521E-3
531.297112E-3
530.829048E-3
530.351257E-3
529.672050E-3
529.449463E-3
529.207993E-3
528.863525E-3
528.599167E-3
528.353119E-3
528.159142E-3
527.982330E-3
527.906227E-3
527.802658E-3
527.748871E-3
527.699089E-3
527.620125E-3
527.407265E-3
527.334595E-3
527.280807E-3
527.073097E-3
526.990700E-3
527.051926E-3
526.849365E-3
526.665688E-3
526.610184E-3
526.523209E-3
526.318932E-3
526.160431E-3
526.005363E-3
525.900650E-3
525.678635E-3
525.513268E-3
525.382805E-3
525.341606E-3
525.197411E-3
525.226593E-3
525.062370E-3
524.955368E-3
524.745369E-3
524.579430E-3
524.343109E-3
523.967171E-3
523.635864E-3
523.389244E-3
523.166084E-3
522.997856E-3
522.854233E-3
522.640228E-3
522.589302E-3
522.735786E-3
523.609543E-3
525.370216E-3
528.143692E-3
531.603241E-3
535.296822E-3
538.730621E-3
541.890907E-3
544.131088E-3
545.553017E-3
545.853424E-3
545.381927E-3
544.219208E-3
542.750931E-3
541.215706E-3
539.461327E-3
538.425636E-3
537.331581E-3
536.755371E-3
536.427498E-3
536.278725E-3
536.298180E-3
536.427498E-3
536.711884E-3
536.690712E-3
536.822319E-3
536.672401E-3
536.230659E-3
535.442162E-3
534.670830E-3
533.916092E-3
533.461189E-3
533.218002E-3
533.172226E-3
533.352470E-3
533.521843E-3
533.980751E-3
534.060860E-3
534.154129E-3
534.114647E-3
533.978462E-3
533.687782E-3
533.407974E-3
533.020020E-3
532.693863E-3
532.151413E-3
531.761742E-3
531.321144E-3
530.897141E-3
530.500603E-3
530.032539E-3
529.685783E-3
529.179955E-3
