Notes :


2023-10-25 ¿ÀÈÄ 9:54:05
Volts
Ch : LED 2,
239.402962E-3
239.493370E-3
239.381218E-3
239.462471E-3
239.412117E-3
239.369774E-3
239.458466E-3
239.241028E-3
239.321136E-3
239.244461E-3
239.232445E-3
239.306831E-3
239.175797E-3
239.255333E-3
239.215851E-3
239.098549E-3
239.193535E-3
239.079094E-3
239.189529E-3
239.217567E-3
239.109421E-3
239.097977E-3
239.047050E-3
239.162636E-3
239.082527E-3
238.883972E-3
239.029884E-3
239.001274E-3
239.171791E-3
239.043045E-3
238.931465E-3
239.279366E-3
239.341736E-3
239.731407E-3
240.301323E-3
240.707016E-3
241.086960E-3
241.242599E-3
241.660309E-3
241.769028E-3
241.695213E-3
241.696358E-3
241.477776E-3
241.411400E-3
241.207695E-3
240.903282E-3
240.899277E-3
240.621185E-3
240.580559E-3
240.552521E-3
240.359688E-3
240.583420E-3
240.526772E-3
240.704155E-3
240.667534E-3
240.575981E-3
240.735626E-3
240.510750E-3
240.464973E-3
240.410614E-3
240.225220E-3
240.334511E-3
240.143394E-3
240.129089E-3
240.202332E-3
240.086174E-3
240.321922E-3
240.222359E-3
240.405464E-3
240.422630E-3
240.211487E-3
240.309906E-3
240.197754E-3
240.134811E-3
240.166283E-3
239.710808E-3
240.053558E-3
239.860153E-3
239.992332E-3
239.907074E-3
239.737129E-3
239.870453E-3
239.643288E-3
239.672470E-3
239.705658E-3
239.635277E-3
239.925957E-3
239.679337E-3
239.799500E-3
239.744568E-3
239.671898E-3
239.818382E-3
239.735985E-3
239.700508E-3
239.791489E-3
239.578629E-3
239.771461E-3
239.595795E-3
239.613533E-3
239.805794E-3
239.390373E-3
239.772606E-3
239.560318E-3
239.541435E-3
239.669609E-3
239.547729E-3
239.727974E-3
239.596367E-3
239.573479E-3
239.556313E-3
239.381790E-3
239.659882E-3
239.437866E-3
239.587212E-3
239.625549E-3
239.471054E-3
239.590073E-3
239.438438E-3
239.459038E-3
239.434433E-3
239.266205E-3
239.337730E-3
239.143181E-3
239.281654E-3
239.309120E-3
239.216423E-3
239.367485E-3
239.164352E-3
239.247894E-3
239.397240E-3
239.517975E-3
239.952278E-3
240.113068E-3
240.556526E-3
241.052055E-3
241.316414E-3
241.694069E-3
241.890907E-3
241.912079E-3
241.907501E-3
241.699219E-3
241.548729E-3
241.117287E-3
240.823174E-3
240.584564E-3
240.130806E-3
240.416336E-3
240.229797E-3
240.333939E-3
240.376282E-3
240.254974E-3
240.453529E-3
240.305901E-3
240.333366E-3
240.338516E-3
240.224075E-3
240.210342E-3
239.991760E-3
239.888191E-3
239.936256E-3
239.801788E-3
239.936256E-3
239.869308E-3
239.869308E-3
239.987183E-3
239.907074E-3
239.927101E-3
239.944267E-3
239.845848E-3
239.856720E-3
239.690781E-3
239.712524E-3
239.543152E-3
239.543724E-3
239.339447E-3
239.201546E-3
239.380074E-3
239.168930E-3
239.133453E-3
239.144897E-3
238.928604E-3
239.162636E-3
239.019012E-3
238.886833E-3
238.982964E-3
238.867378E-3
238.949203E-3
239.020729E-3
238.961220E-3
239.019012E-3
238.813019E-3
238.966942E-3
238.937759E-3
238.930893E-3
238.853073E-3
238.725471E-3
238.891983E-3
238.724327E-3
238.706017E-3
238.736343E-3
238.612175E-3
238.814735E-3
238.706017E-3
238.677979E-3
238.663101E-3
238.629341E-3
238.713455E-3
238.711166E-3
238.659096E-3
238.664246E-3
238.499451E-3
238.597298E-3
238.443947E-3
238.506889E-3
238.649368E-3
238.038254E-3
238.385582E-3
238.436508E-3
238.419914E-3
238.604736E-3
238.270569E-3
238.420486E-3
238.452530E-3
238.515472E-3
238.885689E-3
239.034462E-3
239.702797E-3
239.954567E-3
240.386581E-3
240.769386E-3
240.937042E-3
241.222572E-3
241.254616E-3
241.066360E-3
240.975952E-3
240.553093E-3
240.589142E-3
240.359116E-3
240.003204E-3
240.044975E-3
239.793777E-3
239.884186E-3
239.709663E-3
239.718246E-3
239.903641E-3
239.765739E-3
239.982605E-3
239.905357E-3
239.820099E-3
239.793777E-3
239.473915E-3
239.521408E-3
239.480209E-3
239.295387E-3
239.353180E-3
239.221573E-3
239.455605E-3
239.377785E-3
239.368629E-3
239.555168E-3
239.380646E-3
239.590073E-3
239.527130E-3
239.538574E-3
239.524841E-3
239.302826E-3
239.286804E-3
239.140892E-3
238.933182E-3
239.148331E-3
238.861084E-3
239.040184E-3
238.888550E-3
238.825607E-3
238.839340E-3
238.676262E-3
238.865662E-3
238.901138E-3
238.718605E-3
238.858223E-3
238.806725E-3
238.912010E-3
238.853645E-3
238.800430E-3
238.962364E-3
238.740349E-3
238.864517E-3
238.710022E-3
238.722610E-3
238.962936E-3
238.888550E-3
238.942909E-3
238.830185E-3
238.646507E-3
238.805008E-3
238.760376E-3
238.941765E-3
238.802147E-3
238.639641E-3
238.731194E-3
238.719749E-3
238.726044E-3
238.738060E-3
238.608170E-3
238.687134E-3
238.647079E-3
238.683128E-3
238.771820E-3
238.681984E-3
238.556671E-3
238.478279E-3
238.613892E-3
238.595581E-3
238.471985E-3
238.494873E-3
238.298035E-3
238.481140E-3
238.438797E-3
238.387871E-3
238.507462E-3
238.638496E-3
238.973236E-3
239.270210E-3
239.558601E-3
240.122795E-3
240.471840E-3
240.859222E-3
241.129303E-3
241.173363E-3
241.251183E-3
240.992546E-3
240.980530E-3
240.713310E-3
240.417480E-3
240.227509E-3
240.004349E-3
240.019798E-3
240.006065E-3
239.828682E-3
239.945412E-3
239.830971E-3
239.958000E-3
240.016365E-3
239.746857E-3
240.006065E-3
239.826965E-3
239.903069E-3
239.827538E-3
239.658737E-3
239.611816E-3
239.397812E-3
239.488220E-3
239.528847E-3
239.465904E-3
239.628983E-3
239.488220E-3
239.599228E-3
239.780617E-3
239.622688E-3
239.740562E-3
239.521980E-3
239.398956E-3
239.328575E-3
239.048767E-3
239.380646E-3
239.243889E-3
239.278793E-3
239.187241E-3
239.036751E-3
239.138031E-3
238.968086E-3
238.937759E-3
239.006424E-3
238.591003E-3
238.929749E-3
238.863373E-3
238.893700E-3
239.004135E-3
238.819885E-3
239.048195E-3
238.851929E-3
238.751793E-3
238.822174E-3
238.791847E-3
238.936043E-3
238.871956E-3
238.845062E-3
238.954926E-3
238.766098E-3
238.891983E-3
238.853073E-3
238.758087E-3
238.917160E-3
238.919449E-3
238.982964E-3
238.816452E-3
238.699150E-3
238.798714E-3
238.668823E-3
238.878822E-3
238.630486E-3
238.559532E-3
238.724899E-3
238.582420E-3
238.715744E-3
238.664818E-3
238.638496E-3
238.657379E-3
238.653374E-3
238.727760E-3
238.634491E-3
238.607025E-3
238.535500E-3
238.425064E-3
238.521767E-3
238.389587E-3
238.355827E-3
238.439941E-3
238.429642E-3
238.831329E-3
238.841057E-3
239.328575E-3
239.808083E-3
240.270424E-3
240.715027E-3
240.776825E-3
240.891838E-3
240.934181E-3
240.788841E-3
240.863800E-3
240.570259E-3
240.182877E-3
240.011215E-3
239.646149E-3
239.604950E-3
239.377785E-3
239.381790E-3
239.323425E-3
239.249039E-3
239.468193E-3
239.360619E-3
239.298820E-3
239.374924E-3
239.280510E-3
239.321136E-3
238.890839E-3
238.811302E-3
238.875389E-3
238.766670E-3
238.927460E-3
238.813591E-3
238.722610E-3
238.866234E-3
238.878822E-3
238.990402E-3
238.953781E-3
238.835335E-3
238.924599E-3
238.424492E-3
238.586998E-3
238.454819E-3
238.464546E-3
238.467407E-3
238.217354E-3
238.356972E-3
238.134956E-3
238.100624E-3
238.126945E-3
237.670898E-3
237.962723E-3
238.006783E-3
238.010788E-3
237.984467E-3
237.896919E-3
238.014793E-3
237.899208E-3
237.779045E-3
237.872314E-3
237.898064E-3
238.011360E-3
237.901497E-3
237.790489E-3
237.924385E-3
237.768173E-3
237.890625E-3
237.803078E-3
237.803078E-3
237.765312E-3
237.373924E-3
237.686348E-3
237.777328E-3
237.725830E-3
237.845993E-3
237.672043E-3
237.789345E-3
237.770462E-3
237.690926E-3
237.832260E-3
237.819672E-3
237.831116E-3
237.615395E-3
237.510681E-3
237.610245E-3
237.398529E-3
237.549019E-3
237.368774E-3
237.386513E-3
237.527275E-3
237.471771E-3
237.522125E-3
237.423134E-3
237.414551E-3
237.720680E-3
237.650871E-3
238.220215E-3
238.356972E-3
238.713455E-3
239.271355E-3
239.507103E-3
240.094757E-3
240.134811E-3
240.030670E-3
240.003204E-3
239.734840E-3
239.742279E-3
239.513397E-3
239.256477E-3
239.032173E-3
238.822746E-3
238.782692E-3
238.723183E-3
238.528633E-3
238.589287E-3
238.541794E-3
238.740921E-3
238.813019E-3
238.735199E-3
238.830757E-3
238.620758E-3
238.665390E-3
238.476562E-3
238.296890E-3
238.276291E-3
238.109779E-3
238.296318E-3
238.313484E-3
238.175011E-3
238.307190E-3
238.209343E-3
238.466835E-3
238.451385E-3
238.397026E-3
238.450241E-3
238.252258E-3
238.385582E-3
238.235664E-3
237.989616E-3
238.019943E-3
237.999916E-3
237.962151E-3
237.892914E-3
237.771034E-3
237.863731E-3
237.684631E-3
237.993622E-3
237.801361E-3
237.685776E-3
237.747574E-3
237.546158E-3
237.779045E-3
237.688637E-3
237.576485E-3
237.698364E-3
237.571335E-3
237.776756E-3
237.658310E-3
237.648010E-3
237.736130E-3
237.710381E-3
237.737846E-3
237.786484E-3
237.751007E-3
237.733269E-3
237.654305E-3
237.788200E-3
237.634850E-3
237.595367E-3
237.729836E-3
237.561035E-3
237.680054E-3
237.569618E-3
237.500954E-3
237.565613E-3
237.511826E-3
237.637711E-3
237.562752E-3
237.425423E-3
237.492943E-3
237.524414E-3
237.490654E-3
237.497520E-3
237.389946E-3
237.491798E-3
237.374496E-3
237.396812E-3
237.450600E-3
237.252617E-3
237.517548E-3
237.381935E-3
237.499237E-3
237.668610E-3
237.666321E-3
238.136673E-3
238.400459E-3
238.960075E-3
239.271355E-3
239.552879E-3
239.814949E-3
239.884758E-3
239.971161E-3
239.941406E-3
239.575768E-3
239.521980E-3
239.133453E-3
239.001846E-3
238.895416E-3
238.636208E-3
238.675117E-3
238.513184E-3
238.525200E-3
238.626480E-3
238.591003E-3
238.663101E-3
238.590431E-3
238.751793E-3
238.696861E-3
238.609314E-3
238.528633E-3
238.433647E-3
238.403893E-3
238.247108E-3
238.151550E-3
238.276291E-3
238.267136E-3
238.344955E-3
238.435936E-3
238.375854E-3
238.484573E-3
238.408470E-3
238.426208E-3
238.372421E-3
238.296890E-3
238.282013E-3
238.045692E-3
238.030243E-3
238.113785E-3
237.854576E-3
238.022232E-3
237.850571E-3
237.894058E-3
237.789345E-3
237.769318E-3
237.978745E-3
237.747002E-3
237.658882E-3
237.833405E-3
237.658882E-3
237.872887E-3
237.717819E-3
237.782478E-3
237.796211E-3
237.658310E-3
237.954712E-3
237.831116E-3
237.633133E-3
237.720680E-3
237.782478E-3
237.967873E-3
237.748718E-3
237.671471E-3
237.716103E-3
237.384224E-3
237.732124E-3
237.527275E-3
237.602234E-3
237.700653E-3
237.620544E-3
237.801933E-3
237.560463E-3
237.549591E-3
237.574768E-3
237.365913E-3
237.594223E-3
237.478065E-3
237.541008E-3
237.526131E-3
237.406540E-3
237.673759E-3
237.397385E-3
237.396812E-3
237.427711E-3
237.082672E-3
237.330437E-3
237.117577E-3
237.211418E-3
237.267494E-3
237.175941E-3
237.300682E-3
237.169647E-3
237.203979E-3
237.408829E-3
237.516403E-3
238.027382E-3
238.232803E-3
238.799286E-3
239.282227E-3
239.511681E-3
239.739990E-3
239.664459E-3
239.582062E-3
239.519691E-3
239.266205E-3
239.072800E-3
238.664246E-3
238.463974E-3
238.422203E-3
238.074303E-3
238.257408E-3
237.923241E-3
237.954140E-3
238.064003E-3
238.010216E-3
238.240814E-3
238.100624E-3
237.928963E-3
237.969017E-3
237.823105E-3
237.871742E-3
237.701225E-3
237.569046E-3
237.566757E-3
237.598228E-3
237.771606E-3
237.670898E-3
237.630844E-3
237.680054E-3
237.595367E-3
237.773895E-3
237.603378E-3
237.563896E-3
237.444305E-3
237.055206E-3
237.341309E-3
237.217140E-3
237.027168E-3
236.968231E-3
236.948204E-3
237.062645E-3
236.801147E-3
236.848640E-3
236.818314E-3
236.636925E-3
236.801720E-3
236.758232E-3
236.701012E-3
236.798859E-3
236.669540E-3
236.818886E-3
236.761093E-3
236.687851E-3
236.741638E-3
236.619759E-3
236.742210E-3
236.624908E-3
236.567688E-3
236.632347E-3
236.592865E-3
236.693001E-3
236.721039E-3
236.579704E-3
236.658669E-3
236.586571E-3
236.698723E-3
236.697578E-3
236.541367E-3
236.568260E-3
236.482430E-3
236.599159E-3
236.521339E-3
236.539650E-3
236.549950E-3
236.483002E-3
236.632919E-3
236.461258E-3
236.309052E-3
236.525917E-3
236.378288E-3
236.491585E-3
236.353111E-3
236.309624E-3
236.280441E-3
236.151695E-3
236.309052E-3
236.446381E-3
236.391449E-3
236.527634E-3
236.870956E-3
237.302971E-3
237.619400E-3
237.955856E-3
238.298607E-3
238.552094E-3
238.822174E-3
238.882828E-3
238.867378E-3
238.683701E-3
238.351250E-3
238.343239E-3
238.067436E-3
237.638283E-3
237.650299E-3
237.408257E-3
237.507248E-3
237.393951E-3
237.258911E-3
237.354469E-3
237.229729E-3
237.420845E-3
237.492943E-3
237.318993E-3
237.392807E-3
237.288094E-3
237.309837E-3
237.297821E-3
237.155342E-3
237.158775E-3
236.914444E-3
237.094116E-3
237.042618E-3
236.958504E-3
237.122726E-3
237.083817E-3
237.309265E-3
237.282372E-3
237.066650E-3
237.097549E-3
236.960220E-3
236.997414E-3
236.981392E-3
236.757088E-3
236.772537E-3
236.686134E-3
236.742210E-3
236.594009E-3
236.485291E-3
236.466408E-3
236.350250E-3
236.499023E-3
236.457253E-3
236.316490E-3
236.535645E-3
236.466408E-3
236.563683E-3
236.563110E-3
236.467552E-3
236.309624E-3
236.277008E-3
236.402321E-3
236.446381E-3
236.433220E-3
236.418343E-3
236.311913E-3
236.428070E-3
236.499023E-3
236.385155E-3
236.492729E-3
236.234093E-3
236.431503E-3
236.301041E-3
236.362267E-3
236.369705E-3
236.301613E-3
236.421204E-3
236.414909E-3
236.343384E-3
236.397171E-3
236.381721E-3
236.401749E-3
236.371994E-3
236.194038E-3
236.343384E-3
236.210632E-3
236.279869E-3
236.278152E-3
236.168289E-3
236.298180E-3
236.071014E-3
236.112785E-3
236.000633E-3
236.053848E-3
236.218071E-3
236.213493E-3
236.499023E-3
236.708450E-3
236.988831E-3
237.511253E-3
237.770462E-3
238.200188E-3
238.393593E-3
238.494301E-3
238.595009E-3
238.461113E-3
238.386726E-3
238.227654E-3
237.957001E-3
237.728691E-3
237.460327E-3
237.520409E-3
237.339020E-3
237.242317E-3
237.371635E-3
237.337303E-3
237.327576E-3
237.360191E-3
237.386513E-3
237.414551E-3
237.356758E-3
237.447739E-3
237.351036E-3
237.064362E-3
237.233734E-3
236.900139E-3
236.965370E-3
236.975670E-3
236.920738E-3
237.203979E-3
236.964798E-3
237.138176E-3
237.279510E-3
236.837196E-3
237.198257E-3
237.063217E-3
237.032890E-3
236.878395E-3
236.758232E-3
236.886978E-3
236.712456E-3
236.651802E-3
236.878967E-3
236.358833E-3
236.656380E-3
236.566544E-3
236.432648E-3
236.436653E-3
236.411476E-3
236.585999E-3
236.559677E-3
236.559105E-3
236.692429E-3
236.301613E-3
236.501312E-3
236.409187E-3
236.345673E-3
236.496162E-3
236.457253E-3
236.524200E-3
236.432076E-3
236.401176E-3
236.528778E-3
236.410904E-3
236.501884E-3
236.323929E-3
236.397171E-3
236.549950E-3
236.098480E-3
236.511040E-3
236.282730E-3
236.224365E-3
236.271286E-3
236.234665E-3
236.400032E-3
236.161423E-3
236.199760E-3
236.319351E-3
236.211777E-3
236.172295E-3
236.203194E-3
236.192322E-3
236.161423E-3
235.927391E-3
236.108208E-3
236.041260E-3
236.068726E-3
236.053848E-3
235.958290E-3
236.127663E-3
235.995483E-3
236.076164E-3
236.244965E-3
236.466408E-3
236.882401E-3
237.199402E-3
237.605667E-3
237.994766E-3
237.877464E-3
238.268280E-3
238.188171E-3
238.218498E-3
238.159561E-3
237.853432E-3
237.649727E-3
237.266922E-3
236.986542E-3
236.837769E-3
236.715889E-3
236.653519E-3
236.540794E-3
236.499596E-3
236.610603E-3
236.615181E-3
236.807442E-3
236.637497E-3
236.567688E-3
236.531639E-3
