Notes :


2023-11-04 ¿ÀÈÄ 7:42:35
Volts
Ch : LED 2,
948.203087E-3
947.514153E-3
947.406578E-3
947.426033E-3
946.681595E-3
945.322609E-3
944.794464E-3
945.106316E-3
945.223045E-3
944.887733E-3
944.389343E-3
945.161247E-3
947.055817E-3
949.841309E-3
953.194427E-3
957.481956E-3
963.100433E-3
969.309425E-3
974.763107E-3
978.916740E-3
981.449318E-3
983.405113E-3
984.338379E-3
983.740425E-3
981.972313E-3
979.684067E-3
978.147697E-3
976.873970E-3
975.261497E-3
973.758316E-3
972.661400E-3
972.354126E-3
972.322655E-3
972.162437E-3
972.082901E-3
971.813965E-3
971.688652E-3
971.254349E-3
970.042992E-3
968.557549E-3
966.994286E-3
966.147995E-3
965.400124E-3
964.941788E-3
964.833641E-3
964.980698E-3
965.625000E-3
966.425514E-3
967.007446E-3
967.693520E-3
967.972755E-3
968.329239E-3
968.285751E-3
967.835999E-3
967.262077E-3
966.316223E-3
965.503693E-3
964.504623E-3
963.463783E-3
962.570572E-3
961.540604E-3
960.689163E-3
959.782791E-3
958.997154E-3
958.274460E-3
957.357216E-3
956.607056E-3
955.958748E-3
955.407143E-3
955.077553E-3
954.446411E-3
954.112244E-3
953.922272E-3
953.449631E-3
953.308296E-3
952.924919E-3
952.828217E-3
952.779579E-3
952.686882E-3
952.723503E-3
952.582169E-3
952.579880E-3
952.388191E-3
952.290344E-3
952.204514E-3
951.853180E-3
951.740456E-3
951.674652E-3
951.503563E-3
951.527596E-3
951.338768E-3
951.262093E-3
951.034355E-3
950.770569E-3
950.465584E-3
950.024414E-3
949.636459E-3
949.242783E-3
948.754692E-3
948.513794E-3
948.025703E-3
947.656631E-3
947.159386E-3
946.753120E-3
946.655846E-3
946.450996E-3
946.527100E-3
946.698189E-3
947.297859E-3
949.338913E-3
952.316093E-3
956.377602E-3
960.915184E-3
965.482521E-3
970.103645E-3
973.721123E-3
976.514626E-3
977.610970E-3
977.461052E-3
976.484299E-3
974.607468E-3
972.604752E-3
970.416069E-3
968.362999E-3
966.776276E-3
965.324593E-3
964.507484E-3
964.033127E-3
963.741302E-3
963.902664E-3
963.980484E-3
964.120674E-3
963.971901E-3
963.392258E-3
962.610054E-3
961.417580E-3
960.524368E-3
959.856606E-3
959.562492E-3
959.648323E-3
959.970474E-3
960.817337E-3
961.721420E-3
962.650108E-3
963.518715E-3
964.055443E-3
964.457703E-3
964.382172E-3
963.917542E-3
963.493538E-3
962.519073E-3
961.822701E-3
960.922623E-3
959.973335E-3
959.390259E-3
958.480453E-3
957.948303E-3
957.313728E-3
956.722641E-3
956.336975E-3
955.821991E-3
955.536461E-3
955.423737E-3
955.119324E-3
955.222321E-3
954.803467E-3
954.745674E-3
954.808044E-3
954.703903E-3
954.793167E-3
954.768562E-3
954.777718E-3
954.817200E-3
954.808044E-3
955.058098E-3
955.002022E-3
955.195999E-3
955.289268E-3
955.241203E-3
955.388832E-3
955.280113E-3
955.198288E-3
955.173111E-3
955.052376E-3
955.184555E-3
954.923630E-3
954.809761E-3
954.483604E-3
954.064751E-3
953.803825E-3
953.433609E-3
953.078270E-3
952.761269E-3
952.408791E-3
952.286911E-3
951.997948E-3
951.870346E-3
951.688385E-3
951.579666E-3
951.852036E-3
952.173042E-3
953.404427E-3
955.573654E-3
958.842087E-3
963.506699E-3
968.353271E-3
973.453903E-3
978.269005E-3
982.207489E-3
985.059357E-3
986.290169E-3
986.322784E-3
985.438728E-3
983.724403E-3
982.111931E-3
980.090904E-3
978.373146E-3
976.941490E-3
975.909233E-3
975.421143E-3
974.873543E-3
975.003433E-3
975.155067E-3
975.195694E-3
975.438309E-3
975.341606E-3
974.851799E-3
973.844719E-3
972.618484E-3
971.755028E-3
970.999718E-3
970.642090E-3
970.692444E-3
971.074104E-3
971.936989E-3
972.797012E-3
973.701096E-3
974.407196E-3
974.859810E-3
975.282097E-3
975.208855E-3
974.918175E-3
974.288177E-3
973.386383E-3
972.773552E-3
971.858597E-3
971.008301E-3
970.273018E-3
969.404984E-3
968.837357E-3
968.114662E-3
967.696953E-3
967.294693E-3
966.778564E-3
966.639519E-3
966.177177E-3
966.155434E-3
965.998650E-3
965.753746E-3
965.666199E-3
965.530586E-3
965.503120E-3
965.618706E-3
965.468788E-3
965.594101E-3
965.591812E-3
965.580940E-3
965.594673E-3
965.706825E-3
965.727997E-3
965.796089E-3
965.896797E-3
965.909958E-3
965.750885E-3
965.998077E-3
965.844727E-3
965.786362E-3
965.799522E-3
965.561485E-3
965.651321E-3
965.405846E-3
965.307999E-3
965.055084E-3
964.606476E-3
964.497757E-3
964.092064E-3
963.731003E-3
963.345337E-3
962.925911E-3
962.645531E-3
962.267303E-3
962.004662E-3
961.855888E-3
961.822128E-3
962.109947E-3
962.471008E-3
963.720131E-3
966.226959E-3
969.959450E-3
975.119019E-3
980.441666E-3
985.693932E-3
990.234947E-3
993.710518E-3
995.971870E-3
996.698570E-3
996.323776E-3
994.995689E-3
993.094254E-3
991.276932E-3
989.279938E-3
987.698364E-3
986.434937E-3
985.309982E-3
984.775543E-3
984.468269E-3
984.579277E-3
984.732056E-3
985.042191E-3
985.407829E-3
985.418129E-3
985.072517E-3
984.285164E-3
982.979393E-3
981.980896E-3
981.127739E-3
980.568695E-3
980.373573E-3
980.469704E-3
980.945778E-3
981.386948E-3
982.101059E-3
982.840919E-3
983.240891E-3
983.660889E-3
983.625412E-3
983.184242E-3
982.695580E-3
981.837273E-3
981.028175E-3
980.093193E-3
979.091263E-3
978.239822E-3
977.196693E-3
976.510620E-3
975.665474E-3
975.102425E-3
974.628639E-3
974.036980E-3
973.841286E-3
973.405266E-3
973.154068E-3
972.959518E-3
972.641945E-3
972.541237E-3
972.240257E-3
972.007370E-3
971.977043E-3
971.515846E-3
971.569633E-3
971.260071E-3
971.098709E-3
971.044350E-3
970.768547E-3
970.680428E-3
970.438385E-3
970.317078E-3
970.235252E-3
969.970322E-3
969.752884E-3
969.485092E-3
969.281387E-3
968.949509E-3
968.558121E-3
968.306351E-3
967.988205E-3
967.779922E-3
967.496681E-3
967.135620E-3
966.858101E-3
966.308784E-3
965.940285E-3
965.556908E-3
965.028763E-3
964.617920E-3
964.292336E-3
963.977051E-3
963.748741E-3
963.286400E-3
963.105011E-3
962.854385E-3
962.821198E-3
963.007164E-3
963.352203E-3
965.095139E-3
967.840576E-3
971.789932E-3
976.347542E-3
981.158638E-3
986.024094E-3
989.942551E-3
992.667389E-3
994.244385E-3
994.231224E-3
993.268776E-3
991.516113E-3
989.463615E-3
987.484360E-3
985.464478E-3
983.844566E-3
982.687569E-3
981.834412E-3
981.515121E-3
981.401825E-3
981.797218E-3
982.004356E-3
982.294464E-3
982.413483E-3
982.241821E-3
981.776047E-3
980.431938E-3
979.180527E-3
978.149986E-3
977.229881E-3
976.922607E-3
976.734924E-3
976.943207E-3
977.610397E-3
978.195190E-3
978.984833E-3
979.500961E-3
979.684639E-3
979.850578E-3
979.384804E-3
978.957939E-3
978.034401E-3
977.034760E-3
976.153564E-3
975.129890E-3
974.337387E-3
973.453331E-3
972.609329E-3
971.912956E-3
971.094131E-3
970.432091E-3
969.806099E-3
969.410133E-3
968.992424E-3
968.384171E-3
968.253136E-3
967.793083E-3
967.695808E-3
967.514420E-3
967.141342E-3
967.254639E-3
967.095566E-3
967.025757E-3
966.926193E-3
966.716766E-3
966.863251E-3
966.672134E-3
966.702461E-3
966.638947E-3
966.535950E-3
966.583443E-3
966.463280E-3
966.420364E-3
966.280174E-3
966.073036E-3
966.072464E-3
965.959740E-3
965.920258E-3
965.703392E-3
965.392113E-3
965.468216E-3
965.286827E-3
965.070534E-3
964.734650E-3
964.221954E-3
964.080620E-3
963.573647E-3
963.262367E-3
963.019753E-3
962.699318E-3
962.404060E-3
962.063026E-3
961.887932E-3
961.954308E-3
961.945724E-3
962.045288E-3
962.403488E-3
963.366508E-3
965.568352E-3
968.686867E-3
972.900581E-3
977.664185E-3
982.414627E-3
986.971664E-3
990.430069E-3
992.865944E-3
993.735695E-3
993.343163E-3
992.176437E-3
990.262985E-3
988.417053E-3
986.282158E-3
984.532928E-3
983.199120E-3
981.945992E-3
981.340599E-3
980.958366E-3
980.871391E-3
981.063652E-3
980.907440E-3
981.045914E-3
980.847359E-3
980.231094E-3
979.320145E-3
978.224945E-3
977.515984E-3
977.070236E-3
977.099991E-3
977.549744E-3
978.238106E-3
979.370499E-3
980.379295E-3
981.443024E-3
982.352257E-3
982.681274E-3
982.899284E-3
982.810593E-3
982.287598E-3
981.620979E-3
980.597878E-3
979.885483E-3
979.066086E-3
978.413200E-3
977.736282E-3
976.899719E-3
976.520920E-3
975.927544E-3
975.627708E-3
975.338745E-3
975.009727E-3
974.823761E-3
974.581146E-3
974.458122E-3
974.437523E-3
974.238396E-3
974.213791E-3
974.141121E-3
974.104500E-3
974.064445E-3
973.929977E-3
974.091339E-3
974.122810E-3
973.868752E-3
973.933983E-3
973.753738E-3
973.847580E-3
973.801804E-3
973.662758E-3
973.484802E-3
973.305130E-3
973.187828E-3
972.977829E-3
972.880554E-3
972.743225E-3
972.364998E-3
972.463417E-3
972.255135E-3
972.045708E-3
971.843719E-3
971.362495E-3
971.229744E-3
970.826912E-3
970.479584E-3
970.091057E-3
969.600677E-3
969.411278E-3
968.970108E-3
968.701172E-3
968.558121E-3
968.403625E-3
968.528366E-3
968.761826E-3
969.561195E-3
971.161652E-3
973.830414E-3
978.222084E-3
983.251762E-3
988.282013E-3
993.201828E-3
997.168922E-3
1.000204E+0
1.001781E+0
1.002184E+0
1.001589E+0
1.000173E+0
998.519325E-3
996.759224E-3
994.934464E-3
993.366051E-3
991.932678E-3
991.245461E-3
990.725899E-3
990.481567E-3
990.727615E-3
990.849495E-3
991.364479E-3
991.559029E-3
991.433716E-3
991.282654E-3
990.277863E-3
988.947487E-3
987.628555E-3
986.664391E-3
986.062431E-3
985.668755E-3
985.893631E-3
986.457825E-3
986.980820E-3
987.715530E-3
988.290024E-3
988.912582E-3
989.067650E-3
989.039612E-3
988.772392E-3
987.987328E-3
987.337875E-3
986.358833E-3
985.271072E-3
984.435654E-3
983.394814E-3
982.497597E-3
981.811523E-3
980.978966E-3
980.171013E-3
979.530144E-3
979.059792E-3
978.660393E-3
978.269005E-3
977.977753E-3
977.636147E-3
977.337456E-3
977.049065E-3
976.909447E-3
976.798439E-3
976.561546E-3
976.687431E-3
976.554680E-3
976.401901E-3
976.372719E-3
976.119232E-3
976.170731E-3
976.103783E-3
975.973320E-3
976.027679E-3
975.885201E-3
975.848579E-3
975.809669E-3
975.410271E-3
975.349617E-3
975.125313E-3
974.996567E-3
974.769402E-3
974.472427E-3
974.254990E-3
973.722839E-3
973.496246E-3
973.064232E-3
972.664261E-3
972.296906E-3
971.632004E-3
971.233749E-3
970.840073E-3
970.314217E-3
970.042419E-3
969.561195E-3
969.548607E-3
969.411278E-3
969.472504E-3
969.869041E-3
970.829773E-3
973.069382E-3
976.450539E-3
980.465698E-3
985.496521E-3
990.232658E-3
994.586563E-3
997.745705E-3
999.437141E-3
999.915504E-3
999.084091E-3
997.683907E-3
995.771027E-3
993.610954E-3
991.777039E-3
990.023232E-3
988.837051E-3
988.027954E-3
987.401390E-3
987.352753E-3
987.384224E-3
987.561607E-3
987.741852E-3
987.700081E-3
987.678337E-3
986.995125E-3
986.010933E-3
984.583282E-3
983.233452E-3
982.119370E-3
981.481361E-3
981.382370E-3
981.443024E-3
981.842995E-3
982.628632E-3
983.242607E-3
983.827400E-3
984.039116E-3
984.124374E-3
983.951569E-3
983.363342E-3
982.735634E-3
981.826973E-3
980.875969E-3
980.082893E-3
979.132462E-3
978.269577E-3
977.458191E-3
976.647949E-3
976.088333E-3
975.435448E-3
974.999428E-3
974.456406E-3
974.066734E-3
973.789787E-3
973.308563E-3
973.108864E-3
972.842789E-3
972.528076E-3
972.479439E-3
972.254562E-3
972.130966E-3
972.086334E-3
971.993637E-3
972.042274E-3
972.010803E-3
971.987343E-3
971.939850E-3
971.611977E-3
971.832848E-3
971.677780E-3
971.658897E-3
971.754456E-3
971.602821E-3
971.896935E-3
971.825981E-3
972.063446E-3
971.866608E-3
971.515274E-3
971.305275E-3
970.951653E-3
970.854950E-3
970.437813E-3
969.784355E-3
969.581223E-3
969.072533E-3
968.958092E-3
968.479729E-3
968.175316E-3
968.221092E-3
968.084335E-3
968.107224E-3
968.182182E-3
968.586159E-3
970.038986E-3
972.249413E-3
975.374794E-3
979.509544E-3
983.932686E-3
988.717461E-3
992.540359E-3
995.748711E-3
997.546577E-3
998.022652E-3
997.726822E-3
996.280289E-3
994.735336E-3
992.893982E-3
990.917587E-3
989.564323E-3
988.181877E-3
987.460899E-3
987.094116E-3
986.885834E-3
986.985970E-3
987.055779E-3
987.109566E-3
987.047195E-3
986.551094E-3
985.725975E-3
984.467125E-3
983.384514E-3
982.636070E-3
982.157135E-3
982.241249E-3
982.513618E-3
983.373070E-3
984.458542E-3
985.388947E-3
986.358833E-3
986.899567E-3
987.137032E-3
987.130165E-3
986.869240E-3
986.266708E-3
985.352898E-3
984.656525E-3
983.797646E-3
983.013725E-3
982.411194E-3
981.613541E-3
981.122589E-3
980.507469E-3
980.066872E-3
979.851151E-3
979.409981E-3
979.234314E-3
978.920746E-3
978.690720E-3
978.671837E-3
978.472137E-3
978.639793E-3
978.599739E-3
978.462982E-3
978.621483E-3
978.549957E-3
978.735352E-3
978.838348E-3
978.849220E-3
979.115868E-3
978.948784E-3
979.104424E-3
979.003716E-3
978.877258E-3
978.980827E-3
978.856087E-3
978.873825E-3
978.996849E-3
978.845215E-3
978.883553E-3
978.601456E-3
978.370285E-3
978.069305E-3
977.685928E-3
977.594376E-3
977.090263E-3
976.664543E-3
976.111221E-3
975.690079E-3
975.498390E-3
975.240326E-3
974.980545E-3
974.855232E-3
974.872971E-3
975.265503E-3
975.496101E-3
976.306915E-3
978.045845E-3
980.884552E-3
985.003853E-3
989.512253E-3
994.196320E-3
998.670387E-3
1.002326E+0
1.005215E+0
1.006630E+0
1.007007E+0
1.006456E+0
1.005241E+0
1.003954E+0
1.002355E+0
1.001064E+0
999.868011E-3
998.904419E-3
998.424911E-3
998.212051E-3
998.278427E-3
998.696136E-3
998.969650E-3
999.457169E-3
999.548721E-3
999.397659E-3
998.836899E-3
997.721672E-3
996.576118E-3
995.298386E-3
994.413185E-3
993.941116E-3
993.716812E-3
994.111061E-3
994.626045E-3
995.246887E-3
995.935822E-3
996.344948E-3
996.786118E-3
996.803856E-3
996.800423E-3
996.414185E-3
995.641708E-3
995.124435E-3
994.342232E-3
993.422127E-3
992.802429E-3
991.925812E-3
991.481781E-3
990.764236E-3
990.168571E-3
989.623260E-3
989.143753E-3
988.871956E-3
988.498306E-3
988.306046E-3
988.125229E-3
987.896347E-3
987.982750E-3
987.660599E-3
987.610245E-3
987.482071E-3
987.166214E-3
987.202835E-3
987.065506E-3
986.943626E-3
986.959648E-3
986.915588E-3
986.999702E-3
986.698151E-3
986.592293E-3
986.481285E-3
986.099625E-3
985.997200E-3
985.705376E-3
985.651016E-3
985.418701E-3
985.112000E-3
984.996986E-3
984.536362E-3
983.991623E-3
983.481216E-3
982.927322E-3
982.435799E-3
981.580925E-3
980.973816E-3
980.475998E-3
979.920959E-3
979.538727E-3
979.052925E-3
978.599167E-3
978.417778E-3
978.443527E-3
978.544235E-3
978.913879E-3
980.352402E-3
983.225441E-3
986.990547E-3
991.483498E-3
995.905495E-3
1.000035E+0
1.003617E+0
1.005854E+0
1.007153E+0
1.007003E+0
1.006110E+0
1.004703E+0
1.002905E+0
1.001324E+0
999.724388E-3
998.439217E-3
997.705078E-3
996.980667E-3
996.984673E-3
996.930313E-3
997.239876E-3
997.748566E-3
997.711372E-3
997.757721E-3
997.055054E-3
996.203613E-3
994.679832E-3
993.033600E-3
991.772461E-3
990.803719E-3
990.383148E-3
990.411186E-3
990.653229E-3
991.413116E-3
992.103767E-3
992.655373E-3
993.217278E-3
993.229866E-3
992.978668E-3
992.186737E-3
991.383934E-3
990.410042E-3
989.330864E-3
988.450813E-3
987.500381E-3
986.627197E-3
985.874748E-3
985.018730E-3
984.414482E-3
983.698082E-3
983.215141E-3
982.807732E-3
982.232666E-3
981.978035E-3
981.642151E-3
981.575203E-3
981.342888E-3
981.200409E-3
981.285095E-3
981.156921E-3
