Notes :


2023-11-13 ¿ÀÀü 12:37:30
Volts
Ch : LED 2,
929.144096E-3
928.884315E-3
928.673172E-3
928.626823E-3
928.611374E-3
928.697777E-3
929.507446E-3
929.472542E-3
929.601860E-3
929.739761E-3
929.911423E-3
930.027008E-3
929.990959E-3
929.956627E-3
929.876518E-3
929.271698E-3
929.241943E-3
928.931236E-3
928.870010E-3
928.620529E-3
928.319550E-3
928.088379E-3
927.783394E-3
927.706718E-3
926.950836E-3
927.021217E-3
927.033806E-3
926.805496E-3
926.845551E-3
926.748276E-3
926.532555E-3
926.546860E-3
926.363182E-3
925.884247E-3
925.931168E-3
926.024437E-3
926.011276E-3
925.779533E-3
925.876236E-3
925.893402E-3
925.664520E-3
925.683975E-3
925.722313E-3
925.730896E-3
925.479126E-3
925.159264E-3
925.138092E-3
924.860001E-3
924.761009E-3
924.652290E-3
924.454308E-3
923.990250E-3
924.298668E-3
924.723816E-3
925.373840E-3
926.307106E-3
927.769661E-3
929.398155E-3
931.360817E-3
932.872009E-3
934.107971E-3
935.064697E-3
935.402298E-3
935.775948E-3
935.580826E-3
935.382843E-3
935.149956E-3
934.354019E-3
933.810425E-3
933.393860E-3
932.856560E-3
932.466316E-3
931.965637E-3
931.772232E-3
931.632042E-3
931.297302E-3
930.658722E-3
930.864143E-3
930.861282E-3
930.615807E-3
930.190659E-3
929.893112E-3
929.686546E-3
929.441071E-3
929.379845E-3
929.251671E-3
929.647064E-3
929.784393E-3
930.147171E-3
930.441284E-3
930.571747E-3
930.967712E-3
930.817795E-3
930.907631E-3
930.768585E-3
930.586052E-3
930.579185E-3
930.222702E-3
930.155754E-3
929.917145E-3
929.535484E-3
929.306030E-3
929.017639E-3
928.844261E-3
928.584480E-3
928.204536E-3
928.309822E-3
928.148460E-3
927.844620E-3
927.697563E-3
927.534485E-3
927.541351E-3
927.066422E-3
927.100182E-3
927.243805E-3
927.090454E-3
927.089310E-3
926.988029E-3
927.033806E-3
927.060127E-3
926.994896E-3
927.119637E-3
927.006340E-3
927.273560E-3
927.140236E-3
927.147102E-3
927.212906E-3
926.955414E-3
926.926804E-3
926.870155E-3
926.274490E-3
926.694489E-3
926.525116E-3
926.427269E-3
926.224136E-3
926.051331E-3
926.018715E-3
926.006699E-3
926.382065E-3
927.696991E-3
928.650284E-3
930.459023E-3
932.156754E-3
934.189224E-3
935.682106E-3
936.799622E-3
937.867355E-3
938.039017E-3
938.202095E-3
937.913704E-3
937.693977E-3
937.281418E-3
936.886597E-3
936.426544E-3
935.840607E-3
935.793686E-3
935.235214E-3
934.749985E-3
934.632111E-3
934.392929E-3
934.240723E-3
934.427261E-3
934.181786E-3
934.205246E-3
933.500862E-3
933.607292E-3
933.386993E-3
932.833672E-3
932.608795E-3
932.499504E-3
932.321548E-3
932.464600E-3
932.417107E-3
932.199669E-3
932.479477E-3
932.770729E-3
932.989311E-3
933.068848E-3
933.174133E-3
932.958984E-3
932.823944E-3
932.739258E-3
932.290077E-3
932.243156E-3
932.065773E-3
931.766510E-3
931.552505E-3
931.367683E-3
930.996323E-3
930.773163E-3
930.554581E-3
930.233002E-3
929.898262E-3
929.680252E-3
929.510307E-3
929.250526E-3
929.268265E-3
928.733253E-3
928.652000E-3
928.706932E-3
928.455734E-3
928.427696E-3
928.234863E-3
928.440857E-3
928.324699E-3
928.214836E-3
928.347588E-3
928.459167E-3
928.481483E-3
928.601646E-3
928.487778E-3
928.601074E-3
928.359032E-3
928.319550E-3
928.333855E-3
928.159332E-3
928.222847E-3
928.104973E-3
927.735901E-3
927.615738E-3
927.449799E-3
927.458954E-3
927.466393E-3
927.388573E-3
927.531052E-3
927.989960E-3
928.911781E-3
930.082512E-3
931.708145E-3
933.585548E-3
935.265541E-3
936.830521E-3
937.855339E-3
938.613510E-3
939.181709E-3
938.986015E-3
938.869286E-3
938.422966E-3
938.137436E-3
937.923431E-3
937.275696E-3
936.963272E-3
936.378479E-3
935.505867E-3
935.683250E-3
935.489845E-3
935.537910E-3
935.410309E-3
935.362816E-3
935.347939E-3
935.121918E-3
934.994888E-3
934.376907E-3
934.153175E-3
933.912849E-3
933.715439E-3
933.570671E-3
933.562088E-3
933.583832E-3
933.810425E-3
933.746338E-3
933.516884E-3
934.019852E-3
934.104538E-3
934.137154E-3
934.197807E-3
934.078217E-3
933.977509E-3
933.787537E-3
933.605576E-3
933.392715E-3
933.304024E-3
933.031654E-3
932.826233E-3
932.721519E-3
932.408524E-3
932.264900E-3
932.028580E-3
932.009697E-3
932.264900E-3
931.752205E-3
931.667519E-3
931.444359E-3
931.339073E-3
931.419182E-3
931.143379E-3
931.208038E-3
930.909348E-3
930.846405E-3
930.846977E-3
930.738258E-3
930.867577E-3
930.730820E-3
930.682755E-3
930.889893E-3
930.959702E-3
930.844116E-3
930.840683E-3
930.867577E-3
930.788612E-3
930.668449E-3
930.673599E-3
930.551147E-3
930.392647E-3
930.228424E-3
930.115700E-3
930.120277E-3
929.985237E-3
929.868507E-3
929.845047E-3
929.671097E-3
929.537201E-3
929.490852E-3
929.490852E-3
930.059052E-3
930.794334E-3
932.100105E-3
933.552361E-3
935.107613E-3
936.677170E-3
937.652779E-3
938.634109E-3
938.994598E-3
939.202309E-3
938.984871E-3
938.753700E-3
938.433838E-3
938.061905E-3
937.695122E-3
937.208176E-3
936.640549E-3
936.855125E-3
936.175919E-3
935.842896E-3
935.611725E-3
935.418892E-3
935.365105E-3
935.277557E-3
935.037804E-3
934.842110E-3
934.649849E-3
934.274483E-3
933.915710E-3
933.795547E-3
933.824730E-3
933.596420E-3
933.952332E-3
933.973503E-3
934.192657E-3
934.542847E-3
934.534264E-3
934.746552E-3
934.764290E-3
934.746552E-3
934.644699E-3
934.389496E-3
934.340286E-3
934.170341E-3
933.607864E-3
933.587265E-3
933.348656E-3
933.199883E-3
932.813644E-3
932.640266E-3
932.637405E-3
932.215691E-3
932.332993E-3
932.005692E-3
931.756783E-3
931.803703E-3
931.527328E-3
931.594276E-3
931.475258E-3
931.284142E-3
930.868149E-3
931.016350E-3
931.024933E-3
930.892181E-3
930.974007E-3
930.984306E-3
930.881882E-3
930.854988E-3
930.655861E-3
930.810356E-3
930.757713E-3
930.630112E-3
930.634689E-3
930.468178E-3
930.559158E-3
930.554581E-3
930.324554E-3
930.333710E-3
929.860497E-3
930.096817E-3
929.952621E-3
929.790115E-3
929.608154E-3
929.475975E-3
929.302597E-3
929.253960E-3
929.008484E-3
929.271698E-3
929.124069E-3
929.505157E-3
930.311394E-3
931.216049E-3
932.763863E-3
934.355736E-3
935.826874E-3
937.029648E-3
937.881088E-3
938.421822E-3
938.370895E-3
938.338280E-3
938.354874E-3
937.981796E-3
937.694550E-3
937.255096E-3
936.792183E-3
936.465454E-3
936.076355E-3
935.908127E-3
935.746765E-3
935.611725E-3
935.492706E-3
935.373116E-3
935.437202E-3
935.308456E-3
935.559082E-3
935.196304E-3
934.786034E-3
934.521103E-3
934.173203E-3
934.070778E-3
933.917427E-3
933.691406E-3
933.789825E-3
933.960915E-3
934.221840E-3
934.307671E-3
934.182930E-3
934.368896E-3
934.315681E-3
934.375191E-3
934.257317E-3
934.086227E-3
934.169769E-3
933.868217E-3
933.623314E-3
933.427620E-3
933.214188E-3
933.040237E-3
932.860565E-3
932.706642E-3
932.645988E-3
932.294655E-3
932.256317E-3
932.141304E-3
931.888390E-3
931.737900E-3
931.530190E-3
931.489563E-3
931.636047E-3
931.300735E-3
931.355667E-3
931.131363E-3
931.125069E-3
931.013489E-3
930.907631E-3
930.932236E-3
930.850983E-3
931.107903E-3
930.764580E-3
930.767441E-3
930.685043E-3
930.534554E-3
930.651283E-3
930.572319E-3
930.612946E-3
930.719948E-3
930.532837E-3
930.488205E-3
930.520821E-3
930.285645E-3
930.283356E-3
930.043602E-3
930.125999E-3
929.952049E-3
929.931450E-3
929.711723E-3
929.525757E-3
929.483986E-3
929.453087E-3
929.251671E-3
929.156113E-3
928.899765E-3
929.116058E-3
929.199600E-3
929.781532E-3
930.622673E-3
931.583977E-3
933.234215E-3
934.637833E-3
936.126137E-3
937.219620E-3
937.906837E-3
938.565445E-3
938.768005E-3
938.607216E-3
938.459587E-3
938.070488E-3
937.707710E-3
937.391281E-3
936.934662E-3
936.494064E-3
936.061478E-3
935.798836E-3
935.735321E-3
935.578537E-3
935.481834E-3
935.266685E-3
935.426331E-3
935.383987E-3
935.109901E-3
934.965706E-3
934.647560E-3
934.410667E-3
934.297371E-3
934.028435E-3
934.042168E-3
933.821869E-3
934.063911E-3
934.209824E-3
934.284782E-3
934.367180E-3
934.339714E-3
934.538269E-3
934.583473E-3
934.581757E-3
934.497070E-3
934.194374E-3
934.018707E-3
933.930588E-3
933.743477E-3
933.548355E-3
933.246803E-3
933.108330E-3
932.868576E-3
932.606506E-3
932.523537E-3
932.067490E-3
932.220268E-3
931.967354E-3
931.722450E-3
931.579399E-3
931.326485E-3
931.339073E-3
931.165123E-3
931.036377E-3
930.989456E-3
930.853271E-3
930.654716E-3
930.725098E-3
930.479050E-3
930.598068E-3
930.419540E-3
930.435562E-3
930.426979E-3
930.222130E-3
930.384064E-3
930.214691E-3
930.317116E-3
930.159187E-3
930.122566E-3
930.182648E-3
930.067635E-3
930.138016E-3
930.014420E-3
929.796410E-3
929.774666E-3
929.789543E-3
929.687119E-3
929.654503E-3
929.447937E-3
929.460526E-3
929.164696E-3
929.172707E-3
929.027367E-3
928.791046E-3
928.754425E-3
928.636551E-3
928.853416E-3
929.004478E-3
929.559517E-3
930.388069E-3
931.529045E-3
932.832527E-3
934.143448E-3
935.016632E-3
936.126709E-3
936.537552E-3
936.832237E-3
936.795044E-3
936.468887E-3
936.347008E-3
935.895538E-3
935.496140E-3
935.120773E-3
934.714508E-3
934.490776E-3
934.121704E-3
933.658218E-3
933.570671E-3
933.510017E-3
933.535767E-3
933.446503E-3
933.252525E-3
933.236504E-3
933.061981E-3
932.937813E-3
932.421112E-3
932.512093E-3
932.320976E-3
932.390785E-3
932.568169E-3
932.645416E-3
932.702637E-3
932.989883E-3
933.005905E-3
933.104324E-3
933.020210E-3
933.142662E-3
933.118057E-3
933.024216E-3
932.933807E-3
932.768440E-3
932.589912E-3
932.422829E-3
931.973648E-3
931.907272E-3
931.740761E-3
931.640625E-3
931.423759E-3
931.306458E-3
931.138229E-3
930.885887E-3
930.902481E-3
930.639267E-3
930.696487E-3
930.629539E-3
930.401802E-3
930.440712E-3
930.167770E-3
930.051041E-3
930.097389E-3
929.990959E-3
930.025291E-3
930.070496E-3
929.933167E-3
929.891396E-3
929.734039E-3
929.907990E-3
929.818153E-3
929.767227E-3
929.722023E-3
929.507446E-3
929.636192E-3
929.665375E-3
929.704857E-3
929.687119E-3
929.466820E-3
929.594994E-3
929.419899E-3
929.172134E-3
929.240227E-3
929.000473E-3
928.892899E-3
928.928947E-3
928.757858E-3
928.650856E-3
928.501511E-3
928.538132E-3
928.495789E-3
928.669167E-3
929.153252E-3
929.859352E-3
931.062698E-3
932.286072E-3
933.400726E-3
934.707069E-3
935.021210E-3
935.832024E-3
936.058044E-3
936.061478E-3
936.117554E-3
935.779381E-3
935.598564E-3
935.332489E-3
934.925652E-3
934.374619E-3
934.284782E-3
934.065056E-3
933.844185E-3
933.716011E-3
933.821869E-3
933.562088E-3
933.603859E-3
933.510590E-3
933.483696E-3
933.414459E-3
933.132935E-3
933.029366E-3
932.698631E-3
932.482910E-3
932.411385E-3
932.268333E-3
932.405090E-3
932.488632E-3
932.529259E-3
932.585335E-3
932.671165E-3
932.759285E-3
932.888603E-3
932.791901E-3
932.925224E-3
932.684898E-3
932.945824E-3
932.510376E-3
932.274628E-3
932.203674E-3
931.984520E-3
931.855202E-3
931.681252E-3
931.400299E-3
931.501579E-3
931.098175E-3
931.031227E-3
930.993462E-3
930.911064E-3
930.796623E-3
930.731392E-3
930.582047E-3
930.500793E-3
930.337715E-3
930.505371E-3
930.273628E-3
930.231857E-3
930.147743E-3
930.075073E-3
930.121422E-3
930.092239E-3
930.163193E-3
930.015564E-3
929.890823E-3
929.920578E-3
929.882240E-3
929.824448E-3
929.756927E-3
929.633331E-3
929.797554E-3
929.675102E-3
929.718018E-3
929.561806E-3
929.565239E-3
929.501724E-3
929.359818E-3
929.463387E-3
929.295731E-3
929.145241E-3
929.201889E-3
928.914642E-3
928.859711E-3
928.807640E-3
928.583336E-3
928.621674E-3
928.413391E-3
928.384209E-3
928.423119E-3
928.421402E-3
928.544998E-3
928.877449E-3
929.487419E-3
930.511093E-3
931.577682E-3
932.987595E-3
933.948326E-3
934.747696E-3
935.660934E-3
935.663223E-3
935.977936E-3
935.798264E-3
935.634041E-3
935.313606E-3
935.016060E-3
934.810638E-3
934.357452E-3
934.485626E-3
933.995819E-3
933.566093E-3
933.664513E-3
933.444214E-3
933.515167E-3
933.374405E-3
933.441353E-3
933.592415E-3
933.358383E-3
933.216476E-3
932.981300E-3
932.776451E-3
932.790756E-3
932.557869E-3
932.506943E-3
932.611084E-3
932.518387E-3
932.714653E-3
932.727814E-3
932.843399E-3
933.011055E-3
932.978439E-3
933.019638E-3
932.962990E-3
932.890892E-3
932.723808E-3
932.635689E-3
932.548714E-3
932.340431E-3
932.219696E-3
932.007408E-3
931.918144E-3
931.797981E-3
931.739616E-3
931.501007E-3
931.345367E-3
931.235504E-3
931.208611E-3
931.019783E-3
931.032944E-3
930.988884E-3
930.810356E-3
930.813217E-3
930.630112E-3
930.525398E-3
930.674744E-3
930.438423E-3
930.393791E-3
930.495071E-3
930.459595E-3
930.327988E-3
930.215263E-3
930.239868E-3
930.218124E-3
930.297661E-3
930.185509E-3
930.135155E-3
930.131149E-3
930.079651E-3
930.041313E-3
930.187225E-3
929.873657E-3
929.917717E-3
929.774094E-3
929.931450E-3
929.763222E-3
929.688263E-3
929.647064E-3
929.509163E-3
929.411316E-3
929.310608E-3
929.101181E-3
929.218483E-3
928.971863E-3
929.009056E-3
928.896332E-3
928.767586E-3
928.736687E-3
928.684044E-3
928.837967E-3
929.024506E-3
929.500580E-3
930.344582E-3
931.347084E-3
932.422829E-3
933.550072E-3
934.438133E-3
935.285568E-3
935.654640E-3
935.883522E-3
935.759926E-3
935.482407E-3
935.444069E-3
935.032082E-3
934.763145E-3
934.371758E-3
933.982086E-3
933.806419E-3
933.436775E-3
933.373833E-3
933.264542E-3
933.032227E-3
933.207321E-3
932.883453E-3
932.864571E-3
933.040237E-3
932.581902E-3
932.428551E-3
932.167053E-3
931.964493E-3
931.933022E-3
932.013702E-3
932.058907E-3
932.044601E-3
932.457733E-3
932.552719E-3
932.438850E-3
932.586479E-3
932.603073E-3
932.522964E-3
932.596207E-3
932.424545E-3
932.321548E-3
932.068062E-3
931.893539E-3
931.772804E-3
931.606293E-3
931.486702E-3
931.209183E-3
931.213188E-3
931.228638E-3
930.907631E-3
930.754852E-3
930.576897E-3
930.546570E-3
930.437851E-3
930.307961E-3
930.294800E-3
930.097389E-3
930.305672E-3
930.128860E-3
929.932594E-3
930.009270E-3
929.884529E-3
929.851341E-3
929.795837E-3
929.677963E-3
929.846191E-3
929.508018E-3
929.624748E-3
929.545784E-3
929.496002E-3
929.680824E-3
929.508018E-3
929.556084E-3
929.473114E-3
929.332352E-3
929.673386E-3
929.443932E-3
929.335785E-3
929.386711E-3
929.140663E-3
929.153252E-3
928.950119E-3
928.806496E-3
928.725243E-3
928.679466E-3
928.646851E-3
928.344727E-3
928.417397E-3
928.245735E-3
928.294945E-3
928.536415E-3
929.062843E-3
929.730034E-3
930.751419E-3
931.652069E-3
932.730675E-3
933.659935E-3
934.367180E-3
934.877014E-3
935.047531E-3
935.160828E-3
934.922218E-3
934.941673E-3
934.652138E-3
934.144020E-3
934.076500E-3
933.577538E-3
933.456802E-3
933.249664E-3
933.083153E-3
933.015060E-3
932.876015E-3
932.765007E-3
932.876015E-3
932.655144E-3
932.824516E-3
932.490921E-3
932.430267E-3
932.463455E-3
932.133865E-3
931.915855E-3
931.805992E-3
931.839180E-3
931.879807E-3
931.786537E-3
932.018280E-3
931.987953E-3
932.326126E-3
932.203674E-3
932.204247E-3
932.438278E-3
932.252312E-3
932.145309E-3
932.104111E-3
931.826591E-3
931.819725E-3
931.710434E-3
931.517601E-3
931.447792E-3
931.062126E-3
931.150818E-3
931.043816E-3
930.932236E-3
930.751991E-3
930.551720E-3
