Notes :


2023-11-06 ¿ÀÈÄ 11:03:04
Volts
Ch : LED 2,
406.591988E-3
406.556511E-3
406.587410E-3
406.381416E-3
406.275558E-3
406.225204E-3
406.103325E-3
406.137657E-3
406.030655E-3
405.996895E-3
405.943680E-3
406.241226E-3
406.144524E-3
405.880165E-3
405.833817E-3
405.804634E-3
405.807495E-3
405.741119E-3
405.846977E-3
405.729103E-3
405.677032E-3
405.545998E-3
405.507088E-3
405.409241E-3
405.307961E-3
405.377769E-3
405.379486E-3
405.351448E-3
405.287933E-3
405.273056E-3
405.306244E-3
405.179214E-3
405.108261E-3
404.997253E-3
404.952049E-3
404.884529E-3
404.803848E-3
404.796982E-3
404.611588E-3
404.580688E-3
404.547501E-3
404.459953E-3
404.527473E-3
404.527473E-3
404.615593E-3
405.013847E-3
405.572891E-3
406.276131E-3
407.066345E-3
407.781601E-3
408.349800E-3
408.827591E-3
409.047890E-3
409.259605E-3
409.345436E-3
409.436989E-3
409.163475E-3
409.020996E-3
408.858490E-3
408.638763E-3
408.368683E-3
408.217621E-3
408.171844E-3
408.064270E-3
408.001328E-3
408.108330E-3
408.039665E-3
408.241081E-3
408.176994E-3
408.135796E-3
408.230209E-3
408.065414E-3
407.901192E-3
407.762146E-3
407.758713E-3
407.657433E-3
407.589912E-3
407.722664E-3
407.793045E-3
407.643127E-3
407.795334E-3
407.937813E-3
408.055115E-3
408.055687E-3
408.033943E-3
408.023643E-3
407.955551E-3
407.899475E-3
407.754135E-3
407.647705E-3
407.578468E-3
407.420540E-3
407.314682E-3
407.254601E-3
407.109833E-3
407.091522E-3
406.950188E-3
406.926155E-3
406.800842E-3
406.747055E-3
406.738472E-3
406.745911E-3
406.730461E-3
406.519318E-3
406.470680E-3
406.479836E-3
406.495857E-3
406.445503E-3
406.431770E-3
406.435204E-3
406.411171E-3
406.303024E-3
406.331635E-3
406.189728E-3
406.253242E-3
406.236076E-3
406.221199E-3
406.216049E-3
406.117058E-3
406.039238E-3
406.046677E-3
406.103897E-3
405.913925E-3
405.890465E-3
405.871010E-3
405.929375E-3
405.834961E-3
405.904198E-3
405.864716E-3
405.723381E-3
405.737114E-3
405.628395E-3
405.671883E-3
405.661011E-3
405.547142E-3
405.452156E-3
405.455017E-3
405.433273E-3
405.314827E-3
405.240440E-3
405.270767E-3
405.195808E-3
405.198669E-3
405.201530E-3
405.315971E-3
405.657005E-3
406.156540E-3
406.892967E-3
407.654572E-3
408.371544E-3
408.989525E-3
409.497070E-3
409.858704E-3
409.867859E-3
409.916496E-3
409.926796E-3
409.782600E-3
409.609222E-3
409.206390E-3
409.011841E-3
408.895683E-3
408.635330E-3
408.556938E-3
408.466530E-3
408.479118E-3
408.496857E-3
408.461952E-3
408.464813E-3
408.512306E-3
408.427620E-3
408.317757E-3
408.146667E-3
408.041382E-3
407.932663E-3
408.083725E-3
407.934380E-3
407.912064E-3
407.955551E-3
408.070564E-3
408.147240E-3
408.243942E-3
408.224487E-3
408.419037E-3
408.230782E-3
408.322334E-3
408.281708E-3
408.182144E-3
408.084869E-3
407.905197E-3
407.892036E-3
407.754135E-3
407.637405E-3
407.456017E-3
407.306099E-3
407.251740E-3
407.170486E-3
407.026863E-3
407.053185E-3
406.929016E-3
406.814575E-3
406.721878E-3
406.678391E-3
406.657219E-3
406.534767E-3
406.502151E-3
406.418610E-3
406.362534E-3
406.296730E-3
406.210899E-3
406.245232E-3
406.295013E-3
406.170845E-3
406.125641E-3
406.041527E-3
405.987167E-3
405.893326E-3
405.866432E-3
405.860710E-3
405.845833E-3
405.833244E-3
405.748558E-3
405.683899E-3
405.654716E-3
405.553436E-3
405.424690E-3
405.406380E-3
405.272484E-3
405.261040E-3
405.204964E-3
405.117989E-3
405.158615E-3
404.954910E-3
404.878807E-3
404.791832E-3
404.605865E-3
404.526901E-3
404.485703E-3
404.525185E-3
404.517174E-3
404.557228E-3
404.771805E-3
405.183792E-3
405.848122E-3
406.541634E-3
407.181358E-3
407.904053E-3
408.342361E-3
408.855057E-3
409.060478E-3
409.120560E-3
409.154892E-3
408.988953E-3
408.848190E-3
408.473969E-3
408.293152E-3
408.078003E-3
407.884598E-3
407.820511E-3
407.715797E-3
407.585907E-3
407.577896E-3
407.660866E-3
407.699776E-3
407.655716E-3
407.581902E-3
407.592201E-3
407.561874E-3
407.402802E-3
407.248306E-3
407.133293E-3
407.117844E-3
406.987381E-3
407.185364E-3
407.280350E-3
407.372475E-3
407.452011E-3
407.355309E-3
407.403946E-3
407.462883E-3
407.452583E-3
407.585907E-3
407.465744E-3
407.362747E-3
407.270050E-3
407.065201E-3
407.003975E-3
406.858063E-3
406.749344E-3
406.651497E-3
406.501007E-3
406.400871E-3
406.387711E-3
406.352806E-3
406.238937E-3
406.123924E-3
406.060410E-3
406.034660E-3
405.939674E-3
405.754852E-3
405.779457E-3
405.793762E-3
405.695915E-3
405.755424E-3
405.698776E-3
405.605507E-3
405.662155E-3
405.517387E-3
405.470467E-3
405.513954E-3
405.545425E-3
405.528259E-3
405.428696E-3
405.452728E-3
405.385780E-3
405.470467E-3
405.314255E-3
405.222130E-3
405.320549E-3
405.167198E-3
405.054474E-3
405.086517E-3
404.985809E-3
405.039024E-3
405.060196E-3
404.887390E-3
404.896545E-3
404.783821E-3
404.677391E-3
404.604149E-3
404.550362E-3
404.497719E-3
404.430771E-3
404.356384E-3
404.281425E-3
404.177284E-3
404.243088E-3
404.216194E-3
404.502296E-3
404.828453E-3
405.371475E-3
406.115341E-3
406.620026E-3
407.435989E-3
407.995605E-3
408.536339E-3
408.892822E-3
408.963776E-3
409.046173E-3
409.004974E-3
408.895683E-3
408.682823E-3
408.412170E-3
408.266258E-3
408.005905E-3
407.845116E-3
407.777596E-3
407.631683E-3
407.676888E-3
407.767868E-3
407.756424E-3
407.814217E-3
407.794189E-3
407.854843E-3
407.733536E-3
407.604218E-3
407.504082E-3
407.354736E-3
407.314110E-3
407.310104E-3
407.260895E-3
407.359886E-3
407.349586E-3
407.450867E-3
407.543564E-3
407.508659E-3
407.596779E-3
407.647705E-3
407.685471E-3
407.573318E-3
407.557869E-3
407.497787E-3
407.355881E-3
407.393074E-3
407.220268E-3
407.143021E-3
407.124138E-3
406.959343E-3
406.896973E-3
406.744766E-3
406.616592E-3
406.567383E-3
406.440353E-3
406.479263E-3
406.583977E-3
406.424904E-3
406.392860E-3
406.153679E-3
406.196022E-3
406.101608E-3
406.017494E-3
406.074715E-3
405.966568E-3
405.917931E-3
405.897331E-3
405.868149E-3
406.015778E-3
405.895042E-3
405.866432E-3
405.813217E-3
405.772018E-3
405.783463E-3
405.813789E-3
405.773163E-3
405.820656E-3
405.755997E-3
405.718803E-3
405.644417E-3
405.631256E-3
405.573463E-3
405.529404E-3
405.610657E-3
405.436134E-3
405.422974E-3
405.353737E-3
405.340576E-3
405.354881E-3
405.254745E-3
405.188942E-3
405.018425E-3
405.061913E-3
405.016136E-3
404.931450E-3
404.953194E-3
404.867935E-3
404.867935E-3
405.109406E-3
405.517387E-3
406.200600E-3
406.937027E-3
407.653999E-3
408.336067E-3
408.839607E-3
409.260750E-3
409.419823E-3
409.598351E-3
409.568024E-3
409.426689E-3
409.219551E-3
409.058189E-3
408.762932E-3
408.581543E-3
408.273697E-3
408.214760E-3
408.094025E-3
408.092308E-3
408.094025E-3
408.082008E-3
408.070564E-3
408.096886E-3
408.008194E-3
407.948112E-3
407.763863E-3
407.736397E-3
407.558441E-3
407.489777E-3
407.537270E-3
407.492065E-3
407.681465E-3
407.703781E-3
407.740974E-3
407.872581E-3
407.876015E-3
407.837677E-3
407.985878E-3
407.976151E-3
407.994461E-3
407.866859E-3
407.766151E-3
407.640839E-3
407.513237E-3
407.425117E-3
407.210541E-3
407.068634E-3
406.912994E-3
406.840324E-3
406.793404E-3
406.547928E-3
406.562233E-3
406.496429E-3
406.353951E-3
406.086159E-3
406.098175E-3
406.115341E-3
406.051254E-3
406.125641E-3
405.963135E-3
405.885887E-3
405.863571E-3
405.796051E-3
405.709076E-3
405.684471E-3
405.578041E-3
405.536270E-3
405.487633E-3
405.501366E-3
405.493927E-3
405.345726E-3
405.354881E-3
405.289078E-3
405.204964E-3
405.152893E-3
405.051041E-3
405.115700E-3
405.073357E-3
405.010986E-3
404.985237E-3
404.899406E-3
404.970932E-3
404.789543E-3
404.580116E-3
404.546356E-3
404.451942E-3
404.374695E-3
404.270554E-3
404.224205E-3
404.130363E-3
404.003334E-3
404.042816E-3
404.292297E-3
404.714012E-3
405.373192E-3
406.056404E-3
406.782532E-3
407.449722E-3
407.938385E-3
408.381844E-3
408.578682E-3
408.637047E-3
408.741188E-3
408.666801E-3
408.550072E-3
408.251381E-3
408.102036E-3
407.779884E-3
407.576752E-3
407.461739E-3
407.283211E-3
407.287788E-3
407.254028E-3
407.266045E-3
407.270050E-3
407.388496E-3
407.334709E-3
407.161903E-3
407.071495E-3
406.916428E-3
406.779671E-3
406.756783E-3
406.791115E-3
406.716728E-3
406.927872E-3
406.822586E-3
406.874657E-3
406.945038E-3
406.899834E-3
406.914711E-3
406.958771E-3
407.050896E-3
407.033157E-3
406.793404E-3
406.923294E-3
406.713295E-3
406.585121E-3
406.503296E-3
406.363106E-3
406.338501E-3
406.128502E-3
406.133652E-3
405.792618E-3
405.836678E-3
405.784607E-3
405.653000E-3
405.714226E-3
405.580902E-3
405.556870E-3
405.515671E-3
405.409813E-3
405.454445E-3
405.360603E-3
405.257607E-3
405.287361E-3
405.109406E-3
405.213547E-3
405.178070E-3
405.135727E-3
405.148888E-3
405.207253E-3
405.081367E-3
405.032158E-3
404.932022E-3
404.952621E-3
404.869652E-3
404.990387E-3
404.927444E-3
404.825020E-3
404.824448E-3
404.698563E-3
404.755783E-3
404.663658E-3
404.592133E-3
404.612732E-3
404.468536E-3
404.488564E-3
404.447365E-3
404.433060E-3
404.274559E-3
404.214478E-3
404.181862E-3
404.006767E-3
403.951836E-3
403.899193E-3
403.917503E-3
404.039383E-3
404.053116E-3
404.385567E-3
405.000687E-3
405.522537E-3
406.361961E-3
406.991959E-3
407.679749E-3
408.321762E-3
408.567238E-3
408.768082E-3
408.863068E-3
408.826447E-3
408.773232E-3
408.476257E-3
408.207893E-3
408.023071E-3
407.694054E-3
407.570457E-3
407.441139E-3
407.394791E-3
407.374763E-3
407.337570E-3
407.464600E-3
407.406807E-3
407.563019E-3
407.482910E-3
407.495499E-3
407.298660E-3
407.227707E-3
407.085228E-3
406.994820E-3
406.941605E-3
407.079506E-3
407.068062E-3
407.251740E-3
407.200813E-3
407.120132E-3
407.209396E-3
407.235146E-3
407.353020E-3
407.380486E-3
407.268906E-3
407.263756E-3
407.278061E-3
407.151031E-3
407.041740E-3
406.895256E-3
406.772804E-3
406.616592E-3
406.651497E-3
406.565666E-3
406.402588E-3
406.323051E-3
406.187439E-3
406.275558E-3
406.221771E-3
406.125641E-3
406.118774E-3
406.004906E-3
406.052971E-3
405.963707E-3
406.074142E-3
405.960274E-3
405.885315E-3
405.887604E-3
405.762291E-3
405.733109E-3
405.737686E-3
405.716515E-3
405.792046E-3
405.777740E-3
405.758286E-3
405.758858E-3
405.607796E-3
405.641556E-3
405.646706E-3
405.657578E-3
405.591774E-3
405.539131E-3
405.496788E-3
405.391502E-3
405.357170E-3
405.481339E-3
405.376053E-3
405.383492E-3
405.372620E-3
405.295372E-3
405.213547E-3
405.024719E-3
405.017853E-3
404.937172E-3
404.850197E-3
404.877090E-3
404.794121E-3
404.748344E-3
404.708290E-3
404.898262E-3
405.385780E-3
405.968285E-3
406.797981E-3
407.405663E-3
408.059692E-3
408.681107E-3
409.029007E-3
409.386063E-3
409.378052E-3
409.344864E-3
409.368324E-3
409.144592E-3
408.982086E-3
408.728600E-3
408.429337E-3
408.279991E-3
407.916641E-3
407.983589E-3
408.021927E-3
407.862854E-3
408.001900E-3
407.928085E-3
408.048248E-3
407.944679E-3
407.806778E-3
407.709503E-3
407.596779E-3
407.486343E-3
407.445717E-3
407.371330E-3
407.358742E-3
407.537842E-3
407.651711E-3
407.676888E-3
407.748413E-3
407.810783E-3
407.861710E-3
407.893753E-3
407.890892E-3
407.884598E-3
407.736969E-3
407.618523E-3
407.528114E-3
407.302666E-3
407.240295E-3
407.157326E-3
407.035446E-3
407.024574E-3
406.922150E-3
406.781960E-3
406.745911E-3
406.485558E-3
406.552505E-3
406.488991E-3
406.404877E-3
406.398582E-3
406.354523E-3
406.300735E-3
406.125069E-3
405.912209E-3
405.982018E-3
405.869865E-3
405.879593E-3
405.844688E-3
405.822945E-3
405.887032E-3
405.796051E-3
405.776024E-3
405.735397E-3
405.633545E-3
405.636978E-3
405.540276E-3
405.545998E-3
405.523109E-3
405.362892E-3
405.424690E-3
405.301094E-3
405.307388E-3
405.194092E-3
405.140305E-3
405.052185E-3
404.872513E-3
404.756927E-3
404.670525E-3
404.574394E-3
404.544067E-3
404.281425E-3
404.403305E-3
404.334641E-3
404.273987E-3
404.389000E-3
404.595566E-3
405.171776E-3
405.751991E-3
406.474113E-3
407.244873E-3
407.849121E-3
408.285713E-3
408.700562E-3
408.833885E-3
408.925438E-3
408.847618E-3
408.722878E-3
408.539772E-3
408.483696E-3
408.199310E-3
407.746124E-3
407.625961E-3
407.467461E-3
407.359314E-3
407.420540E-3
407.438278E-3
407.435989E-3
407.385063E-3
407.453156E-3
407.447433E-3
407.277489E-3
407.108688E-3
406.982231E-3
406.842041E-3
406.816292E-3
406.738472E-3
406.693840E-3
406.874657E-3
406.831169E-3
407.044601E-3
407.044029E-3
407.128143E-3
407.058334E-3
407.073784E-3
407.102966E-3
407.093811E-3
407.016563E-3
406.907845E-3
406.649208E-3
406.649780E-3
406.492424E-3
406.431770E-3
406.300735E-3
406.111908E-3
406.075859E-3
405.900764E-3
405.888748E-3
405.757141E-3
405.675888E-3
405.622101E-3
405.550575E-3
405.598640E-3
405.509949E-3
405.461311E-3
405.453873E-3
405.298805E-3
405.374336E-3
405.344009E-3
405.249596E-3
405.276489E-3
405.285645E-3
405.155182E-3
405.094528E-3
404.982948E-3
405.039024E-3
404.978943E-3
404.993248E-3
404.938316E-3
404.897690E-3
404.839325E-3
404.803276E-3
404.790115E-3
404.731178E-3
404.665375E-3
404.737473E-3
404.577255E-3
404.617882E-3
404.560661E-3
404.435349E-3
404.442215E-3
404.331779E-3
404.281425E-3
404.298019E-3
404.152679E-3
404.097176E-3
403.907204E-3
403.934097E-3
403.991318E-3
403.936386E-3
404.111481E-3
404.434776E-3
405.050468E-3
405.794907E-3
406.506729E-3
407.212830E-3
407.788467E-3
408.313751E-3
408.507729E-3
408.684540E-3
408.757782E-3
408.634758E-3
408.496857E-3
408.225632E-3
407.980728E-3
407.843399E-3
407.619095E-3
407.520103E-3
407.433701E-3
407.314110E-3
407.287788E-3
407.267189E-3
407.377625E-3
407.431412E-3
407.407379E-3
407.509804E-3
407.276344E-3
407.074356E-3
406.918716E-3
406.866074E-3
406.860352E-3
406.792259E-3
406.728745E-3
406.878090E-3
406.828308E-3
406.967354E-3
406.865501E-3
406.951904E-3
407.053757E-3
407.039452E-3
407.158470E-3
407.038879E-3
406.977654E-3
406.953049E-3
406.842041E-3
406.764221E-3
406.593132E-3
406.504440E-3
406.444931E-3
406.419182E-3
406.408310E-3
406.215477E-3
406.121063E-3
406.086731E-3
406.007767E-3
406.016922E-3
405.815506E-3
405.916214E-3
405.814362E-3
405.889893E-3
405.782890E-3
405.714798E-3
405.686188E-3
405.648994E-3
405.633545E-3
405.603790E-3
405.527115E-3
405.604362E-3
405.331993E-3
405.270767E-3
405.402946E-3
405.299950E-3
405.338287E-3
405.319405E-3
405.236435E-3
405.250740E-3
405.317688E-3
405.319405E-3
405.242729E-3
405.101967E-3
405.153465E-3
405.012131E-3
404.974365E-3
405.016136E-3
404.862785E-3
404.954910E-3
404.891396E-3
404.770088E-3
404.633331E-3
404.501152E-3
404.525757E-3
404.534340E-3
404.550362E-3
404.565239E-3
404.432487E-3
404.458809E-3
404.470253E-3
404.763222E-3
405.288506E-3
405.864716E-3
406.701851E-3
407.393074E-3
407.996178E-3
408.469391E-3
408.611298E-3
408.804703E-3
408.780670E-3
408.712578E-3
408.643913E-3
408.397865E-3
408.144379E-3
407.859993E-3
407.649994E-3
407.608795E-3
407.461739E-3
407.387924E-3
407.287216E-3
407.302666E-3
407.339859E-3
