Notes :


2023-11-02 ¿ÀÈÄ 6:37:35
Volts
Ch : LED 2,
606.761742E-3
605.877686E-3
604.059219E-3
602.116585E-3
600.951576E-3
599.050140E-3
598.784065E-3
597.837067E-3
596.901512E-3
596.906090E-3
596.081543E-3
596.416855E-3
595.964813E-3
595.318222E-3
594.988060E-3
594.221306E-3
594.573212E-3
594.488525E-3
594.300842E-3
594.993210E-3
594.763756E-3
595.913315E-3
596.570778E-3
596.642303E-3
597.435951E-3
597.128105E-3
597.772408E-3
597.434235E-3
596.942711E-3
596.895218E-3
595.614624E-3
595.798874E-3
594.887924E-3
593.762398E-3
593.464851E-3
592.011452E-3
591.721916E-3
590.816116E-3
589.809036E-3
589.815331E-3
588.688087E-3
588.796234E-3
588.420296E-3
587.687302E-3
587.845802E-3
587.058449E-3
587.382317E-3
586.977196E-3
586.443901E-3
586.656761E-3
585.971832E-3
586.351776E-3
586.234474E-3
585.550117E-3
585.868835E-3
585.065460E-3
585.599899E-3
585.453987E-3
584.950447E-3
585.341835E-3
584.785080E-3
585.108376E-3
584.766197E-3
583.218956E-3
583.955383E-3
583.250999E-3
583.569145E-3
583.369446E-3
582.304573E-3
582.719421E-3
581.466293E-3
581.518364E-3
581.054878E-3
580.574226E-3
581.671143E-3
582.057381E-3
584.538460E-3
587.303925E-3
590.432739E-3
594.499969E-3
596.808815E-3
599.769402E-3
601.525497E-3
601.952934E-3
602.792358E-3
601.070595E-3
600.043488E-3
598.557472E-3
596.505547E-3
595.575714E-3
593.334389E-3
592.572784E-3
591.636658E-3
590.384674E-3
590.481949E-3
589.178467E-3
589.231110E-3
588.870049E-3
587.807465E-3
587.850380E-3
586.822128E-3
586.919403E-3
587.168884E-3
586.743164E-3
587.951660E-3
587.929916E-3
588.639450E-3
589.595604E-3
589.672279E-3
591.224670E-3
590.894508E-3
591.032982E-3
591.219521E-3
590.666199E-3
591.329956E-3
589.993286E-3
589.572716E-3
589.076614E-3
588.004303E-3
588.229179E-3
586.694527E-3
586.151505E-3
585.990715E-3
585.051155E-3
585.665131E-3
584.310722E-3
584.190559E-3
583.944511E-3
583.295631E-3
583.815193E-3
582.972336E-3
583.051300E-3
583.062172E-3
582.675362E-3
583.246994E-3
582.543755E-3
582.706261E-3
583.078194E-3
581.740952E-3
583.170891E-3
582.760048E-3
583.132553E-3
583.605766E-3
582.167816E-3
583.434677E-3
582.960892E-3
582.992935E-3
583.023834E-3
582.511139E-3
582.811546E-3
581.879997E-3
581.846809E-3
581.704330E-3
581.084061E-3
581.715202E-3
580.876923E-3
581.367874E-3
582.713127E-3
584.442902E-3
587.941933E-3
590.623856E-3
594.104576E-3
597.062302E-3
599.263573E-3
601.653671E-3
601.775551E-3
601.704025E-3
601.178741E-3
599.755669E-3
599.193764E-3
597.064590E-3
595.468140E-3
594.519997E-3
593.007660E-3
592.858887E-3
591.375732E-3
591.111946E-3
590.809822E-3
589.782143E-3
590.106010E-3
588.877487E-3
588.574219E-3
588.391685E-3
587.828636E-3
588.674927E-3
588.511276E-3
589.247704E-3
590.001869E-3
590.402985E-3
591.681862E-3
591.915894E-3
592.560768E-3
593.085480E-3
592.813683E-3
593.525505E-3
592.823982E-3
592.541313E-3
592.367935E-3
591.242981E-3
591.297340E-3
590.274239E-3
589.358139E-3
589.265442E-3
588.405418E-3
588.220024E-3
587.230682E-3
586.931419E-3
586.932564E-3
586.201859E-3
586.528015E-3
585.824776E-3
585.532951E-3
585.817337E-3
585.226822E-3
585.647964E-3
585.305786E-3
585.289764E-3
585.598755E-3
584.891510E-3
585.853958E-3
585.484886E-3
585.495758E-3
585.854530E-3
585.323524E-3
585.920906E-3
585.762978E-3
585.623932E-3
585.937500E-3
585.047722E-3
585.693741E-3
585.303497E-3
585.154152E-3
585.187340E-3
584.363937E-3
584.760475E-3
584.002876E-3
583.561707E-3
583.573151E-3
582.528877E-3
583.364296E-3
583.445549E-3
584.640884E-3
587.163734E-3
589.683723E-3
593.863106E-3
597.021675E-3
600.140190E-3
602.834702E-3
603.858948E-3
605.288887E-3
605.069160E-3
604.024887E-3
603.149986E-3
600.953293E-3
600.187111E-3
598.378944E-3
596.828842E-3
595.885849E-3
594.381523E-3
594.446182E-3
593.709755E-3
593.130684E-3
592.975616E-3
592.264366E-3
592.544746E-3
591.761398E-3
591.002083E-3
590.967751E-3
590.034485E-3
590.864754E-3
590.661621E-3
590.687370E-3
591.047287E-3
591.374016E-3
592.784500E-3
592.997360E-3
592.964172E-3
593.391037E-3
592.857742E-3
593.308640E-3
592.888641E-3
592.117310E-3
591.900444E-3
590.785789E-3
590.889359E-3
589.881134E-3
588.867187E-3
588.580513E-3
587.465286E-3
587.570000E-3
586.885643E-3
586.176109E-3
586.166382E-3
585.534096E-3
585.852814E-3
585.687447E-3
585.185051E-3
585.357285E-3
584.696960E-3
585.293770E-3
585.151291E-3
584.716988E-3
585.008240E-3
584.589386E-3
585.198784E-3
585.194778E-3
585.047722E-3
585.498047E-3
584.910965E-3
585.707474E-3
585.552406E-3
585.239410E-3
585.494041E-3
584.848022E-3
585.140991E-3
584.803963E-3
584.215736E-3
584.310150E-3
583.427811E-3
583.803177E-3
583.230972E-3
582.443047E-3
582.536888E-3
581.826210E-3
582.547188E-3
583.404922E-3
585.098076E-3
587.491608E-3
590.522003E-3
594.507980E-3
597.831345E-3
600.151634E-3
602.677345E-3
603.132248E-3
603.829193E-3
603.242111E-3
601.452827E-3
600.579643E-3
598.556900E-3
597.418213E-3
596.277809E-3
594.624138E-3
594.084549E-3
592.890358E-3
592.769051E-3
592.599106E-3
591.842079E-3
592.073250E-3
591.147423E-3
590.933418E-3
590.349770E-3
589.334106E-3
589.858818E-3
589.497757E-3
590.172386E-3
590.766335E-3
589.828491E-3
591.868973E-3
591.937065E-3
593.003654E-3
593.107224E-3
592.819405E-3
593.472862E-3
592.570496E-3
592.686081E-3
592.107582E-3
591.180038E-3
591.214371E-3
589.742088E-3
589.438820E-3
588.840294E-3
587.710762E-3
587.874985E-3
586.588669E-3
586.366081E-3
586.211586E-3
585.468292E-3
585.960388E-3
585.004807E-3
585.179901E-3
585.130119E-3
583.613777E-3
584.999084E-3
584.503555E-3
584.554482E-3
585.070038E-3
584.490967E-3
585.268021E-3
584.605408E-3
584.715843E-3
585.008812E-3
584.616280E-3
585.349274E-3
584.684944E-3
584.656906E-3
584.779358E-3
584.142494E-3
584.714127E-3
583.584595E-3
583.639526E-3
583.396339E-3
582.621002E-3
583.118820E-3
581.879997E-3
581.645393E-3
581.881714E-3
581.764984E-3
582.998085E-3
583.463287E-3
585.564995E-3
588.599968E-3
591.427803E-3
595.507050E-3
597.683716E-3
599.856949E-3
601.437950E-3
601.690865E-3
602.228165E-3
600.621414E-3
599.313927E-3
598.112297E-3
596.373940E-3
595.879555E-3
593.810463E-3
593.011665E-3
592.339325E-3
591.408348E-3
591.757393E-3
590.642166E-3
590.329742E-3
589.949799E-3
588.981628E-3
589.121246E-3
588.244629E-3
588.191414E-3
588.714981E-3
588.522148E-3
589.980698E-3
590.119171E-3
590.968895E-3
591.808319E-3
592.187691E-3
593.317223E-3
592.650604E-3
592.874336E-3
592.878914E-3
591.521645E-3
592.148781E-3
591.241837E-3
590.991783E-3
590.544891E-3
588.784790E-3
589.289474E-3
588.264656E-3
587.996292E-3
587.803459E-3
586.342621E-3
587.360573E-3
586.754608E-3
586.653328E-3
586.738586E-3
586.220169E-3
587.040138E-3
586.442184E-3
586.316299E-3
586.723137E-3
585.939217E-3
586.837578E-3
586.384964E-3
586.490822E-3
586.788368E-3
586.363792E-3
587.140274E-3
586.950302E-3
586.814117E-3
587.112236E-3
586.777496E-3
587.466431E-3
586.871910E-3
586.841583E-3
587.048149E-3
586.284256E-3
586.855888E-3
586.176682E-3
585.714340E-3
585.651970E-3
584.817696E-3
585.099792E-3
584.227753E-3
584.137344E-3
584.784508E-3
585.266876E-3
587.944794E-3
590.315437E-3
593.329239E-3
597.230530E-3
599.943924E-3
603.805161E-3
605.413055E-3
606.522560E-3
607.002068E-3
605.778122E-3
605.511475E-3
603.801727E-3
602.245331E-3
601.165581E-3
599.256134E-3
598.646164E-3
597.697449E-3
596.846581E-3
596.839714E-3
596.127319E-3
596.363640E-3
596.058083E-3
595.615768E-3
595.419502E-3
594.265366E-3
594.289970E-3
593.579292E-3
593.091202E-3
593.599319E-3
593.254280E-3
594.128036E-3
594.448471E-3
594.690514E-3
595.555115E-3
595.171165E-3
596.056366E-3
595.676422E-3
595.137405E-3
595.310783E-3
594.307709E-3
594.501114E-3
593.795013E-3
592.841721E-3
592.371368E-3
591.165733E-3
591.480446E-3
590.693092E-3
589.795303E-3
589.596176E-3
588.660622E-3
589.365005E-3
588.679504E-3
588.093567E-3
587.819481E-3
587.334251E-3
588.208580E-3
587.806320E-3
587.325668E-3
587.741089E-3
587.135696E-3
587.630653E-3
587.489891E-3
587.064743E-3
587.028694E-3
586.752319E-3
587.432098E-3
587.173462E-3
586.902809E-3
587.144279E-3
586.552048E-3
587.180901E-3
586.888504E-3
586.224174E-3
586.356354E-3
585.414505E-3
585.820198E-3
585.297775E-3
584.421730E-3
584.383392E-3
583.524513E-3
583.809471E-3
583.369446E-3
582.992935E-3
583.377457E-3
583.622932E-3
585.844231E-3
588.010597E-3
590.856171E-3
594.610405E-3
597.314644E-3
600.727272E-3
602.710533E-3
603.623199E-3
604.479218E-3
603.525352E-3
603.148270E-3
601.744652E-3
599.856949E-3
599.135399E-3
597.289467E-3
596.523857E-3
595.515060E-3
594.602966E-3
594.559479E-3
593.674850E-3
593.930626E-3
593.714333E-3
593.019104E-3
593.094063E-3
591.832924E-3
591.914749E-3
591.203499E-3
590.794373E-3
591.272163E-3
590.923119E-3
591.940498E-3
592.183685E-3
592.299271E-3
593.204498E-3
592.924118E-3
593.722916E-3
593.493462E-3
593.098640E-3
593.181610E-3
592.176819E-3
592.235184E-3
591.595459E-3
590.314293E-3
590.280533E-3
589.089203E-3
588.945007E-3
588.290977E-3
587.271309E-3
587.555695E-3
586.709404E-3
586.692810E-3
586.410141E-3
585.829353E-3
586.431313E-3
585.528946E-3
585.688019E-3
585.519218E-3
585.122108E-3
586.011887E-3
585.074043E-3
585.397911E-3
585.224533E-3
584.650040E-3
585.469437E-3
584.781075E-3
585.217094E-3
585.130692E-3
584.750748E-3
585.433388E-3
584.616852E-3
584.781075E-3
584.662056E-3
584.074402E-3
584.467506E-3
583.402634E-3
583.617210E-3
583.241844E-3
582.549477E-3
582.979202E-3
581.957817E-3
581.695747E-3
581.418800E-3
580.791092E-3
581.470871E-3
580.898094E-3
581.667137E-3
583.028412E-3
584.741592E-3
588.286400E-3
590.805817E-3
594.192696E-3
597.506905E-3
599.337387E-3
601.401329E-3
601.134682E-3
601.138115E-3
600.463486E-3
598.833847E-3
598.381233E-3
595.903015E-3
594.787216E-3
593.757248E-3
592.003441E-3
592.423439E-3
591.356277E-3
591.186905E-3
591.142845E-3
590.405846E-3
590.802956E-3
589.304924E-3
588.962746E-3
588.740730E-3
588.027191E-3
589.046860E-3
588.599968E-3
589.160728E-3
589.950943E-3
590.150070E-3
591.616058E-3
591.335106E-3
591.811752E-3
592.309570E-3
591.876984E-3
592.539024E-3
591.326523E-3
590.931702E-3
590.706253E-3
589.335823E-3
589.615631E-3
588.067245E-3
587.740517E-3
587.576294E-3
586.756325E-3
586.984062E-3
585.909462E-3
585.770416E-3
585.490036E-3
585.179329E-3
585.907745E-3
585.185623E-3
585.321236E-3
585.313797E-3
584.933281E-3
585.617065E-3
584.890366E-3
584.936142E-3
585.105515E-3
584.635162E-3
585.626793E-3
584.861183E-3
584.869194E-3
585.142708E-3
584.608841E-3
585.512352E-3
584.902382E-3
584.941864E-3
585.054016E-3
584.411430E-3
585.155869E-3
584.368515E-3
584.297562E-3
584.157372E-3
583.354568E-3
583.825493E-3
583.152008E-3
582.721710E-3
582.722855E-3
580.768204E-3
581.831360E-3
581.174469E-3
581.245422E-3
581.989288E-3
582.436752E-3
585.190773E-3
587.317657E-3
590.447617E-3
594.323158E-3
597.247696E-3
600.543022E-3
602.153778E-3
603.156853E-3
603.627777E-3
602.565765E-3
602.116585E-3
600.346756E-3
598.794937E-3
597.774696E-3
595.844078E-3
595.517349E-3
594.395828E-3
593.631935E-3
593.746376E-3
592.882919E-3
593.487740E-3
592.982483E-3
592.701530E-3
592.425156E-3
591.342545E-3
591.376877E-3
590.593529E-3
590.341187E-3
590.643883E-3
590.144348E-3
591.209221E-3
591.422081E-3
591.470718E-3
592.132187E-3
591.826057E-3
592.804527E-3
592.528725E-3
592.231178E-3
592.037201E-3
591.129112E-3
591.246986E-3
590.494537E-3
589.703751E-3
589.174461E-3
588.067245E-3
587.925339E-3
587.276459E-3
586.383820E-3
586.366653E-3
585.323524E-3
585.742378E-3
585.274315E-3
584.805107E-3
584.913826E-3
584.267235E-3
584.779930E-3
584.608269E-3
584.081268E-3
584.402275E-3
583.813477E-3
584.596825E-3
584.263802E-3
583.885002E-3
584.118462E-3
583.676147E-3
584.458923E-3
584.073830E-3
583.640099E-3
583.703613E-3
583.220673E-3
584.185982E-3
583.856964E-3
583.534813E-3
583.739090E-3
583.099937E-3
583.717918E-3
582.999229E-3
582.616425E-3
582.803535E-3
582.173538E-3
582.531738E-3
581.930923E-3
581.240273E-3
581.227112E-3
580.325317E-3
580.777359E-3
580.410576E-3
580.368233E-3
581.770706E-3
582.944298E-3
586.425018E-3
589.236259E-3
592.270660E-3
595.919609E-3
598.008156E-3
600.732994E-3
601.603889E-3
601.444817E-3
601.250267E-3
599.789429E-3
599.050140E-3
597.394180E-3
595.651817E-3
594.656181E-3
593.130112E-3
592.751312E-3
591.987419E-3
591.289330E-3
591.240692E-3
590.730286E-3
591.221237E-3
590.794945E-3
589.974976E-3
589.233971E-3
588.319016E-3
588.377953E-3
588.189697E-3
587.614059E-3
588.098717E-3
587.706757E-3
588.633728E-3
588.871193E-3
588.779640E-3
589.655113E-3
589.208221E-3
589.700317E-3
589.566994E-3
588.812828E-3
588.809967E-3
587.739372E-3
587.693024E-3
587.012672E-3
586.022758E-3
585.777283E-3
584.608269E-3
584.799957E-3
584.311867E-3
583.205795E-3
583.384323E-3
582.524300E-3
582.675362E-3
582.429314E-3
581.442261E-3
582.145500E-3
581.629944E-3
582.240486E-3
582.257652E-3
581.447411E-3
581.627083E-3
581.360435E-3
581.886292E-3
581.730652E-3
581.272888E-3
581.791306E-3
581.177902E-3
581.611633E-3
581.505203E-3
580.969620E-3
581.476021E-3
580.665207E-3
580.961609E-3
581.080627E-3
580.089569E-3
580.738449E-3
580.059242E-3
580.222893E-3
580.078125E-3
578.847313E-3
579.644966E-3
578.791809E-3
578.965187E-3
578.584099E-3
577.811623E-3
578.203583E-3
577.145004E-3
577.126694E-3
576.857758E-3
576.159668E-3
576.964760E-3
576.693535E-3
578.142929E-3
580.305862E-3
582.600403E-3
586.379814E-3
588.942146E-3
592.152214E-3
594.663048E-3
595.081902E-3
596.872330E-3
596.237755E-3
595.755959E-3
594.520569E-3
592.453766E-3
591.657257E-3
589.652824E-3
588.486099E-3
587.679291E-3
586.120033E-3
586.553192E-3
585.558701E-3
585.560417E-3
585.601616E-3
584.922981E-3
585.111809E-3
583.819771E-3
583.392334E-3
583.106232E-3
581.426239E-3
582.895660E-3
582.461929E-3
583.055878E-3
583.786011E-3
583.991432E-3
585.135841E-3
584.900093E-3
585.403633E-3
585.631943E-3
585.189629E-3
585.651970E-3
584.482956E-3
584.103584E-3
583.736229E-3
582.939720E-3
583.055305E-3
581.613922E-3
581.161308E-3
580.811691E-3
580.031204E-3
580.353928E-3
579.152298E-3
578.930855E-3
578.994370E-3
578.465652E-3
579.038429E-3
578.249931E-3
578.458786E-3
578.652763E-3
578.175545E-3
578.747177E-3
577.866554E-3
578.294563E-3
578.455353E-3
578.014183E-3
578.807831E-3
577.977562E-3
578.227615E-3
578.443336E-3
578.073120E-3
578.776932E-3
578.165245E-3
578.120613E-3
578.422737E-3
577.946663E-3
578.524017E-3
577.606773E-3
577.511787E-3
577.547264E-3
576.648331E-3
577.218246E-3
576.429176E-3
576.187134E-3
575.994873E-3
575.341988E-3
575.884438E-3
575.019836E-3
575.249863E-3
575.403214E-3
576.306725E-3
579.112244E-3
581.398201E-3
584.559059E-3
587.907028E-3
590.483665E-3
593.808746E-3
