Notes :


2023-11-04 ¿ÀÈÄ 7:06:53
Volts
Ch : LED 2,
637.332916E-3
637.300873E-3
637.034798E-3
636.772156E-3
636.500359E-3
636.305237E-3
636.324692E-3
636.231422E-3
636.141586E-3
636.010551E-3
636.053467E-3
635.916710E-3
635.607719E-3
635.504150E-3
635.240364E-3
635.036087E-3
634.893608E-3
634.859276E-3
634.724808E-3
634.592056E-3
634.324265E-3
634.119415E-3
633.942032E-3
633.572960E-3
633.127785E-3
632.865715E-3
632.557297E-3
632.255173E-3
631.863213E-3
631.404877E-3
630.979729E-3
630.531120E-3
629.955482E-3
629.590416E-3
628.972435E-3
628.629684E-3
628.535843E-3
628.569031E-3
628.763580E-3
629.699707E-3
631.569672E-3
634.504509E-3
638.239288E-3
642.297363E-3
646.432114E-3
649.847031E-3
652.708054E-3
654.686737E-3
655.630875E-3
655.535889E-3
654.766846E-3
653.371239E-3
651.634598E-3
649.858475E-3
648.026848E-3
646.517944E-3
645.286560E-3
644.383621E-3
643.793106E-3
643.346786E-3
643.244362E-3
643.290138E-3
643.444633E-3
643.244362E-3
642.890739E-3
642.328835E-3
641.690254E-3
641.111183E-3
640.776443E-3
640.657425E-3
640.837097E-3
641.218185E-3
641.625595E-3
642.158318E-3
642.610359E-3
643.089867E-3
643.363380E-3
643.525887E-3
643.338776E-3
642.929649E-3
642.222977E-3
641.625595E-3
640.997314E-3
640.281487E-3
639.551926E-3
638.875008E-3
638.174057E-3
637.518311E-3
636.954689E-3
636.452293E-3
636.131287E-3
635.857201E-3
635.599136E-3
635.362244E-3
635.195160E-3
635.097313E-3
635.168839E-3
634.903908E-3
634.825516E-3
634.796906E-3
634.780884E-3
634.796906E-3
634.788322E-3
634.804344E-3
634.780312E-3
634.722519E-3
634.743118E-3
634.685326E-3
634.593773E-3
634.514236E-3
634.607506E-3
634.455872E-3
634.344292E-3
634.378052E-3
633.982086E-3
634.014702E-3
633.940887E-3
633.641052E-3
633.470535E-3
633.148384E-3
632.808495E-3
632.427406E-3
632.196808E-3
632.037163E-3
631.527328E-3
631.118202E-3
630.718231E-3
630.413818E-3
630.245018E-3
630.074501E-3
630.269051E-3
630.794907E-3
632.343864E-3
634.665871E-3
637.877083E-3
641.701698E-3
645.709991E-3
649.682808E-3
653.264809E-3
655.880356E-3
657.526016E-3
658.125114E-3
657.840729E-3
656.813622E-3
655.231476E-3
653.594971E-3
651.724434E-3
650.000381E-3
648.794746E-3
647.629166E-3
646.895027E-3
646.517944E-3
646.205521E-3
646.209526E-3
646.191788E-3
646.089363E-3
645.864487E-3
645.504570E-3
644.739532E-3
643.910980E-3
643.565369E-3
643.339920E-3
643.358803E-3
643.524170E-3
643.782234E-3
644.205093E-3
644.818497E-3
645.289421E-3
645.758629E-3
646.021843E-3
646.109962E-3
645.845032E-3
645.471954E-3
644.920349E-3
644.059181E-3
643.297577E-3
642.415810E-3
641.688538E-3
640.928650E-3
640.153885E-3
639.473534E-3
638.826942E-3
638.252449E-3
637.832451E-3
637.373543E-3
637.028503E-3
636.916351E-3
636.710930E-3
636.592484E-3
636.498070E-3
636.424255E-3
636.161613E-3
636.155319E-3
636.182213E-3
636.036873E-3
636.030006E-3
635.918427E-3
635.930443E-3
635.897255E-3
635.783958E-3
635.877228E-3
635.616302E-3
635.330772E-3
635.122490E-3
634.850693E-3
634.709930E-3
634.580040E-3
634.402084E-3
634.419823E-3
634.223557E-3
634.148026E-3
633.868790E-3
633.556938E-3
633.274841E-3
632.928085E-3
632.701492E-3
632.453728E-3
632.182503E-3
632.001686E-3
631.545067E-3
631.274986E-3
630.935097E-3
630.615807E-3
630.230713E-3
629.997253E-3
630.006981E-3
630.304527E-3
631.146812E-3
632.996750E-3
635.987663E-3
639.591980E-3
643.765640E-3
647.861481E-3
651.914978E-3
655.130196E-3
657.424164E-3
658.554840E-3
658.628082E-3
658.117104E-3
656.831932E-3
655.221748E-3
653.454208E-3
651.675224E-3
650.131416E-3
649.009323E-3
648.046303E-3
647.472382E-3
647.130203E-3
647.158241E-3
647.363663E-3
647.668648E-3
647.745323E-3
647.724152E-3
647.225189E-3
646.422958E-3
645.685959E-3
645.013618E-3
644.553566E-3
644.330406E-3
644.287491E-3
644.494629E-3
644.906044E-3
645.306015E-3
645.742035E-3
646.026421E-3
646.166611E-3
646.073341E-3
645.811844E-3
645.344353E-3
644.735527E-3
643.780518E-3
643.147087E-3
642.276764E-3
641.471672E-3
640.629959E-3
639.874649E-3
639.270973E-3
638.525963E-3
637.961197E-3
637.594414E-3
637.128067E-3
636.841965E-3
636.591339E-3
636.382484E-3
636.137581E-3
635.911560E-3
635.725594E-3
635.576820E-3
635.472679E-3
635.388565E-3
635.276985E-3
635.220337E-3
635.172844E-3
635.129356E-3
634.974289E-3
634.961700E-3
634.763718E-3
634.600639E-3
634.495926E-3
634.294510E-3
634.157181E-3
634.071922E-3
633.859634E-3
633.777237E-3
633.407593E-3
633.365250E-3
633.160400E-3
632.988739E-3
632.827377E-3
632.617378E-3
632.399940E-3
632.092667E-3
631.789970E-3
631.471825E-3
631.141663E-3
630.841827E-3
630.554008E-3
630.142593E-3
629.720879E-3
629.252815E-3
629.159546E-3
629.160690E-3
629.039383E-3
629.523468E-3
630.488205E-3
632.646561E-3
635.727882E-3
639.389420E-3
643.448639E-3
647.351646E-3
650.864410E-3
653.621864E-3
655.306435E-3
656.027985E-3
655.729294E-3
654.767418E-3
653.232193E-3
651.378250E-3
649.437332E-3
647.744751E-3
646.346283E-3
645.142365E-3
644.344711E-3
643.860054E-3
643.588257E-3
643.565369E-3
643.733025E-3
643.876076E-3
643.786812E-3
643.374825E-3
642.729378E-3
641.977501E-3
641.354370E-3
640.993309E-3
640.966988E-3
641.063690E-3
641.555786E-3
641.938019E-3
642.416382E-3
642.992592E-3
643.427467E-3
643.600845E-3
643.460655E-3
643.252373E-3
642.757988E-3
642.048454E-3
641.262817E-3
640.617943E-3
640.065765E-3
639.238930E-3
638.636971E-3
637.983513E-3
637.374687E-3
636.903763E-3
636.316681E-3
636.024857E-3
635.668945E-3
635.311317E-3
635.139656E-3
634.946251E-3
635.005760E-3
634.934235E-3
634.832382E-3
634.808922E-3
634.844971E-3
634.881592E-3
634.915352E-3
634.881020E-3
634.894753E-3
634.784889E-3
634.636116E-3
634.745407E-3
634.656143E-3
634.634399E-3
634.582901E-3
634.569740E-3
634.649277E-3
634.459305E-3
634.465599E-3
634.422684E-3
634.288788E-3
634.119415E-3
633.839607E-3
633.639336E-3
633.361816E-3
633.151245E-3
632.899475E-3
632.596207E-3
632.179070E-3
632.009697E-3
631.693268E-3
631.322479E-3
630.998039E-3
630.918503E-3
630.865860E-3
630.900192E-3
631.238365E-3
632.042885E-3
633.855057E-3
636.492920E-3
639.852333E-3
643.749619E-3
647.711563E-3
651.527596E-3
654.613495E-3
656.947517E-3
658.201218E-3
658.309937E-3
657.734871E-3
656.572723E-3
654.950523E-3
653.203011E-3
651.358795E-3
650.014114E-3
648.734665E-3
647.821426E-3
647.224617E-3
646.971703E-3
646.897316E-3
646.992874E-3
646.957397E-3
646.904755E-3
646.624374E-3
645.892525E-3
645.177841E-3
644.553566E-3
644.222260E-3
644.096375E-3
644.170761E-3
644.405365E-3
644.816208E-3
645.171547E-3
645.684242E-3
646.220970E-3
646.514511E-3
646.581459E-3
646.457863E-3
645.965195E-3
645.471954E-3
644.813919E-3
644.038582E-3
643.141937E-3
642.356300E-3
641.518593E-3
640.683174E-3
640.045166E-3
639.539337E-3
638.947678E-3
638.404083E-3
638.128281E-3
637.688828E-3
637.454796E-3
637.149811E-3
637.195015E-3
637.076569E-3
636.925507E-3
636.723518E-3
636.412811E-3
636.332130E-3
636.297226E-3
636.173630E-3
636.222839E-3
636.203384E-3
636.246872E-3
636.139870E-3
635.949326E-3
635.925865E-3
635.652351E-3
635.597992E-3
635.327339E-3
635.142517E-3
634.950829E-3
634.696198E-3
634.553146E-3
634.368324E-3
634.117699E-3
633.861923E-3
633.449936E-3
633.230782E-3
632.917786E-3
632.522964E-3
632.293510E-3
632.072067E-3
631.609154E-3
631.300735E-3
630.937386E-3
630.708504E-3
630.290222E-3
629.940033E-3
629.732895E-3
629.548073E-3
629.641914E-3
629.648781E-3
630.624390E-3
632.505226E-3
635.236931E-3
638.811493E-3
642.870140E-3
647.089005E-3
650.909615E-3
654.092789E-3
656.512642E-3
657.460213E-3
657.535172E-3
656.902885E-3
655.593109E-3
653.973770E-3
652.163315E-3
650.633240E-3
648.989296E-3
647.796822E-3
647.050667E-3
646.565437E-3
646.453857E-3
646.436119E-3
646.637535E-3
646.961975E-3
647.024345E-3
646.848679E-3
646.386337E-3
645.479393E-3
644.736099E-3
644.036865E-3
643.624878E-3
643.439484E-3
643.357086E-3
643.676949E-3
643.953896E-3
644.456863E-3
644.847107E-3
645.025063E-3
645.151520E-3
645.025063E-3
644.653702E-3
644.235420E-3
643.563652E-3
642.895317E-3
642.111397E-3
641.289139E-3
640.427399E-3
639.624023E-3
638.990593E-3
638.352013E-3
637.840462E-3
637.586403E-3
637.017632E-3
636.592484E-3
636.243439E-3
635.952187E-3
635.818291E-3
635.629463E-3
635.437775E-3
635.383415E-3
635.177422E-3
635.113907E-3
634.903908E-3
634.828377E-3
634.729385E-3
634.591484E-3
634.537697E-3
634.232140E-3
634.212112E-3
634.041023E-3
634.014702E-3
633.801270E-3
633.559799E-3
633.338356E-3
632.940674E-3
632.731247E-3
632.453156E-3
632.208824E-3
631.858635E-3
631.546211E-3
631.365395E-3
631.197739E-3
630.974579E-3
630.824661E-3
630.518532E-3
630.268478E-3
629.978371E-3
629.700851E-3
629.429054E-3
629.100037E-3
628.728676E-3
628.399086E-3
628.051186E-3
627.763939E-3
627.403450E-3
627.106476E-3
626.957703E-3
626.934814E-3
626.980019E-3
627.192307E-3
628.042603E-3
629.801559E-3
632.400513E-3
635.936737E-3
639.899826E-3
643.925858E-3
647.629166E-3
650.583458E-3
652.704048E-3
653.645325E-3
653.722000E-3
652.770424E-3
651.314163E-3
649.556923E-3
647.827148E-3
646.080208E-3
644.766426E-3
643.647194E-3
643.021774E-3
642.553139E-3
642.301941E-3
642.351151E-3
642.576027E-3
642.813492E-3
642.874146E-3
642.606926E-3
642.015266E-3
641.132355E-3
640.382767E-3
639.700127E-3
639.388275E-3
639.225197E-3
639.432335E-3
639.861488E-3
640.313530E-3
640.890884E-3
641.271400E-3
641.536331E-3
641.491699E-3
641.229630E-3
640.825081E-3
640.112686E-3
639.295578E-3
638.640404E-3
637.821007E-3
637.111473E-3
636.414528E-3
635.723877E-3
635.149956E-3
634.530258E-3
634.090233E-3
633.777809E-3
633.419037E-3
633.253670E-3
632.957840E-3
632.880592E-3
632.826233E-3
632.823944E-3
632.810783E-3
632.673454E-3
632.506371E-3
632.521820E-3
632.370186E-3
632.482910E-3
632.462883E-3
632.472038E-3
632.528114E-3
632.405663E-3
632.423973E-3
632.370758E-3
632.311249E-3
632.287788E-3
632.053757E-3
631.999969E-3
631.689835E-3
631.509590E-3
631.440353E-3
631.252098E-3
631.147957E-3
630.904198E-3
630.471611E-3
630.447578E-3
630.261612E-3
629.995537E-3
629.798698E-3
629.545784E-3
629.291153E-3
628.934097E-3
628.737259E-3
628.529549E-3
628.154755E-3
627.932739E-3
627.490425E-3
627.306175E-3
627.144814E-3
627.167130E-3
627.111053E-3
627.540207E-3
628.275490E-3
629.730034E-3
632.296371E-3
635.508728E-3
639.194870E-3
643.087006E-3
646.664429E-3
649.792671E-3
651.953888E-3
652.985001E-3
653.087425E-3
652.419090E-3
651.165390E-3
649.580956E-3
647.635460E-3
645.855904E-3
644.388771E-3
643.169975E-3
642.302513E-3
641.704559E-3
641.485977E-3
641.508293E-3
641.714287E-3
641.793823E-3
641.819000E-3
641.601562E-3
640.966988E-3
640.140724E-3
639.434624E-3
638.812637E-3
638.580894E-3
638.499069E-3
638.766289E-3
639.147377E-3
639.769363E-3
640.225983E-3
640.549850E-3
640.714645E-3
640.909767E-3
640.754128E-3
640.442276E-3
639.931870E-3
639.254379E-3
638.549423E-3
637.829018E-3
637.038231E-3
636.190224E-3
635.592842E-3
634.897614E-3
634.206963E-3
633.800697E-3
633.218765E-3
632.903481E-3
632.704353E-3
632.549286E-3
632.591057E-3
632.581329E-3
632.502365E-3
632.529831E-3
632.323837E-3
632.426262E-3
632.529259E-3
632.581902E-3
632.734680E-3
632.848549E-3
632.913780E-3
632.995605E-3
632.992744E-3
632.952118E-3
632.892609E-3
632.900620E-3
632.799911E-3
632.633400E-3
632.548714E-3
632.304382E-3
632.101822E-3
631.808281E-3
631.672668E-3
631.412315E-3
631.055260E-3
630.857849E-3
630.594635E-3
630.473900E-3
630.335426E-3
630.093384E-3
629.831886E-3
629.667664E-3
629.355812E-3
629.112625E-3
628.902626E-3
628.617668E-3
628.240013E-3
627.916718E-3
627.883530E-3
627.453804E-3
627.063560E-3
626.782036E-3
626.584053E-3
626.668739E-3
626.884460E-3
627.298737E-3
628.400803E-3
630.496788E-3
633.716011E-3
637.515450E-3
641.746330E-3
645.770073E-3
649.328613E-3
652.096939E-3
653.848457E-3
654.351997E-3
653.925133E-3
653.035355E-3
651.551056E-3
649.724007E-3
647.935867E-3
646.339417E-3
644.989014E-3
643.968773E-3
643.353653E-3
643.231201E-3
643.207169E-3
643.266678E-3
643.624878E-3
643.880081E-3
643.912125E-3
643.755913E-3
643.202591E-3
642.397499E-3
641.506577E-3
640.626526E-3
640.028000E-3
639.589691E-3
639.656067E-3
639.868927E-3
640.314102E-3
640.751266E-3
640.968704E-3
641.242218E-3
641.230774E-3
641.110039E-3
640.741539E-3
640.046310E-3
639.448357E-3
638.725662E-3
638.121986E-3
637.276268E-3
636.433983E-3
635.738182E-3
635.101318E-3
634.467888E-3
633.961487E-3
633.469391E-3
633.110046E-3
632.565880E-3
632.561874E-3
632.355309E-3
632.263184E-3
632.234001E-3
632.040596E-3
631.931877E-3
631.753349E-3
631.612015E-3
631.595421E-3
631.435204E-3
631.248093E-3
631.198883E-3
631.154823E-3
631.127357E-3
630.778313E-3
630.608368E-3
630.426979E-3
630.316544E-3
629.940605E-3
629.598999E-3
629.431343E-3
629.117203E-3
628.852272E-3
628.504944E-3
628.180504E-3
627.858925E-3
627.361679E-3
627.123070E-3
627.001762E-3
626.861572E-3
626.605225E-3
626.418114E-3
626.174927E-3
625.918007E-3
625.718307E-3
625.508308E-3
625.225639E-3
624.981880E-3
624.701500E-3
624.314117E-3
624.033737E-3
623.783112E-3
623.554230E-3
623.093605E-3
622.846985E-3
622.812653E-3
622.907066E-3
623.093033E-3
623.888969E-3
625.516319E-3
628.161621E-3
631.918716E-3
635.813141E-3
639.773369E-3
643.484116E-3
646.402931E-3
648.296928E-3
649.170113E-3
649.098015E-3
648.205948E-3
646.511650E-3
644.836807E-3
643.042374E-3
641.403580E-3
639.990807E-3
639.014053E-3
638.204956E-3
637.804413E-3
637.581253E-3
637.819862E-3
637.956619E-3
638.218117E-3
638.253593E-3
638.094521E-3
637.592125E-3
636.814499E-3
636.042595E-3
635.313606E-3
634.905624E-3
634.725952E-3
634.837532E-3
635.228920E-3
635.749626E-3
636.369896E-3
636.899757E-3
637.195587E-3
637.244797E-3
637.208176E-3
636.684036E-3
635.984802E-3
635.194588E-3
634.420395E-3
633.579826E-3
632.850838E-3
632.250595E-3
631.491280E-3
631.043816E-3
630.395508E-3
629.905701E-3
629.648781E-3
629.241371E-3
628.984451E-3
628.875160E-3
628.724670E-3
628.657722E-3
628.579330E-3
628.524399E-3
628.385353E-3
628.339005E-3
628.321266E-3
628.272057E-3
628.334999E-3
628.377342E-3
628.364754E-3
628.327560E-3
628.130150E-3
628.132439E-3
627.906418E-3
627.746773E-3
627.614021E-3
627.407455E-3
627.201462E-3
627.048683E-3
626.954842E-3
626.749992E-3
626.613235E-3
626.553726E-3
626.304817E-3
626.136017E-3
625.770950E-3
625.611877E-3
625.438499E-3
625.089455E-3
624.855995E-3
624.642563E-3
624.383354E-3
624.081230E-3
623.775101E-3
623.552513E-3
623.316193E-3
622.975731E-3
622.864151E-3
622.814369E-3
622.925377E-3
623.230934E-3
623.993111E-3
625.625610E-3
628.020287E-3
631.355095E-3
635.326767E-3
639.282990E-3
643.044662E-3
646.083069E-3
648.325539E-3
649.421883E-3
649.528885E-3
648.829651E-3
647.385979E-3
