Notes :


2023-11-04 ¿ÀÈÄ 6:51:11
Volts
Ch : LED 2,
531.177521E-3
531.599236E-3
531.842995E-3
532.011223E-3
532.118797E-3
531.802368E-3
531.482506E-3
530.818176E-3
530.229378E-3
529.439163E-3
528.705025E-3
528.312492E-3
527.802658E-3
527.591515E-3
527.461624E-3
527.210999E-3
527.420425E-3
527.178383E-3
526.750946E-3
526.075172E-3
525.125313E-3
524.421501E-3
523.541451E-3
522.941208E-3
522.826195E-3
523.332024E-3
525.282097E-3
528.018951E-3
531.456757E-3
535.004425E-3
538.341522E-3
541.454315E-3
543.911934E-3
545.781898E-3
547.214699E-3
548.043251E-3
548.299599E-3
547.507095E-3
546.244240E-3
544.841194E-3
543.355751E-3
542.071152E-3
540.974236E-3
540.275574E-3
540.115356E-3
539.991188E-3
540.050125E-3
539.889908E-3
539.703941E-3
539.423561E-3
538.833046E-3
538.466263E-3
538.006783E-3
537.843132E-3
537.840271E-3
537.941551E-3
538.261414E-3
538.352966E-3
538.641357E-3
539.155197E-3
539.519691E-3
539.992905E-3
540.245247E-3
540.295601E-3
540.598297E-3
540.473557E-3
540.328789E-3
539.693642E-3
539.098549E-3
538.361549E-3
537.658882E-3
537.107849E-3
536.590576E-3
536.014366E-3
535.471916E-3
534.839630E-3
534.506035E-3
533.973312E-3
533.461761E-3
533.074951E-3
532.760811E-3
532.506752E-3
532.413483E-3
532.324219E-3
532.370567E-3
532.359695E-3
532.313919E-3
532.177734E-3
531.974030E-3
531.751442E-3
531.302834E-3
531.241035E-3
531.303406E-3
531.398392E-3
531.552315E-3
531.560898E-3
531.521988E-3
531.340027E-3
530.924606E-3
530.699158E-3
530.267715E-3
530.135536E-3
529.758453E-3
529.563332E-3
529.504395E-3
529.033470E-3
528.550529E-3
528.226662E-3
527.852440E-3
527.646446E-3
527.571487E-3
528.343391E-3
529.771042E-3
532.337379E-3
535.499954E-3
538.810158E-3
542.441368E-3
545.878029E-3
548.897552E-3
551.134872E-3
552.394295E-3
553.182220E-3
553.004837E-3
552.135086E-3
550.845909E-3
549.235725E-3
547.875595E-3
546.615028E-3
545.620537E-3
544.904709E-3
544.303894E-3
544.130516E-3
543.862724E-3
543.732834E-3
543.618965E-3
543.270493E-3
542.979813E-3
542.480850E-3
541.624260E-3
540.974236E-3
540.237236E-3
539.919662E-3
539.463043E-3
539.290237E-3
539.475632E-3
539.440727E-3
539.915085E-3
540.322495E-3
540.514755E-3
540.884972E-3
540.793991E-3
540.693283E-3
540.236092E-3
539.691925E-3
539.103699E-3
538.312912E-3
537.638283E-3
537.013435E-3
536.247826E-3
535.697937E-3
535.157776E-3
534.528923E-3
533.930397E-3
533.516693E-3
533.259773E-3
532.782555E-3
532.608032E-3
532.479286E-3
532.321358E-3
532.264137E-3
531.873894E-3
531.693077E-3
531.475639E-3
531.344604E-3
531.314278E-3
531.202126E-3
531.107140E-3
531.033325E-3
530.824471E-3
530.710030E-3
530.604172E-3
530.728340E-3
530.677986E-3
530.761528E-3
530.877113E-3
530.528641E-3
530.034828E-3
529.654312E-3
529.182243E-3
529.178810E-3
528.749084E-3
528.411484E-3
528.189468E-3
527.872467E-3
527.618980E-3
527.258492E-3
526.944923E-3
526.836205E-3
526.675987E-3
526.773834E-3
527.047348E-3
528.264999E-3
530.343246E-3
533.214569E-3
536.695290E-3
540.177727E-3
543.795204E-3
547.108841E-3
549.793053E-3
551.743698E-3
552.643776E-3
552.960777E-3
552.252960E-3
551.068497E-3
549.702644E-3
548.147392E-3
546.862793E-3
545.616531E-3
544.753075E-3
544.044113E-3
543.572044E-3
543.545723E-3
543.565750E-3
543.561745E-3
543.598938E-3
543.109703E-3
542.702866E-3
541.791916E-3
540.993690E-3
540.321922E-3
539.523125E-3
539.217567E-3
538.879395E-3
538.882256E-3
539.055634E-3
539.187813E-3
539.455605E-3
539.713669E-3
539.824677E-3
539.915085E-3
539.696503E-3
539.461327E-3
538.715744E-3
538.018799E-3
537.234306E-3
536.333656E-3
535.636711E-3
534.899712E-3
534.206772E-3
533.729553E-3
533.147049E-3
532.676697E-3
532.015228E-3
531.444740E-3
531.172943E-3
530.957222E-3
530.564117E-3
530.291748E-3
530.120659E-3
530.275726E-3
530.093765E-3
529.994774E-3
529.797363E-3
529.699516E-3
529.571342E-3
529.365349E-3
529.091835E-3
528.945351E-3
528.689003E-3
528.838921E-3
528.742218E-3
528.782845E-3
528.794861E-3
528.729057E-3
528.597450E-3
528.357124E-3
528.163147E-3
527.935982E-3
527.562904E-3
527.327156E-3
527.085686E-3
526.770401E-3
526.380730E-3
525.854301E-3
525.536156E-3
525.021172E-3
524.699593E-3
524.439812E-3
524.164581E-3
524.085617E-3
524.004936E-3
524.403191E-3
525.521278E-3
527.441597E-3
530.315208E-3
533.670616E-3
537.284660E-3
541.011429E-3
544.169998E-3
546.663094E-3
547.961426E-3
548.446655E-3
548.007202E-3
546.925163E-3
545.603371E-3
543.955994E-3
542.607880E-3
541.362190E-3
540.010071E-3
539.155769E-3
538.562965E-3
538.255119E-3
537.876892E-3
537.623405E-3
537.496376E-3
537.351036E-3
537.196541E-3
536.536789E-3
535.562897E-3
534.650230E-3
533.695793E-3
533.342171E-3
533.367920E-3
533.544159E-3
534.036255E-3
534.527206E-3
534.992981E-3
535.358620E-3
535.579491E-3
535.768890E-3
535.589218E-3
535.368919E-3
534.934044E-3
534.277725E-3
533.719254E-3
533.077240E-3
532.537079E-3
531.842422E-3
531.190109E-3
530.580139E-3
530.098343E-3
529.744148E-3
529.440880E-3
529.054070E-3
528.950500E-3
528.583717E-3
528.478432E-3
528.337669E-3
528.251839E-3
528.312492E-3
528.295898E-3
528.381729E-3
528.491592E-3
528.469849E-3
528.367996E-3
528.134537E-3
528.156853E-3
528.393173E-3
528.462410E-3
528.618050E-3
528.628349E-3
528.630638E-3
528.516769E-3
528.215790E-3
528.069878E-3
527.873611E-3
527.717400E-3
527.464485E-3
527.190399E-3
527.105713E-3
526.737785E-3
526.390457E-3
526.045418E-3
525.494957E-3
524.868393E-3
524.389458E-3
523.880768E-3
523.814964E-3
523.796082E-3
524.352264E-3
525.453758E-3
527.252197E-3
530.049133E-3
533.255768E-3
536.990547E-3
540.489578E-3
543.720818E-3
546.394730E-3
547.912788E-3
548.815155E-3
548.586845E-3
547.852135E-3
546.798134E-3
545.206833E-3
543.927956E-3
542.277718E-3
541.142464E-3
540.408897E-3
539.752579E-3
539.479637E-3
539.457893E-3
539.533424E-3
539.571762E-3
539.411545E-3
539.273643E-3
538.589859E-3
537.732697E-3
537.005997E-3
536.260414E-3
535.909081E-3
535.730553E-3
535.748291E-3
535.976028E-3
536.126518E-3
536.633492E-3
537.079239E-3
537.248611E-3
537.565613E-3
537.503242E-3
537.403679E-3
536.992264E-3
536.404037E-3
535.747719E-3
534.890556E-3
534.198761E-3
533.445740E-3
532.819748E-3
532.170296E-3
531.429291E-3
530.740929E-3
530.304337E-3
529.954147E-3
529.623413E-3
529.224586E-3
529.056358E-3
528.833771E-3
528.674698E-3
528.651237E-3
528.408623E-3
528.302765E-3
528.295326E-3
528.095055E-3
528.095627E-3
527.979469E-3
528.061295E-3
528.094482E-3
527.972031E-3
528.030968E-3
527.913094E-3
527.892494E-3
527.856445E-3
527.590370E-3
527.595520E-3
527.587509E-3
527.665901E-3
527.668190E-3
527.422714E-3
527.299118E-3
526.838493E-3
526.665688E-3
526.386452E-3
526.138687E-3
525.830841E-3
525.270081E-3
524.946213E-3
524.547386E-3
524.096489E-3
523.659325E-3
523.174667E-3
523.015022E-3
522.797585E-3
522.874832E-3
523.597527E-3
525.055504E-3
527.943993E-3
531.360626E-3
535.034180E-3
538.936615E-3
542.514038E-3
545.618248E-3
547.880745E-3
549.090958E-3
549.719238E-3
549.232864E-3
548.282433E-3
546.786690E-3
545.234299E-3
543.742561E-3
542.333221E-3
541.290665E-3
540.384293E-3
539.900208E-3
539.796638E-3
539.961433E-3
540.438080E-3
540.662384E-3
540.681839E-3
540.620041E-3
540.008926E-3
539.157486E-3
538.082886E-3
537.122726E-3
536.559677E-3
536.138535E-3
536.061287E-3
536.240959E-3
536.614037E-3
537.111282E-3
537.430000E-3
537.597656E-3
537.784195E-3
537.713242E-3
537.622261E-3
537.124443E-3
536.724472E-3
536.267853E-3
535.674477E-3
535.216141E-3
534.417915E-3
533.744431E-3
532.976532E-3
532.254982E-3
531.666756E-3
530.881119E-3
530.434799E-3
530.041122E-3
529.594231E-3
529.436302E-3
529.162216E-3
529.026031E-3
528.729630E-3
528.624344E-3
528.498459E-3
528.260422E-3
528.163147E-3
527.881050E-3
527.661896E-3
527.653885E-3
527.386665E-3
527.404404E-3
527.243042E-3
527.204704E-3
527.183533E-3
526.914597E-3
526.740646E-3
526.578140E-3
526.375008E-3
526.259422E-3
525.981331E-3
525.874901E-3
525.623131E-3
525.252342E-3
525.163078E-3
524.825478E-3
524.431229E-3
524.147987E-3
523.607254E-3
523.360634E-3
522.870255E-3
522.452545E-3
522.061157E-3
521.688652E-3
521.441460E-3
520.719910E-3
520.344543E-3
520.072746E-3
519.913673E-3
520.376015E-3
521.220016E-3
523.192406E-3
526.161003E-3
529.787636E-3
533.826828E-3
537.769890E-3
541.360474E-3
544.323349E-3
546.133232E-3
547.029305E-3
546.806145E-3
546.106339E-3
544.966507E-3
543.515396E-3
542.047691E-3
540.468979E-3
539.174652E-3
538.210487E-3
537.425995E-3
537.260056E-3
537.276077E-3
537.653732E-3
538.018799E-3
538.045692E-3
538.075447E-3
537.672043E-3
536.894417E-3
535.970879E-3
534.840202E-3
534.177589E-3
533.761597E-3
533.769035E-3
533.898926E-3
534.139824E-3
534.623337E-3
535.101700E-3
535.304260E-3
535.528564E-3
535.403252E-3
535.204697E-3
534.683990E-3
534.206200E-3
533.638000E-3
532.901001E-3
532.351112E-3
531.619835E-3
530.791855E-3
530.129814E-3
529.405403E-3
528.925896E-3
528.385162E-3
527.831841E-3
527.402687E-3
526.973534E-3
526.970673E-3
526.840210E-3
526.410484E-3
526.187897E-3
526.001358E-3
526.176453E-3
525.807381E-3
525.610542E-3
525.455475E-3
525.366211E-3
525.408554E-3
525.299263E-3
525.285530E-3
525.405121E-3
525.245476E-3
525.293541E-3
525.040627E-3
524.824333E-3
524.738503E-3
524.461555E-3
524.458122E-3
524.389458E-3
524.202347E-3
524.089050E-3
523.559761E-3
523.202705E-3
522.778130E-3
522.512627E-3
522.260284E-3
521.708107E-3
521.326447E-3
520.850945E-3
520.475578E-3
520.091057E-3
519.649315E-3
519.457626E-3
519.200706E-3
519.092560E-3
519.392395E-3
520.292473E-3
522.311783E-3
525.243759E-3
528.715324E-3
532.521057E-3
535.911942E-3
539.218712E-3
541.826248E-3
543.555450E-3
544.494438E-3
544.350815E-3
543.581200E-3
542.258263E-3
540.522766E-3
538.944626E-3
537.383080E-3
536.123657E-3
535.108566E-3
534.391022E-3
534.189034E-3
534.045410E-3
534.142685E-3
534.226799E-3
533.950424E-3
533.778191E-3
533.144188E-3
532.496452E-3
531.787491E-3
531.243896E-3
531.071663E-3
530.823898E-3
530.928040E-3
531.087685E-3
531.352615E-3
531.861877E-3
532.096481E-3
532.754517E-3
532.924461E-3
532.919884E-3
532.672691E-3
532.026100E-3
531.637573E-3
531.007576E-3
530.177879E-3
529.464912E-3
528.602028E-3
528.088760E-3
527.545166E-3
526.948357E-3
526.624489E-3
525.995064E-3
525.480652E-3
525.088120E-3
524.447250E-3
524.150848E-3
523.966599E-3
524.106789E-3
524.062157E-3
523.931694E-3
523.944283E-3
523.665619E-3
523.567200E-3
523.362350E-3
523.159790E-3
523.174667E-3
523.054504E-3
523.075676E-3
523.146629E-3
522.916031E-3
522.818184E-3
522.587585E-3
522.367287E-3
522.080612E-3
521.673775E-3
521.624565E-3
521.490669E-3
521.602249E-3
521.573639E-3
521.408844E-3
521.257210E-3
520.796013E-3
520.475006E-3
520.226669E-3
519.741440E-3
519.503403E-3
519.068527E-3
518.859100E-3
518.779564E-3
518.479156E-3
518.348122E-3
517.925835E-3
517.872620E-3
517.670059E-3
517.644310E-3
518.341827E-3
519.903946E-3
522.597885E-3
526.275444E-3
530.277443E-3
534.553528E-3
538.443375E-3
541.744995E-3
543.944550E-3
545.284081E-3
545.729828E-3
545.196533E-3
544.209480E-3
542.823601E-3
541.187668E-3
539.715385E-3
538.176155E-3
537.032890E-3
536.132240E-3
535.436440E-3
535.277939E-3
535.190392E-3
535.363770E-3
535.668182E-3
535.848999E-3
536.008072E-3
535.592079E-3
534.862518E-3
533.893204E-3
532.713318E-3
531.934547E-3
531.292534E-3
531.249046E-3
531.442451E-3
531.708527E-3
532.295036E-3
532.629204E-3
533.183670E-3
533.251190E-3
532.983398E-3
532.735634E-3
532.278442E-3
531.901932E-3
531.501961E-3
531.115150E-3
530.721474E-3
530.018234E-3
529.406548E-3
528.613472E-3
527.758598E-3
527.168083E-3
526.597595E-3
526.005363E-3
525.743866E-3
525.391388E-3
525.263214E-3
525.022316E-3
524.774551E-3
524.624634E-3
524.493599E-3
524.292183E-3
523.976326E-3
523.843575E-3
523.628426E-3
523.492813E-3
523.550034E-3
523.400116E-3
523.181534E-3
523.092842E-3
522.944069E-3
522.936630E-3
522.778702E-3
522.686577E-3
522.382736E-3
521.839142E-3
521.487808E-3
521.191978E-3
520.927620E-3
520.779419E-3
520.725632E-3
520.612907E-3
520.277023E-3
520.070457E-3
519.903374E-3
519.328880E-3
518.923187E-3
518.467712E-3
518.045425E-3
517.741585E-3
517.305565E-3
517.295837E-3
516.867256E-3
516.310501E-3
515.783501E-3
515.441895E-3
515.608978E-3
516.056442E-3
517.247200E-3
519.739723E-3
522.928619E-3
526.682281E-3
530.374146E-3
534.178162E-3
537.678337E-3
539.995766E-3
541.462898E-3
541.759300E-3
541.391945E-3
540.668678E-3
539.531708E-3
538.299179E-3
536.888695E-3
535.503960E-3
534.348106E-3
533.274651E-3
532.553101E-3
532.094765E-3
532.038689E-3
532.312775E-3
532.660103E-3
533.102989E-3
533.437729E-3
533.347893E-3
533.170509E-3
532.205200E-3
531.188393E-3
530.332375E-3
529.852295E-3
529.813385E-3
529.862022E-3
530.371857E-3
530.954933E-3
531.594658E-3
532.493591E-3
532.672691E-3
532.508469E-3
531.906509E-3
531.337738E-3
530.759811E-3
529.909515E-3
529.652023E-3
529.605103E-3
529.607391E-3
529.218292E-3
528.125381E-3
527.287674E-3
526.226234E-3
525.272942E-3
524.488449E-3
523.927116E-3
523.797798E-3
523.883057E-3
523.954582E-3
524.189758E-3
523.908234E-3
523.678207E-3
523.305702E-3
522.724915E-3
522.551537E-3
522.272873E-3
522.383308E-3
522.614479E-3
522.850800E-3
523.135185E-3
523.138618E-3
523.114586E-3
522.795296E-3
522.626495E-3
522.612762E-3
522.699738E-3
523.002434E-3
523.230171E-3
523.206711E-3
523.281097E-3
523.199272E-3
523.104286E-3
523.176956E-3
522.897720E-3
522.584724E-3
522.351265E-3
522.343826E-3
522.280884E-3
522.054291E-3
521.971893E-3
521.650314E-3
521.487808E-3
521.315002E-3
521.404266E-3
522.246552E-3
523.924255E-3
526.544380E-3
529.775620E-3
533.159637E-3
536.393738E-3
539.666176E-3
542.347527E-3
544.179726E-3
545.078659E-3
545.136452E-3
544.438362E-3
543.114281E-3
541.254044E-3
539.444160E-3
537.793350E-3
536.065292E-3
534.741211E-3
533.753014E-3
533.092117E-3
532.697868E-3
532.381439E-3
532.298470E-3
532.117653E-3
531.728554E-3
531.182671E-3
530.272865E-3
529.507828E-3
528.931046E-3
528.497887E-3
528.238106E-3
528.105927E-3
528.281021E-3
528.519058E-3
528.953934E-3
529.272079E-3
529.402542E-3
529.475784E-3
529.492950E-3
529.306984E-3
529.229736E-3
528.973389E-3
528.477287E-3
527.776337E-3
526.866531E-3
526.117516E-3
525.302124E-3
524.668121E-3
524.122238E-3
523.432732E-3
522.930908E-3
522.305489E-3
521.932983E-3
521.548462E-3
521.384811E-3
521.510696E-3
521.323586E-3
521.181679E-3
521.028900E-3
520.775986E-3
520.850372E-3
520.783997E-3
520.912743E-3
521.064949E-3
521.023750E-3
520.893288E-3
520.476151E-3
520.232964E-3
519.941139E-3
519.804955E-3
519.925117E-3
519.632721E-3
519.472504E-3
519.312286E-3
519.151497E-3
519.121170E-3
518.708611E-3
518.385315E-3
518.139267E-3
517.758179E-3
517.463493E-3
