Notes :


2023-11-13 ¿ÀÀü 12:08:38
Volts
Ch : LED 2,
1.005549E+0
1.005454E+0
1.005275E+0
1.005153E+0
1.005013E+0
1.004612E+0
1.004545E+0
1.004244E+0
1.003963E+0
1.003865E+0
1.003551E+0
1.003178E+0
1.002877E+0
1.002604E+0
1.001458E+0
1.001593E+0
1.001380E+0
1.001068E+0
1.000721E+0
1.000412E+0
1.000041E+0
999.595070E-3
999.283791E-3
999.882889E-3
999.101257E-3
998.681831E-3
998.401451E-3
998.010063E-3
997.627258E-3
997.478485E-3
997.355461E-3
997.303963E-3
997.357750E-3
997.282219E-3
997.104263E-3
997.087097E-3
997.235298E-3
997.169495E-3
997.164917E-3
996.988106E-3
996.854782E-3
996.977806E-3
996.682549E-3
996.546936E-3
996.402740E-3
996.101761E-3
995.949554E-3
995.868874E-3
995.809364E-3
995.803642E-3
995.728111E-3
995.950699E-3
996.333504E-3
997.328568E-3
998.867226E-3
1.000667E+0
1.003080E+0
1.004621E+0
1.007316E+0
1.009359E+0
1.010600E+0
1.011407E+0
1.011570E+0
1.011649E+0
1.011199E+0
1.010706E+0
1.010012E+0
1.009459E+0
1.008977E+0
1.008691E+0
1.008422E+0
1.008337E+0
1.008357E+0
1.008459E+0
1.008671E+0
1.009364E+0
1.009067E+0
1.009009E+0
1.008939E+0
1.008632E+0
1.007916E+0
1.007381E+0
1.006527E+0
1.005903E+0
1.005917E+0
1.005338E+0
1.005363E+0
1.005465E+0
1.005639E+0
1.005825E+0
1.005907E+0
1.006073E+0
1.006000E+0
1.005560E+0
1.005618E+0
1.005396E+0
1.005132E+0
1.004820E+0
1.004486E+0
1.004190E+0
1.003920E+0
1.003575E+0
1.003231E+0
1.002971E+0
1.002708E+0
1.002513E+0
1.002260E+0
1.002216E+0
1.001807E+0
1.001815E+0
1.001202E+0
1.001001E+0
1.000705E+0
1.000470E+0
1.000414E+0
1.000207E+0
1.000215E+0
999.981880E-3
999.666023E-3
999.745560E-3
999.401665E-3
999.472618E-3
999.458313E-3
999.233437E-3
999.201393E-3
999.244308E-3
999.183083E-3
998.697281E-3
998.980522E-3
999.052620E-3
999.011993E-3
998.977661E-3
998.940468E-3
998.785973E-3
998.765373E-3
998.693848E-3
999.090385E-3
998.604584E-3
998.212051E-3
998.103333E-3
997.806931E-3
997.855568E-3
997.665024E-3
997.520828E-3
997.267342E-3
997.052193E-3
996.916008E-3
997.082520E-3
997.310829E-3
998.320770E-3
999.631119E-3
1.001728E+0
1.004245E+0
1.006368E+0
1.008627E+0
1.010290E+0
1.011479E+0
1.012243E+0
1.012778E+0
1.012718E+0
1.012445E+0
1.011790E+0
1.011336E+0
1.010722E+0
1.010405E+0
1.009858E+0
1.009561E+0
1.009459E+0
1.009377E+0
1.009450E+0
1.009105E+0
1.009536E+0
1.009537E+0
1.009439E+0
1.009478E+0
1.008885E+0
1.008424E+0
1.007606E+0
1.006787E+0
1.006107E+0
1.005635E+0
1.005524E+0
1.005393E+0
1.005313E+0
1.005627E+0
1.005812E+0
1.005868E+0
1.006141E+0
1.006219E+0
1.006385E+0
1.006232E+0
1.006031E+0
1.006025E+0
1.005927E+0
1.006012E+0
1.006100E+0
1.005817E+0
1.005671E+0
1.005427E+0
1.005365E+0
1.005299E+0
1.005303E+0
1.005097E+0
1.005024E+0
1.005082E+0
1.004765E+0
1.004869E+0
1.004747E+0
1.004676E+0
1.004487E+0
1.004239E+0
1.004107E+0
1.003813E+0
1.003337E+0
1.003513E+0
1.003402E+0
1.003487E+0
1.003344E+0
1.003217E+0
1.003111E+0
1.002952E+0
1.002789E+0
1.001856E+0
1.002109E+0
1.002175E+0
1.001907E+0
1.001895E+0
1.001672E+0
1.001609E+0
1.001965E+0
1.001567E+0
1.001289E+0
1.001032E+0
1.000979E+0
1.000911E+0
1.000808E+0
1.000794E+0
1.000515E+0
1.000317E+0
1.000295E+0
999.989891E-3
999.736977E-3
999.544144E-3
999.370193E-3
999.399948E-3
999.413681E-3
999.733543E-3
1.000439E+0
1.001437E+0
1.003167E+0
1.005241E+0
1.007550E+0
1.009853E+0
1.011742E+0
1.013173E+0
1.014061E+0
1.014518E+0
1.014502E+0
1.014122E+0
1.013811E+0
1.012958E+0
1.012378E+0
1.011701E+0
1.010981E+0
1.010609E+0
1.009881E+0
1.009954E+0
1.010046E+0
1.009807E+0
1.009915E+0
1.009914E+0
1.009968E+0
1.010452E+0
1.009646E+0
1.009012E+0
1.008184E+0
1.007554E+0
1.006896E+0
1.006599E+0
1.006670E+0
1.006719E+0
1.007129E+0
1.007371E+0
1.007712E+0
1.008134E+0
1.008198E+0
1.008231E+0
1.008038E+0
1.007714E+0
1.007644E+0
1.007180E+0
1.006975E+0
1.006571E+0
1.006275E+0
1.005894E+0
1.005569E+0
1.005237E+0
1.005071E+0
1.004651E+0
1.004210E+0
1.004190E+0
1.003968E+0
1.003657E+0
1.003401E+0
1.003333E+0
1.003074E+0
1.002950E+0
1.002742E+0
1.001948E+0
1.002215E+0
1.001895E+0
1.001794E+0
1.001554E+0
1.001321E+0
1.001194E+0
1.000919E+0
1.000813E+0
1.000672E+0
1.000765E+0
1.000699E+0
1.000525E+0
1.000422E+0
1.000295E+0
1.000351E+0
1.000691E+0
1.000227E+0
1.000108E+0
1.000158E+0
1.000152E+0
1.000128E+0
1.000237E+0
1.000088E+0
1.000117E+0
999.644279E-3
999.173355E-3
998.698997E-3
998.730469E-3
998.615456E-3
998.686981E-3
998.585701E-3
998.559380E-3
998.918152E-3
999.608231E-3
1.000806E+0
1.002735E+0
1.004909E+0
1.007252E+0
1.009566E+0
1.011446E+0
1.012708E+0
1.013508E+0
1.013974E+0
1.013979E+0
1.013641E+0
1.013235E+0
1.012533E+0
1.011970E+0
1.011426E+0
1.010962E+0
1.010667E+0
1.010450E+0
1.010399E+0
1.010319E+0
1.010200E+0
1.010455E+0
1.010540E+0
1.010546E+0
1.009919E+0
1.009793E+0
1.009361E+0
1.008501E+0
1.007772E+0
1.006979E+0
1.006350E+0
1.006145E+0
1.005905E+0
1.005990E+0
1.006270E+0
1.006451E+0
1.006730E+0
1.006793E+0
1.007003E+0
1.006978E+0
1.006796E+0
1.006835E+0
1.006233E+0
1.006216E+0
1.006147E+0
1.005718E+0
1.005625E+0
1.005458E+0
1.005366E+0
1.005246E+0
1.005011E+0
1.005417E+0
1.004897E+0
1.004530E+0
1.004224E+0
1.003827E+0
1.003729E+0
1.003444E+0
1.003092E+0
1.002930E+0
1.002653E+0
1.002573E+0
1.002374E+0
1.002187E+0
1.002141E+0
1.001930E+0
1.001776E+0
1.001953E+0
1.001501E+0
1.001325E+0
1.001121E+0
1.001177E+0
1.001089E+0
1.001049E+0
1.001108E+0
1.001013E+0
1.001085E+0
1.000784E+0
1.000683E+0
1.000640E+0
1.000452E+0
1.000611E+0
1.000400E+0
1.000255E+0
1.000228E+0
1.000441E+0
1.000067E+0
999.868584E-3
999.613380E-3
999.672318E-3
999.312401E-3
999.191666E-3
999.005699E-3
998.757362E-3
999.429131E-3
998.550224E-3
998.524475E-3
998.352242E-3
998.397446E-3
999.118996E-3
999.581909E-3
1.001082E+0
1.002916E+0
1.005209E+0
1.007486E+0
1.009585E+0
1.011431E+0
1.012768E+0
1.013119E+0
1.013761E+0
1.012856E+0
1.013222E+0
1.012852E+0
1.012417E+0
1.011776E+0
1.011166E+0
1.010693E+0
1.010078E+0
1.009925E+0
1.009984E+0
1.010085E+0
1.010430E+0
1.010398E+0
1.010459E+0
1.010585E+0
1.010310E+0
1.010008E+0
1.009172E+0
1.008566E+0
1.007851E+0
1.007172E+0
1.006675E+0
1.006407E+0
1.006399E+0
1.006503E+0
1.006556E+0
1.006914E+0
1.007162E+0
1.007327E+0
1.007436E+0
1.006324E+0
1.006983E+0
1.007252E+0
1.007132E+0
1.007076E+0
1.006802E+0
1.006626E+0
1.006370E+0
1.006109E+0
1.006427E+0
1.005924E+0
1.005668E+0
1.005772E+0
1.005461E+0
1.005341E+0
1.005207E+0
1.005306E+0
1.004898E+0
1.005541E+0
1.004737E+0
1.004255E+0
1.004050E+0
1.003932E+0
1.003669E+0
1.003585E+0
1.003156E+0
1.003010E+0
1.002738E+0
1.002444E+0
1.002243E+0
1.001950E+0
1.001727E+0
1.001510E+0
1.001376E+0
1.001392E+0
1.001213E+0
1.001157E+0
1.001092E+0
1.001034E+0
1.000974E+0
1.000673E+0
1.000737E+0
1.000571E+0
1.000290E+0
1.000339E+0
1.000167E+0
1.000187E+0
1.000238E+0
1.000115E+0
1.000054E+0
999.903488E-3
999.640846E-3
998.933029E-3
998.914146E-3
998.951912E-3
998.908997E-3
998.922157E-3
998.911285E-3
998.967361E-3
999.476051E-3
1.000403E+0
1.001691E+0
1.004007E+0
1.006149E+0
1.008517E+0
1.010458E+0
1.012077E+0
1.013044E+0
1.013373E+0
1.013700E+0
1.013513E+0
1.013135E+0
1.012656E+0
1.011855E+0
1.011384E+0
1.010835E+0
1.010403E+0
1.010215E+0
1.010060E+0
1.009942E+0
1.009937E+0
1.010024E+0
1.010134E+0
1.010089E+0
1.009868E+0
1.009469E+0
1.009363E+0
1.008334E+0
1.007524E+0
1.006994E+0
1.006621E+0
1.006566E+0
1.006623E+0
1.006736E+0
1.007045E+0
1.006129E+0
1.007156E+0
1.007533E+0
1.007740E+0
1.007743E+0
1.006583E+0
1.007003E+0
1.006783E+0
1.006558E+0
1.006217E+0
1.005672E+0
1.005606E+0
1.005406E+0
1.005196E+0
1.004293E+0
1.004550E+0
1.004526E+0
1.004264E+0
1.004099E+0
1.003883E+0
1.003649E+0
1.003570E+0
1.003368E+0
1.003481E+0
1.003093E+0
1.002561E+0
1.002393E+0
1.002110E+0
1.001953E+0
1.001939E+0
1.001710E+0
1.001692E+0
1.001407E+0
1.001455E+0
1.001527E+0
1.001534E+0
1.001429E+0
1.001263E+0
1.001196E+0
1.001166E+0
1.000917E+0
1.001119E+0
1.000761E+0
1.000511E+0
1.000636E+0
1.000323E+0
1.000340E+0
1.000080E+0
999.806786E-3
999.982452E-3
999.846268E-3
999.822807E-3
999.629974E-3
999.266052E-3
999.181366E-3
998.979378E-3
998.814011E-3
998.982239E-3
998.549652E-3
998.443222E-3
998.563385E-3
998.945045E-3
999.846840E-3
1.001158E+0
1.003304E+0
1.005599E+0
1.007570E+0
1.010160E+0
1.011860E+0
1.013551E+0
1.014330E+0
1.014720E+0
1.014403E+0
1.013973E+0
1.013375E+0
1.012632E+0
1.012001E+0
1.011512E+0
1.010921E+0
1.010611E+0
1.010333E+0
1.010342E+0
1.010217E+0
1.010274E+0
1.009903E+0
1.010193E+0
1.010342E+0
1.010138E+0
1.009839E+0
1.009356E+0
1.008636E+0
1.008010E+0
1.007241E+0
1.006821E+0
1.006423E+0
1.006146E+0
1.006252E+0
1.006347E+0
1.006417E+0
1.006579E+0
1.006142E+0
1.006551E+0
1.006574E+0
1.006636E+0
1.006674E+0
1.006506E+0
1.006416E+0
1.006329E+0
1.006099E+0
1.006500E+0
1.005973E+0
1.005569E+0
1.005534E+0
1.005286E+0
1.005212E+0
1.005001E+0
1.004823E+0
1.004663E+0
1.004350E+0
1.004265E+0
1.003978E+0
1.003836E+0
1.003575E+0
1.003242E+0
1.003080E+0
1.002810E+0
1.002844E+0
1.001876E+0
1.002065E+0
1.002073E+0
1.001938E+0
1.001903E+0
1.002196E+0
1.001527E+0
1.001372E+0
1.001158E+0
1.001083E+0
1.001167E+0
1.001046E+0
1.001129E+0
1.000964E+0
1.000768E+0
1.000794E+0
1.000478E+0
1.000504E+0
1.000330E+0
1.000254E+0
1.000210E+0
1.000166E+0
1.000140E+0
1.000336E+0
1.000013E+0
999.992752E-3
999.918365E-3
999.772453E-3
999.542999E-3
999.354172E-3
999.048615E-3
998.707008E-3
998.761940E-3
998.297882E-3
998.237801E-3
998.225784E-3
998.345375E-3
998.700142E-3
999.933815E-3
1.001661E+0
1.004034E+0
1.006306E+0
1.008880E+0
1.011244E+0
1.013144E+0
1.014377E+0
1.014296E+0
1.015083E+0
1.015136E+0
1.014762E+0
1.014186E+0
1.013461E+0
1.012901E+0
1.012227E+0
1.011808E+0
1.011452E+0
1.011124E+0
1.011088E+0
1.011113E+0
1.011178E+0
1.011337E+0
1.011371E+0
1.011629E+0
1.011348E+0
1.010480E+0
1.010476E+0
1.009824E+0
1.009188E+0
1.008506E+0
1.007970E+0
1.007947E+0
1.007609E+0
1.007728E+0
1.008048E+0
1.007909E+0
1.008045E+0
1.007840E+0
1.007949E+0
1.007921E+0
1.007656E+0
1.007740E+0
1.007395E+0
1.007411E+0
1.007223E+0
1.006920E+0
1.006890E+0
1.006693E+0
1.006435E+0
1.006162E+0
1.005923E+0
1.005907E+0
1.005608E+0
1.005507E+0
1.005307E+0
1.005151E+0
1.005024E+0
1.004802E+0
1.004703E+0
1.004503E+0
1.004356E+0
1.004208E+0
1.003876E+0
1.003744E+0
1.003708E+0
1.003592E+0
1.003389E+0
1.003195E+0
1.003376E+0
1.003177E+0
1.002962E+0
1.002898E+0
1.002857E+0
1.002849E+0
1.002775E+0
1.002617E+0
1.002599E+0
1.002184E+0
1.002420E+0
1.002433E+0
1.002460E+0
1.002543E+0
1.002576E+0
1.002554E+0
1.002406E+0
1.002177E+0
1.002238E+0
1.001780E+0
1.001675E+0
1.001471E+0
1.001187E+0
1.001066E+0
1.000808E+0
1.000998E+0
1.000514E+0
1.000298E+0
1.000170E+0
999.979019E-3
1.000004E+0
1.000320E+0
1.000993E+0
1.002517E+0
1.004545E+0
1.006937E+0
1.009321E+0
1.011397E+0
1.013124E+0
1.014220E+0
1.015131E+0
1.015224E+0
1.015011E+0
1.014972E+0
1.013913E+0
1.013243E+0
1.012388E+0
1.011724E+0
1.011261E+0
1.010852E+0
1.010613E+0
1.010528E+0
1.010666E+0
1.010458E+0
1.010383E+0
1.010235E+0
1.010170E+0
1.009665E+0
1.009165E+0
1.008418E+0
1.007753E+0
1.007402E+0
1.006938E+0
1.006602E+0
1.006661E+0
1.006606E+0
1.006793E+0
1.006817E+0
1.007311E+0
1.007295E+0
1.007378E+0
1.007449E+0
1.007211E+0
1.007192E+0
1.007053E+0
1.006890E+0
1.006645E+0
1.005660E+0
1.005854E+0
1.005655E+0
1.005661E+0
1.005241E+0
1.005128E+0
1.004903E+0
1.004613E+0
1.004471E+0
1.004697E+0
1.004383E+0
1.004169E+0
1.003927E+0
1.003685E+0
1.003404E+0
1.003199E+0
1.003082E+0
1.002849E+0
1.003025E+0
1.002712E+0
1.002283E+0
1.002201E+0
1.002003E+0
1.001887E+0
1.001721E+0
1.001576E+0
1.001493E+0
1.001323E+0
1.001501E+0
1.001455E+0
1.001550E+0
1.001559E+0
1.001491E+0
1.001355E+0
1.001416E+0
1.001264E+0
1.001287E+0
1.001221E+0
1.001141E+0
1.001099E+0
1.000952E+0
1.000955E+0
1.000861E+0
1.000698E+0
1.000703E+0
1.000418E+0
1.000203E+0
1.000011E+0
999.763298E-3
999.503517E-3
999.230576E-3
999.019432E-3
999.273491E-3
999.078941E-3
998.993111E-3
1.000024E+0
1.001959E+0
1.003928E+0
1.006562E+0
1.009039E+0
1.011208E+0
1.013404E+0
1.014287E+0
1.014885E+0
1.014835E+0
1.014616E+0
1.014135E+0
1.013525E+0
1.012878E+0
1.012134E+0
1.011437E+0
1.011057E+0
1.010557E+0
1.010368E+0
1.010340E+0
1.010506E+0
1.010592E+0
1.010417E+0
1.010486E+0
1.010531E+0
1.010371E+0
1.010326E+0
1.009709E+0
1.009068E+0
1.008543E+0
1.007562E+0
1.007149E+0
1.006801E+0
1.006716E+0
1.006772E+0
1.006933E+0
1.007309E+0
1.007550E+0
1.007454E+0
1.007666E+0
1.007688E+0
1.007695E+0
1.007626E+0
1.007461E+0
1.007339E+0
1.007116E+0
1.007045E+0
1.006569E+0
1.006592E+0
1.006467E+0
1.006341E+0
1.006172E+0
1.005844E+0
1.005632E+0
1.005273E+0
1.004799E+0
1.004590E+0
1.004237E+0
1.004186E+0
1.004138E+0
1.003829E+0
1.003760E+0
1.003542E+0
1.003844E+0
1.003315E+0
1.002845E+0
1.002740E+0
1.002331E+0
1.002044E+0
1.001792E+0
1.001558E+0
1.001432E+0
1.001214E+0
1.001315E+0
1.001229E+0
1.001209E+0
1.001246E+0
1.001038E+0
1.001010E+0
1.000957E+0
