Notes :


2023-10-26 ¿ÀÈÄ 10:39:03
Volts
Ch : LED 2,
395.313835E-3
393.289948E-3
391.753006E-3
387.749290E-3
385.382080E-3
381.283379E-3
377.533150E-3
375.010300E-3
373.009872E-3
373.614120E-3
373.421288E-3
373.770905E-3
375.683212E-3
376.274872E-3
378.575706E-3
379.223442E-3
379.298973E-3
379.800224E-3
379.438591E-3
380.407906E-3
379.901505E-3
378.773117E-3
378.762817E-3
377.681351E-3
378.463554E-3
378.474426E-3
378.520775E-3
380.489159E-3
380.787277E-3
383.172798E-3
383.864594E-3
383.644295E-3
384.471703E-3
383.422852E-3
384.051132E-3
383.237457E-3
382.213211E-3
382.597733E-3
381.802940E-3
382.895279E-3
382.975960E-3
382.485580E-3
383.937263E-3
383.777618E-3
385.620689E-3
385.879898E-3
385.483360E-3
386.922455E-3
386.588287E-3
388.011932E-3
387.958145E-3
386.890984E-3
388.365555E-3
387.938690E-3
389.030457E-3
389.182663E-3
388.506889E-3
389.393234E-3
388.775826E-3
389.881897E-3
389.930534E-3
389.077950E-3
390.258408E-3
389.408112E-3
390.475845E-3
390.310478E-3
389.606667E-3
390.975380E-3
390.146828E-3
391.118431E-3
391.069221E-3
390.281296E-3
391.942978E-3
391.041183E-3
392.009354E-3
392.107773E-3
391.503525E-3
393.146324E-3
392.102051E-3
392.890549E-3
393.067932E-3
391.533852E-3
393.709946E-3
392.748070E-3
393.521690E-3
393.557167E-3
392.811012E-3
394.646645E-3
393.554878E-3
394.113922E-3
394.021797E-3
393.435860E-3
395.307541E-3
394.565392E-3
395.182228E-3
395.347023E-3
394.910431E-3
396.711731E-3
395.530128E-3
396.253395E-3
396.218491E-3
394.034386E-3
396.225357E-3
394.429779E-3
393.300247E-3
390.752220E-3
385.900497E-3
383.959007E-3
379.139900E-3
376.075745E-3
373.641586E-3
371.585083E-3
372.710037E-3
371.759605E-3
373.114014E-3
374.580002E-3
375.042343E-3
377.706528E-3
377.085114E-3
378.026962E-3
378.421211E-3
377.461052E-3
378.821754E-3
377.035332E-3
376.854515E-3
376.545525E-3
375.310135E-3
376.689148E-3
375.407410E-3
376.416779E-3
377.554321E-3
378.020096E-3
381.034470E-3
380.812454E-3
381.986618E-3
382.519341E-3
382.007790E-3
383.295250E-3
381.572914E-3
381.635284E-3
381.469345E-3
380.772972E-3
382.260704E-3
381.073380E-3
382.010078E-3
382.805443E-3
381.726837E-3
384.388733E-3
383.599091E-3
384.634781E-3
385.314560E-3
385.083961E-3
387.125587E-3
385.958290E-3
386.678696E-3
387.086105E-3
386.856079E-3
388.450813E-3
387.288094E-3
388.108635E-3
388.276291E-3
387.708092E-3
389.330864E-3
388.157845E-3
388.772964E-3
388.918877E-3
388.548088E-3
389.959145E-3
388.518333E-3
389.160919E-3
389.383507E-3
387.981606E-3
390.210342E-3
389.535141E-3
389.911079E-3
390.205193E-3
389.231873E-3
391.208839E-3
390.384865E-3
390.745354E-3
391.106987E-3
390.787697E-3
392.358971E-3
391.446877E-3
391.862297E-3
392.215347E-3
391.582489E-3
393.070221E-3
392.052841E-3
392.508888E-3
392.602730E-3
392.338371E-3
393.780327E-3
392.463112E-3
392.897415E-3
393.212128E-3
392.803001E-3
394.401169E-3
393.435287E-3
393.939972E-3
394.379997E-3
393.906212E-3
395.559311E-3
394.596863E-3
395.314980E-3
395.389366E-3
394.643211E-3
395.813370E-3
394.416046E-3
393.279648E-3
391.284943E-3
387.598801E-3
385.291100E-3
380.494881E-3
376.936913E-3
374.027252E-3
371.667480E-3
372.215652E-3
371.339607E-3
372.256279E-3
373.743439E-3
374.415779E-3
377.083397E-3
377.095985E-3
378.081322E-3
379.053497E-3
378.371429E-3
379.443169E-3
378.008652E-3
377.553749E-3
377.137184E-3
376.343536E-3
377.509689E-3
376.748085E-3
377.502823E-3
378.739929E-3
379.312706E-3
381.905365E-3
381.672478E-3
382.184601E-3
382.476425E-3
381.671333E-3
382.383156E-3
380.850220E-3
380.468559E-3
380.839920E-3
378.386307E-3
380.836487E-3
380.600166E-3
381.303406E-3
382.172585E-3
381.958580E-3
384.051132E-3
383.670616E-3
384.217644E-3
385.150337E-3
383.585358E-3
385.780907E-3
385.450745E-3
385.957718E-3
385.902214E-3
385.303688E-3
387.027168E-3
386.579132E-3
386.947632E-3
387.290382E-3
385.971451E-3
387.779617E-3
387.141609E-3
387.553024E-3
387.629700E-3
386.828041E-3
388.617897E-3
388.169289E-3
388.044548E-3
388.774109E-3
387.615395E-3
389.080811E-3
388.704300E-3
388.549232E-3
389.507103E-3
388.389587E-3
389.912224E-3
389.706230E-3
389.707375E-3
390.303612E-3
389.249039E-3
390.697861E-3
390.257263E-3
390.275574E-3
390.732193E-3
389.769745E-3
391.101837E-3
390.775681E-3
390.894127E-3
391.589928E-3
390.688705E-3
392.473412E-3
392.254257E-3
392.280006E-3
392.822456E-3
392.042542E-3
393.559456E-3
393.126869E-3
392.815018E-3
393.336296E-3
392.004776E-3
393.000984E-3
391.238594E-3
388.893127E-3
386.292458E-3
381.211853E-3
378.750229E-3
374.519920E-3
371.187401E-3
369.610405E-3
367.539597E-3
369.093704E-3
369.324303E-3
370.024109E-3
372.070885E-3
372.130394E-3
374.983978E-3
375.325012E-3
375.550461E-3
376.159859E-3
375.109291E-3
376.502609E-3
375.549889E-3
374.592590E-3
374.784851E-3
373.471642E-3
375.333595E-3
375.437164E-3
376.087189E-3
377.736282E-3
377.882767E-3
380.379868E-3
380.237389E-3
379.896927E-3
380.208206E-3
378.806877E-3
379.951286E-3
379.049492E-3
378.213501E-3
378.519630E-3
377.747726E-3
379.649734E-3
379.606819E-3
379.592514E-3
380.704308E-3
380.328369E-3
382.383156E-3
382.289886E-3
382.082748E-3
383.062935E-3
383.068657E-3
384.796143E-3
384.516907E-3
384.199333E-3
385.118866E-3
384.558678E-3
386.036682E-3
385.611534E-3
385.129166E-3
385.993195E-3
385.437584E-3
386.709595E-3
386.424065E-3
385.964012E-3
386.543083E-3
386.131096E-3
387.430573E-3
386.873817E-3
386.573982E-3
387.399673E-3
386.862373E-3
388.240814E-3
387.773323E-3
386.826324E-3
387.842560E-3
387.473488E-3
388.801003E-3
388.687134E-3
388.245392E-3
389.067078E-3
388.715744E-3
390.264130E-3
389.898491E-3
389.298248E-3
390.153694E-3
389.363480E-3
390.632057E-3
390.268707E-3
389.912796E-3
390.179443E-3
389.681053E-3
391.285515E-3
391.118431E-3
390.506744E-3
391.502953E-3
390.885544E-3
392.281723E-3
392.052269E-3
391.894913E-3
392.857361E-3
392.161560E-3
393.404388E-3
392.918587E-3
392.152405E-3
392.381859E-3
390.345383E-3
389.279938E-3
385.725975E-3
380.229950E-3
377.271652E-3
372.650528E-3
370.400047E-3
367.650032E-3
365.579224E-3
366.102219E-3
365.730858E-3
368.070602E-3
369.324303E-3
369.870186E-3
371.735573E-3
371.732140E-3
373.393822E-3
373.465919E-3
372.666550E-3
372.883415E-3
371.624565E-3
372.256851E-3
371.495247E-3
370.290756E-3
371.083260E-3
370.576859E-3
372.412491E-3
373.207283E-3
373.993492E-3
376.117516E-3
376.631355E-3
378.222084E-3
378.246117E-3
377.398109E-3
377.878189E-3
376.912308E-3
377.499962E-3
377.028465E-3
376.009369E-3
377.258492E-3
376.769257E-3
377.998352E-3
378.297043E-3
377.976608E-3
379.722977E-3
379.488373E-3
380.879402E-3
381.076813E-3
380.688858E-3
382.278442E-3
381.501961E-3
382.689857E-3
383.112144E-3
382.518768E-3
384.215927E-3
383.102417E-3
384.046555E-3
384.119225E-3
383.419418E-3
385.055351E-3
384.051132E-3
384.720039E-3
384.809875E-3
384.204483E-3
385.766602E-3
384.643364E-3
385.499954E-3
385.336304E-3
384.692001E-3
386.405182E-3
385.311699E-3
386.133957E-3
386.329079E-3
385.584068E-3
387.459183E-3
386.443520E-3
387.067223E-3
387.255478E-3
386.673546E-3
388.571548E-3
387.315559E-3
388.041687E-3
388.276291E-3
387.500954E-3
389.024162E-3
387.760735E-3
388.376999E-3
388.805580E-3
388.212204E-3
389.944839E-3
388.834190E-3
389.355469E-3
389.785194E-3
389.336014E-3
391.137886E-3
389.919090E-3
390.662956E-3
390.942192E-3
390.336227E-3
391.880608E-3
390.645218E-3
390.873528E-3
390.583992E-3
388.706589E-3
388.391876E-3
384.241676E-3
380.917168E-3
377.099991E-3
372.348404E-3
370.516205E-3
366.576004E-3
365.548897E-3
365.619278E-3
365.829277E-3
368.505478E-3
368.411064E-3
370.208931E-3
371.579933E-3
371.968460E-3
374.065590E-3
372.836494E-3
373.253059E-3
372.950363E-3
372.072601E-3
373.077965E-3
371.261787E-3
371.777916E-3
372.140694E-3
372.126961E-3
374.701881E-3
374.776840E-3
376.593590E-3
377.694511E-3
377.710533E-3
379.285240E-3
377.619553E-3
377.497673E-3
376.998138E-3
375.936699E-3
376.758385E-3
375.306702E-3
375.765038E-3
376.427650E-3
376.288033E-3
378.264427E-3
377.750015E-3
378.660965E-3
379.534721E-3
378.683281E-3
381.031036E-3
380.290031E-3
381.243324E-3
381.616402E-3
381.473351E-3
382.992554E-3
382.128525E-3
382.648087E-3
383.012009E-3
382.534218E-3
383.989334E-3
382.846642E-3
383.280945E-3
383.612823E-3
383.240891E-3
384.613037E-3
383.598518E-3
383.890343E-3
384.213638E-3
383.833694E-3
385.248756E-3
384.269714E-3
384.665680E-3
385.113144E-3
383.268929E-3
385.564041E-3
384.923172E-3
385.486794E-3
385.787201E-3
385.540581E-3
386.910439E-3
385.983467E-3
386.281013E-3
386.500168E-3
385.250473E-3
387.356758E-3
386.805725E-3
387.387657E-3
387.628555E-3
387.088394E-3
388.671684E-3
387.904930E-3
388.409042E-3
388.806725E-3
388.470840E-3
390.034676E-3
389.172363E-3
389.556885E-3
389.877892E-3
389.217567E-3
390.507317E-3
389.337158E-3
388.754654E-3
387.622261E-3
384.459114E-3
382.645226E-3
377.506828E-3
373.615837E-3
369.340897E-3
364.582443E-3
365.151215E-3
363.272667E-3
363.483238E-3
364.691162E-3
365.252495E-3
367.875481E-3
368.221664E-3
369.647026E-3
370.563698E-3
370.239830E-3
371.652031E-3
370.619202E-3
370.333672E-3
370.267296E-3
367.711258E-3
369.558334E-3
369.005013E-3
369.314575E-3
370.650101E-3
371.126175E-3
374.014091E-3
374.377441E-3
375.411987E-3
376.364136E-3
375.785637E-3
376.841354E-3
375.742149E-3
375.364494E-3
375.160217E-3
373.940277E-3
375.292969E-3
374.598885E-3
374.837494E-3
375.811958E-3
375.205421E-3
377.408409E-3
377.236176E-3
377.865028E-3
378.879547E-3
378.248405E-3
380.413055E-3
379.970741E-3
380.419922E-3
381.318283E-3
380.183601E-3
382.059288E-3
381.697655E-3
381.671333E-3
382.452393E-3
381.443596E-3
382.935905E-3
382.570839E-3
382.325935E-3
383.224297E-3
382.085037E-3
383.802223E-3
383.339882E-3
383.428001E-3
384.175301E-3
383.014297E-3
384.644508E-3
384.326935E-3
384.227943E-3
384.623337E-3
383.463478E-3
385.478210E-3
385.219002E-3
385.114861E-3
385.843277E-3
385.075951E-3
386.599159E-3
386.239815E-3
386.275291E-3
386.824608E-3
385.847855E-3
387.380219E-3
386.977959E-3
387.120438E-3
387.542725E-3
386.668968E-3
388.090897E-3
387.504959E-3
387.600517E-3
388.123512E-3
387.422562E-3
389.215279E-3
388.795280E-3
388.759232E-3
389.518547E-3
388.541222E-3
390.402603E-3
390.140533E-3
389.912224E-3
390.226936E-3
389.024162E-3
390.202332E-3
388.386154E-3
385.958862E-3
383.449173E-3
378.376007E-3
375.564766E-3
371.015739E-3
366.926765E-3
364.694595E-3
361.989784E-3
363.207436E-3
363.192558E-3
363.979340E-3
365.831566E-3
365.986061E-3
369.017029E-3
369.206429E-3
369.211006E-3
370.052719E-3
368.916893E-3
369.983482E-3
368.887711E-3
367.924118E-3
368.066597E-3
366.771126E-3
368.363571E-3
368.314934E-3
368.543243E-3
370.477295E-3
371.194839E-3
374.001503E-3
374.600601E-3
374.912453E-3
375.866890E-3
375.228882E-3
376.003647E-3
375.184822E-3
374.233246E-3
374.513626E-3
373.800659E-3
375.052071E-3
374.860954E-3
374.691582E-3
375.785065E-3
375.720406E-3
377.582359E-3
377.681923E-3
377.688789E-3
378.671837E-3
378.586578E-3
380.331230E-3
380.313492E-3
379.526711E-3
380.710030E-3
380.506325E-3
381.911087E-3
381.876755E-3
381.622124E-3
382.350540E-3
381.855011E-3
383.164787E-3
382.635498E-3
382.227516E-3
383.066940E-3
382.468987E-3
384.015656E-3
383.643723E-3
382.931900E-3
383.622551E-3
383.161354E-3
384.557533E-3
384.297180E-3
383.757591E-3
384.405899E-3
384.305763E-3
385.591507E-3
385.233307E-3
385.005569E-3
385.907936E-3
385.515976E-3
386.770248E-3
386.676979E-3
386.226654E-3
387.070656E-3
386.309624E-3
387.385941E-3
387.419128E-3
386.318779E-3
386.959076E-3
386.775398E-3
388.072586E-3
388.086891E-3
387.664032E-3
388.173866E-3
387.928963E-3
389.440155E-3
389.411545E-3
388.776398E-3
390.037537E-3
389.456749E-3
390.675545E-3
390.428925E-3
389.506531E-3
390.287590E-3
389.035606E-3
389.077377E-3
386.746788E-3
383.014870E-3
380.262566E-3
375.281525E-3
372.247696E-3
368.726349E-3
365.625000E-3
365.331459E-3
364.403915E-3
366.112518E-3
367.359352E-3
368.039703E-3
370.484161E-3
371.087265E-3
373.057938E-3
373.481369E-3
372.790718E-3
373.401833E-3
372.508621E-3
372.980690E-3
372.454834E-3
370.589447E-3
371.772766E-3
371.628571E-3
373.318863E-3
374.291611E-3
374.901009E-3
376.923752E-3
377.275085E-3
378.611183E-3
378.522491E-3
377.247047E-3
377.848434E-3
376.460838E-3
376.884842E-3
376.324654E-3
375.135612E-3
376.560402E-3
376.083183E-3
377.459908E-3
378.163147E-3
377.993774E-3
380.109787E-3
379.605103E-3
380.879402E-3
381.306267E-3
380.791855E-3
382.666969E-3
381.922531E-3
382.879257E-3
383.135605E-3
382.445526E-3
384.218216E-3
383.294678E-3
383.902359E-3
383.853149E-3
383.231163E-3
384.863663E-3
383.948708E-3
384.568405E-3
384.548950E-3
382.947922E-3
385.363197E-3
384.488297E-3
385.321999E-3
385.716820E-3
384.019089E-3
386.172867E-3
385.316849E-3
385.892487E-3
386.233521E-3
385.538864E-3
387.245178E-3
386.295319E-3
387.157059E-3
387.384224E-3
386.068726E-3
388.254547E-3
387.180519E-3
387.829399E-3
388.090897E-3
386.218643E-3
388.707733E-3
387.632561E-3
388.358688E-3
388.909721E-3
388.419342E-3
390.333939E-3
389.136887E-3
389.779472E-3
390.163422E-3
389.742279E-3
391.625404E-3
390.557671E-3
391.165352E-3
391.359329E-3
390.809441E-3
392.127800E-3
389.773750E-3
388.731766E-3
386.464691E-3
382.529640E-3
380.116653E-3
374.573135E-3
371.125603E-3
368.110657E-3
365.357208E-3
365.695381E-3
364.472008E-3
365.636444E-3
367.309570E-3
368.365860E-3
371.173096E-3
370.910454E-3
372.284317E-3
372.982407E-3
372.421646E-3
373.950005E-3
372.422791E-3
372.204781E-3
371.800232E-3
371.072388E-3
372.265434E-3
371.062660E-3
371.950722E-3
373.186684E-3
374.123383E-3
376.775551E-3
376.648521E-3
377.580643E-3
378.278160E-3
377.768898E-3
378.828621E-3
377.194405E-3
377.054214E-3
376.892853E-3
376.170731E-3
377.704239E-3
376.660538E-3
377.300262E-3
378.032684E-3
377.988625E-3
380.113792E-3
379.463196E-3
380.368996E-3
381.095695E-3
381.208420E-3
383.179092E-3
382.248116E-3
383.106995E-3
383.492661E-3
383.172226E-3
384.550095E-3
383.679771E-3
384.196472E-3
383.858871E-3
383.879471E-3
385.566902E-3
384.508896E-3
385.053635E-3
385.483932E-3
384.991837E-3
386.464119E-3
385.491371E-3
385.878181E-3
386.264420E-3
385.772896E-3
387.088394E-3
386.082458E-3
386.329651E-3
386.962509E-3
386.393166E-3
388.044548E-3
387.230301E-3
387.479210E-3
387.711525E-3
387.144470E-3
388.617325E-3
387.800789E-3
387.986755E-3
388.556099E-3
387.959862E-3
389.458466E-3
388.837624E-3
389.223289E-3
390.026665E-3
389.377213E-3
391.054916E-3
390.457535E-3
391.062927E-3
391.504669E-3
390.895271E-3
392.222786E-3
391.315842E-3
391.268921E-3
391.269493E-3
389.198112E-3
388.439941E-3
384.425926E-3
380.935478E-3
377.037048E-3
371.819115E-3
369.731712E-3
