Notes :


2023-11-04 ¿ÀÈÄ 10:06:38
Volts
Ch : LED 2,
643.828011E-3
643.653488E-3
643.383980E-3
643.116188E-3
642.845535E-3
642.539978E-3
642.195511E-3
641.996956E-3
641.420746E-3
641.265106E-3
640.880013E-3
640.471458E-3
640.192795E-3
639.871216E-3
639.557076E-3
639.339066E-3
639.113045E-3
638.883018E-3
638.561440E-3
638.251877E-3
637.998962E-3
637.368965E-3
637.059975E-3
636.316681E-3
635.794830E-3
635.200310E-3
634.459877E-3
633.907700E-3
633.268547E-3
632.801056E-3
632.459450E-3
632.829094E-3
634.636116E-3
637.653923E-3
641.462517E-3
645.978928E-3
650.815773E-3
655.637741E-3
659.594536E-3
662.472153E-3
664.121246E-3
664.566994E-3
663.950729E-3
662.328529E-3
660.211945E-3
657.814407E-3
655.563927E-3
653.269386E-3
651.116180E-3
649.390411E-3
647.943306E-3
646.827507E-3
646.168900E-3
645.627594E-3
645.137215E-3
644.737244E-3
644.191933E-3
643.580246E-3
642.741966E-3
642.048454E-3
641.389847E-3
640.993881E-3
640.992165E-3
641.152382E-3
641.407013E-3
642.080498E-3
642.649269E-3
643.542480E-3
644.203377E-3
644.825935E-3
645.308876E-3
645.597267E-3
645.917130E-3
646.034431E-3
645.988083E-3
645.936012E-3
645.693398E-3
645.542336E-3
645.170403E-3
644.944954E-3
644.750977E-3
644.427681E-3
644.452286E-3
644.069481E-3
643.893242E-3
643.915558E-3
643.700981E-3
643.792534E-3
643.645477E-3
643.628311E-3
643.507004E-3
643.532753E-3
643.565941E-3
643.525314E-3
643.354225E-3
643.315315E-3
643.232346E-3
643.236923E-3
643.144226E-3
643.076134E-3
642.992592E-3
642.795753E-3
642.773437E-3
642.578316E-3
642.612076E-3
642.622948E-3
642.474174E-3
642.216110E-3
642.114258E-3
641.991234E-3
641.702843E-3
641.273689E-3
640.993881E-3
640.511513E-3
639.985085E-3
639.484406E-3
638.928223E-3
638.580322E-3
638.509369E-3
639.290428E-3
641.448212E-3
644.974136E-3
649.405289E-3
654.151726E-3
659.080696E-3
663.649178E-3
667.165375E-3
669.556618E-3
670.498466E-3
670.113945E-3
668.853378E-3
666.676712E-3
664.435959E-3
661.758614E-3
659.119606E-3
657.110596E-3
655.120468E-3
653.796959E-3
652.592468E-3
651.709557E-3
651.073837E-3
650.424957E-3
650.091934E-3
649.436188E-3
648.474312E-3
647.354507E-3
646.241570E-3
645.441628E-3
644.884300E-3
644.643402E-3
644.630814E-3
644.718361E-3
644.990158E-3
645.319748E-3
645.843315E-3
646.211815E-3
646.375465E-3
646.356583E-3
646.103096E-3
645.764351E-3
645.196152E-3
644.689751E-3
643.706703E-3
642.544556E-3
641.430473E-3
640.295219E-3
639.248657E-3
638.389206E-3
637.493706E-3
636.855698E-3
636.245728E-3
635.591125E-3
635.217476E-3
634.683609E-3
634.323120E-3
633.950043E-3
633.470535E-3
633.455658E-3
633.031654E-3
632.744408E-3
632.443428E-3
632.065201E-3
631.822014E-3
631.480980E-3
631.313324E-3
631.142807E-3
631.011200E-3
630.832100E-3
630.589485E-3
630.495071E-3
630.297089E-3
629.886246E-3
629.560089E-3
629.154396E-3
628.764153E-3
628.040314E-3
627.660942E-3
627.259254E-3
626.778603E-3
626.371765E-3
625.923157E-3
625.658798E-3
625.733757E-3
626.626968E-3
629.027367E-3
632.403946E-3
636.651993E-3
641.562080E-3
646.370888E-3
650.772858E-3
654.430389E-3
656.686592E-3
657.899666E-3
657.574654E-3
656.445694E-3
654.536247E-3
652.112389E-3
649.815559E-3
647.334480E-3
645.255089E-3
643.412590E-3
641.862488E-3
640.805054E-3
639.892960E-3
639.307594E-3
638.869286E-3
638.447571E-3
637.924576E-3
637.120056E-3
636.198807E-3
635.198593E-3
634.317970E-3
633.754921E-3
633.430481E-3
633.322906E-3
633.689690E-3
634.031296E-3
634.574318E-3
634.923363E-3
635.372543E-3
635.730743E-3
635.789680E-3
635.623169E-3
635.394859E-3
635.056686E-3
634.633255E-3
634.071922E-3
633.271408E-3
632.573891E-3
631.840324E-3
631.000328E-3
630.015564E-3
629.390144E-3
628.591919E-3
627.938461E-3
627.483559E-3
626.954269E-3
626.694489E-3
626.416969E-3
626.173210E-3
625.945473E-3
625.534058E-3
625.270271E-3
624.869156E-3
624.502373E-3
624.373055E-3
623.897552E-3
623.642921E-3
623.403168E-3
623.296165E-3
623.135948E-3
622.897911E-3
622.821808E-3
622.631836E-3
622.364044E-3
622.116852E-3
621.690559E-3
621.340370E-3
620.879745E-3
620.566750E-3
620.260620E-3
620.019722E-3
619.821167E-3
619.480133E-3
619.041824E-3
618.639565E-3
617.948914E-3
617.452240E-3
616.929245E-3
616.565323E-3
616.856003E-3
618.086815E-3
620.856857E-3
624.770737E-3
629.461670E-3
634.618950E-3
639.591980E-3
644.059753E-3
647.495842E-3
649.493980E-3
650.340271E-3
649.835587E-3
648.504639E-3
646.487617E-3
644.195366E-3
641.872787E-3
639.703560E-3
637.945175E-3
636.468315E-3
635.069275E-3
634.118843E-3
633.229065E-3
632.718658E-3
632.342148E-3
631.999969E-3
631.708145E-3
631.064415E-3
630.352592E-3
629.450798E-3
628.798485E-3
628.372192E-3
628.012848E-3
628.042603E-3
628.042030E-3
628.162193E-3
628.430557E-3
628.409386E-3
628.917503E-3
629.140091E-3
629.287148E-3
629.315758E-3
628.916359E-3
628.774452E-3
628.284645E-3
627.741051E-3
627.313042E-3
626.358604E-3
625.489998E-3
624.645996E-3
623.871231E-3
623.195457E-3
622.538567E-3
622.058487E-3
621.732903E-3
621.422768E-3
621.279716E-3
621.132088E-3
620.986748E-3
620.734978E-3
620.536995E-3
620.499229E-3
620.249748E-3
619.991684E-3
620.001984E-3
619.639206E-3
619.562531E-3
619.450378E-3
619.498444E-3
619.643211E-3
619.676971E-3
619.919014E-3
619.924164E-3
620.099831E-3
619.971085E-3
619.898987E-3
619.761658E-3
619.668961E-3
619.602585E-3
619.616890E-3
619.479561E-3
619.580841E-3
619.539642E-3
619.532204E-3
619.343376E-3
619.100189E-3
618.873596E-3
618.405533E-3
618.145180E-3
617.495155E-3
617.326927E-3
617.863655E-3
619.192314E-3
622.115707E-3
626.247597E-3
631.249809E-3
636.703491E-3
641.976929E-3
646.425247E-3
650.121117E-3
652.356148E-3
653.229904E-3
652.600479E-3
651.208878E-3
649.292564E-3
646.907616E-3
644.653130E-3
642.425537E-3
640.746689E-3
639.254951E-3
637.946892E-3
637.071991E-3
636.324120E-3
635.932732E-3
635.589409E-3
635.354805E-3
635.125923E-3
634.557724E-3
633.881378E-3
633.239937E-3
632.954407E-3
632.848549E-3
633.019638E-3
633.436203E-3
633.914566E-3
634.523964E-3
635.171127E-3
635.690689E-3
636.278915E-3
636.716652E-3
636.800194E-3
636.859703E-3
636.746979E-3
636.510086E-3
635.989952E-3
635.382271E-3
634.779167E-3
633.939171E-3
633.214188E-3
632.508659E-3
631.659508E-3
631.298447E-3
630.614662E-3
630.109978E-3
629.747200E-3
629.325485E-3
628.994751E-3
628.729820E-3
628.423691E-3
628.254318E-3
627.859497E-3
627.710152E-3
627.323914E-3
627.129364E-3
626.754570E-3
626.347160E-3
626.278496E-3
626.052475E-3
625.888824E-3
625.761223E-3
625.590706E-3
625.419044E-3
625.108910E-3
624.949837E-3
624.667168E-3
624.427414E-3
624.176788E-3
623.703003E-3
623.039818E-3
622.595215E-3
622.047043E-3
621.635628E-3
621.037102E-3
620.601082E-3
620.102692E-3
619.583130E-3
619.131088E-3
618.573761E-3
618.909073E-3
620.133591E-3
622.570038E-3
626.061058E-3
630.237007E-3
634.921074E-3
639.334488E-3
643.215179E-3
645.727730E-3
647.226334E-3
647.583961E-3
646.754837E-3
645.191574E-3
643.157387E-3
640.958405E-3
638.555145E-3
636.458588E-3
634.355164E-3
632.723808E-3
631.162834E-3
630.059624E-3
629.401016E-3
628.812218E-3
628.396225E-3
627.789688E-3
627.225494E-3
626.402092E-3
625.449944E-3
624.889183E-3
624.549294E-3
624.561882E-3
624.758148E-3
625.128937E-3
626.121140E-3
626.677322E-3
627.504158E-3
628.076935E-3
628.368187E-3
628.647423E-3
628.588486E-3
628.252602E-3
627.800560E-3
626.980019E-3
626.632118E-3
626.029015E-3
625.408173E-3
624.682045E-3
624.024010E-3
623.550224E-3
622.945404E-3
622.389793E-3
622.243309E-3
621.608734E-3
621.103477E-3
620.613098E-3
620.383072E-3
620.204544E-3
619.932175E-3
619.907570E-3
619.707298E-3
619.843483E-3
619.702148E-3
619.483566E-3
619.457817E-3
619.393730E-3
619.151115E-3
619.088173E-3
618.937111E-3
618.985748E-3
618.585205E-3
618.665886E-3
618.610954E-3
618.519402E-3
618.645859E-3
618.457603E-3
618.432426E-3
618.314552E-3
618.003845E-3
618.053055E-3
617.657661E-3
617.276001E-3
617.008781E-3
616.427994E-3
616.104126E-3
615.605164E-3
615.139389E-3
614.881325E-3
614.622688E-3
614.734840E-3
615.379143E-3
617.321777E-3
620.431709E-3
624.550438E-3
629.402733E-3
634.421539E-3
639.166832E-3
643.099022E-3
645.814133E-3
647.401428E-3
647.616005E-3
646.836090E-3
645.292854E-3
643.346786E-3
641.223907E-3
638.933945E-3
636.912346E-3
635.112190E-3
633.693695E-3
632.756424E-3
632.076073E-3
631.696129E-3
631.561089E-3
631.583977E-3
631.381416E-3
630.964851E-3
630.481339E-3
629.744911E-3
628.950691E-3
628.441429E-3
627.974510E-3
627.823448E-3
627.935028E-3
628.149033E-3
628.643990E-3
628.910637E-3
629.328346E-3
629.677391E-3
629.804993E-3
629.778671E-3
629.609871E-3
629.167557E-3
628.874588E-3
628.438568E-3
627.778244E-3
627.114487E-3
626.529121E-3
625.834465E-3
625.077438E-3
624.379349E-3
623.946190E-3
623.200607E-3
622.673035E-3
622.156906E-3
621.925735E-3
621.688271E-3
621.443367E-3
621.535492E-3
621.313477E-3
621.199036E-3
620.945549E-3
620.717239E-3
620.337868E-3
620.107841E-3
619.949341E-3
619.724464E-3
619.729042E-3
619.831467E-3
619.903564E-3
620.137024E-3
620.198822E-3
620.225716E-3
620.249176E-3
620.157623E-3
620.178223E-3
620.071793E-3
620.045471E-3
619.951630E-3
619.878960E-3
619.852066E-3
619.762802E-3
619.737053E-3
619.666100E-3
619.391441E-3
619.275856E-3
618.844986E-3
618.356895E-3
618.155479E-3
617.918015E-3
618.068504E-3
618.758011E-3
620.830536E-3
624.161911E-3
628.643417E-3
633.703423E-3
638.879013E-3
643.714142E-3
647.683525E-3
650.283623E-3
651.740456E-3
651.831436E-3
650.937653E-3
649.210739E-3
647.391701E-3
645.577812E-3
643.627167E-3
642.003822E-3
640.597916E-3
639.414024E-3
638.530540E-3
637.939453E-3
637.432480E-3
637.330055E-3
637.216187E-3
637.207603E-3
636.813927E-3
636.228561E-3
635.755348E-3
635.028076E-3
634.660149E-3
634.437561E-3
634.526825E-3
634.808350E-3
635.206604E-3
635.842323E-3
636.439705E-3
636.932373E-3
637.222481E-3
637.544632E-3
637.675095E-3
637.414742E-3
637.158394E-3
636.741257E-3
635.959625E-3
635.343933E-3
634.525108E-3
633.675385E-3
633.116341E-3
632.435989E-3
631.962204E-3
631.575394E-3
631.297874E-3
631.011772E-3
630.709076E-3
630.549431E-3
630.233002E-3
630.145454E-3
630.027580E-3
629.756927E-3
629.758072E-3
629.600716E-3
629.502296E-3
629.537773E-3
629.395294E-3
629.512596E-3
629.448509E-3
629.415321E-3
629.364395E-3
629.202461E-3
629.182434E-3
629.012489E-3
628.831673E-3
628.696060E-3
628.328133E-3
628.358459E-3
628.167915E-3
628.080940E-3
627.663803E-3
627.145386E-3
626.774597E-3
626.176643E-3
625.563812E-3
625.250816E-3
624.532700E-3
624.046898E-3
623.469543E-3
623.099899E-3
622.927094E-3
623.054123E-3
624.261475E-3
626.533699E-3
630.016136E-3
634.329987E-3
638.824654E-3
643.318176E-3
647.134781E-3
649.927711E-3
651.510429E-3
651.808548E-3
650.980568E-3
649.474525E-3
647.439766E-3
645.378113E-3
643.066978E-3
640.930939E-3
638.920212E-3
637.310028E-3
635.819435E-3
634.959412E-3
634.243584E-3
633.784676E-3
633.451653E-3
633.082008E-3
632.517242E-3
631.804848E-3
630.990028E-3
630.447006E-3
630.034447E-3
629.879951E-3
630.148888E-3
630.676460E-3
631.336784E-3
632.189369E-3
632.919502E-3
633.667946E-3
634.290504E-3
634.278488E-3
634.259605E-3
633.921432E-3
633.590698E-3
632.960701E-3
632.284355E-3
631.621170E-3
630.821228E-3
630.381203E-3
629.623604E-3
628.946686E-3
628.326416E-3
627.798843E-3
627.448654E-3
626.876450E-3
626.458740E-3
626.220131E-3
625.614166E-3
625.571823E-3
625.584412E-3
625.460243E-3
625.421906E-3
625.360680E-3
625.366402E-3
625.167847E-3
624.961281E-3
624.887466E-3
624.607658E-3
624.478912E-3
624.329567E-3
624.276924E-3
624.224854E-3
623.999977E-3
623.953629E-3
623.953056E-3
623.858643E-3
623.833466E-3
623.581123E-3
623.451805E-3
623.246956E-3
623.007202E-3
622.877884E-3
622.428131E-3
622.471619E-3
622.341156E-3
622.091675E-3
622.036171E-3
621.648216E-3
621.339226E-3
620.896912E-3
620.435715E-3
620.053482E-3
619.786835E-3
619.799423E-3
620.558739E-3
622.544289E-3
625.967789E-3
630.185509E-3
635.337639E-3
640.558434E-3
645.121193E-3
649.122620E-3
651.694107E-3
653.029633E-3
652.959824E-3
651.860046E-3
650.375175E-3
648.410797E-3
646.391487E-3
644.454002E-3
642.624092E-3
641.120338E-3
639.835167E-3
639.131355E-3
638.504791E-3
638.120270E-3
637.935448E-3
637.736893E-3
637.728882E-3
637.246513E-3
636.540413E-3
635.943604E-3
635.064697E-3
634.447861E-3
634.061050E-3
633.839035E-3
634.005547E-3
634.035301E-3
634.423828E-3
634.683609E-3
634.984589E-3
635.115051E-3
635.098457E-3
635.070419E-3
634.943390E-3
634.606361E-3
634.200668E-3
633.660507E-3
633.092308E-3
632.447433E-3
631.654358E-3
630.824089E-3
630.106544E-3
629.445648E-3
628.803062E-3
628.339005E-3
627.903557E-3
627.444649E-3
627.171135E-3
626.972008E-3
626.784897E-3
626.753426E-3
626.487350E-3
626.540565E-3
626.581192E-3
626.289368E-3
626.101685E-3
625.855064E-3
625.698280E-3
625.583267E-3
625.503731E-3
625.555229E-3
625.512314E-3
625.587273E-3
625.558662E-3
625.442505E-3
625.521469E-3
625.281143E-3
625.150108E-3
625.072861E-3
624.851418E-3
624.952126E-3
624.943542E-3
625.038528E-3
625.187302E-3
625.153542E-3
625.232506E-3
625.125504E-3
625.027657E-3
624.933815E-3
624.620247E-3
624.368477E-3
624.068069E-3
623.851204E-3
623.560524E-3
623.278999E-3
623.185158E-3
623.246956E-3
623.830605E-3
625.242233E-3
627.737045E-3
631.610870E-3
636.147308E-3
641.191292E-3
646.220970E-3
650.661278E-3
653.927422E-3
655.821991E-3
656.722641E-3
656.445122E-3
655.394554E-3
653.764915E-3
651.771927E-3
649.824715E-3
647.864342E-3
646.039581E-3
644.864273E-3
643.719864E-3
642.926216E-3
642.569733E-3
642.365456E-3
642.370033E-3
642.213249E-3
642.138290E-3
641.698265E-3
640.977859E-3
640.492630E-3
639.824295E-3
639.505577E-3
639.506149E-3
639.602280E-3
640.104103E-3
640.421677E-3
640.989876E-3
641.420174E-3
641.655350E-3
641.868782E-3
641.820717E-3
641.637611E-3
641.429329E-3
641.036224E-3
640.674019E-3
640.084648E-3
639.865494E-3
638.994598E-3
638.267899E-3
637.622452E-3
636.843681E-3
636.327553E-3
635.733604E-3
635.267830E-3
635.067558E-3
634.642982E-3
634.486771E-3
634.425545E-3
634.349442E-3
634.435844E-3
634.360313E-3
634.193802E-3
633.820724E-3
633.792686E-3
633.836746E-3
633.645058E-3
633.753777E-3
633.694267E-3
633.658791E-3
633.664513E-3
633.696556E-3
633.603287E-3
633.806992E-3
633.698273E-3
633.739471E-3
633.559799E-3
633.385277E-3
633.218193E-3
632.974434E-3
632.911491E-3
632.964706E-3
632.696915E-3
632.645988E-3
632.591057E-3
632.607651E-3
632.470894E-3
632.369614E-3
632.089806E-3
631.744194E-3
631.410599E-3
630.869865E-3
630.394936E-3
630.016136E-3
629.560661E-3
629.229927E-3
628.883743E-3
628.703499E-3
628.607941E-3
628.297234E-3
629.082870E-3
630.670166E-3
633.637047E-3
637.538338E-3
642.024994E-3
646.730232E-3
