Notes :


2023-10-25 ¿ÀÈÄ 11:38:53
Volts
Ch : LED 2,
334.794044E-3
334.590340E-3
335.413170E-3
335.012054E-3
335.917282E-3
335.508156E-3
335.287285E-3
336.219978E-3
335.870934E-3
336.750984E-3
336.468887E-3
336.007690E-3
336.618805E-3
335.773087E-3
336.770439E-3
336.294937E-3
336.520958E-3
336.927223E-3
336.007118E-3
336.655998E-3
336.539841E-3
336.587906E-3
337.031364E-3
336.173058E-3
337.382126E-3
337.193298E-3
337.101746E-3
337.718010E-3
337.454796E-3
338.329697E-3
338.500786E-3
338.127708E-3
338.522530E-3
337.831306E-3
338.943672E-3
338.611794E-3
338.544846E-3
338.813210E-3
338.059616E-3
339.175415E-3
338.582611E-3
338.508224E-3
339.182281E-3
338.184357E-3
339.134216E-3
338.973999E-3
338.604355E-3
339.226913E-3
338.478470E-3
339.636612E-3
339.085579E-3
338.956261E-3
339.505005E-3
338.837242E-3
339.752769E-3
338.984299E-3
338.971138E-3
339.958763E-3
339.269829E-3
340.336418E-3
340.161324E-3
339.797974E-3
340.112114E-3
339.002037E-3
339.955902E-3
338.202667E-3
337.597847E-3
337.041092E-3
335.099602E-3
335.116768E-3
333.907127E-3
332.763863E-3
332.616234E-3
331.087303E-3
332.215118E-3
332.087517E-3
331.543350E-3
332.196808E-3
331.527901E-3
332.731247E-3
332.675171E-3
332.814789E-3
333.339500E-3
332.597923E-3
334.023285E-3
333.714294E-3
333.336639E-3
333.510590E-3
333.387566E-3
334.849548E-3
335.019493E-3
334.293938E-3
334.933090E-3
333.849907E-3
335.216331E-3
335.117912E-3
334.426689E-3
334.786606E-3
333.976364E-3
335.347366E-3
334.728241E-3
334.134293E-3
334.816360E-3
333.970642E-3
335.199738E-3
335.061264E-3
334.775734E-3
335.338783E-3
334.986877E-3
335.783958E-3
335.883522E-3
335.718727E-3
336.163902E-3
335.559082E-3
336.675453E-3
336.422539E-3
335.876656E-3
336.833382E-3
336.051178E-3
337.259102E-3
336.998749E-3
336.357307E-3
337.103462E-3
336.382484E-3
337.597275E-3
337.450218E-3
336.754990E-3
336.829948E-3
336.388779E-3
337.455368E-3
336.887741E-3
336.716080E-3
337.382126E-3
336.639977E-3
337.679672E-3
337.574387E-3
337.405014E-3
338.020134E-3
337.355232E-3
338.589478E-3
338.450432E-3
338.055038E-3
338.425255E-3
337.815857E-3
338.662720E-3
338.345718E-3
337.021065E-3
337.128639E-3
335.484123E-3
335.666084E-3
334.394073E-3
333.133507E-3
332.888603E-3
331.610870E-3
332.312965E-3
331.599998E-3
330.940819E-3
331.649208E-3
331.281853E-3
332.413101E-3
331.911278E-3
331.472397E-3
332.361603E-3
331.880379E-3
332.896042E-3
332.939529E-3
332.649422E-3
333.100891E-3
333.011627E-3
333.883667E-3
333.827019E-3
333.484268E-3
334.570885E-3
334.059906E-3
335.078430E-3
334.700203E-3
334.297943E-3
334.623528E-3
334.134293E-3
334.926796E-3
334.854698E-3
334.089661E-3
334.787178E-3
334.070778E-3
335.300446E-3
335.028076E-3
334.886169E-3
335.368538E-3
334.652710E-3
335.749626E-3
335.735321E-3
335.230637E-3
336.217117E-3
335.690117E-3
336.690331E-3
336.173630E-3
336.078072E-3
336.808205E-3
336.443138E-3
337.461090E-3
337.534904E-3
336.709213E-3
337.318611E-3
336.919212E-3
337.928009E-3
337.806702E-3
337.073708E-3
337.654495E-3
336.819649E-3
337.401009E-3
337.708282E-3
337.075424E-3
337.699127E-3
336.963844E-3
338.042450E-3
338.050461E-3
337.262535E-3
338.028717E-3
337.518883E-3
338.749123E-3
338.583183E-3
338.146019E-3
339.026070E-3
338.569450E-3
339.161110E-3
339.059830E-3
338.394928E-3
339.063263E-3
337.738609E-3
337.674522E-3
336.520958E-3
334.772301E-3
334.463882E-3
332.933235E-3
332.629967E-3
332.070923E-3
330.936813E-3
331.256676E-3
330.550003E-3
331.369972E-3
331.343079E-3
330.327415E-3
331.475258E-3
331.122780E-3
332.106400E-3
332.410812E-3
332.062912E-3
332.872009E-3
332.465744E-3
332.833099E-3
332.921791E-3
332.597923E-3
333.451653E-3
333.211899E-3
333.535194E-3
334.141731E-3
333.585548E-3
333.857918E-3
333.461380E-3
334.673882E-3
334.395790E-3
333.712006E-3
334.288216E-3
333.495140E-3
334.344292E-3
334.346581E-3
333.522606E-3
334.424400E-3
334.004974E-3
335.035515E-3
335.006905E-3
334.172630E-3
335.132790E-3
334.957123E-3
335.744476E-3
335.551643E-3
334.434700E-3
335.452652E-3
335.276413E-3
336.210251E-3
336.582184E-3
335.798264E-3
336.738968E-3
336.316681E-3
337.137794E-3
337.166405E-3
335.943031E-3
337.134361E-3
336.736107E-3
337.434196E-3
337.707710E-3
337.072563E-3
337.462807E-3
336.711502E-3
337.788963E-3
337.216759E-3
336.820221E-3
337.664795E-3
337.069702E-3
337.700272E-3
337.709999E-3
337.318611E-3
338.132286E-3
337.487411E-3
338.030434E-3
338.268471E-3
337.585831E-3
337.925720E-3
337.596703E-3
338.499641E-3
338.070488E-3
337.179565E-3
337.049103E-3
335.527611E-3
335.149956E-3
334.252167E-3
332.612801E-3
332.142448E-3
330.886459E-3
331.364822E-3
330.922508E-3
329.367256E-3
330.205536E-3
329.639626E-3
330.514526E-3
331.055832E-3
330.643845E-3
331.381989E-3
330.708504E-3
331.419754E-3
331.833458E-3
330.938530E-3
332.089806E-3
331.396866E-3
332.391930E-3
333.067703E-3
332.382774E-3
332.900620E-3
332.336426E-3
333.294296E-3
333.219337E-3
332.658577E-3
333.230209E-3
332.741547E-3
333.307457E-3
333.150673E-3
332.353592E-3
333.221054E-3
332.420540E-3
333.227921E-3
333.525467E-3
332.843399E-3
333.961487E-3
333.256531E-3
333.971786E-3
334.236145E-3
333.555222E-3
334.488487E-3
334.176636E-3
334.290504E-3
335.064697E-3
334.289360E-3
335.511017E-3
334.718513E-3
335.188293E-3
335.302162E-3
334.681892E-3
335.379982E-3
335.096169E-3
335.496140E-3
335.984230E-3
335.187149E-3
335.944176E-3
335.433769E-3
335.895538E-3
335.938454E-3
335.406876E-3
336.143875E-3
335.124207E-3
335.781097E-3
336.349297E-3
335.820580E-3
336.646843E-3
336.001396E-3
336.390495E-3
336.454010E-3
336.101532E-3
337.389565E-3
336.571312E-3
337.112617E-3
337.437630E-3
336.238861E-3
337.061691E-3
335.934448E-3
335.559654E-3
334.368896E-3
332.534409E-3
333.143806E-3
331.279564E-3
330.930519E-3
330.698204E-3
329.652214E-3
330.821800E-3
329.809570E-3
329.968643E-3
330.384636E-3
329.845619E-3
331.234932E-3
330.713654E-3
331.245232E-3
331.639481E-3
329.962349E-3
331.815147E-3
331.507301E-3
332.110405E-3
332.336426E-3
331.981087E-3
333.687973E-3
332.700348E-3
333.463097E-3
333.408165E-3
332.702637E-3
333.812141E-3
332.881165E-3
333.302879E-3
333.147240E-3
332.649422E-3
333.916855E-3
332.933807E-3
332.905197E-3
333.581543E-3
332.992744E-3
334.319687E-3
333.328629E-3
333.798981E-3
334.132004E-3
333.604431E-3
334.943962E-3
334.139442E-3
334.420395E-3
335.072708E-3
334.782028E-3
335.924149E-3
335.065269E-3
335.322189E-3
335.651779E-3
334.970856E-3
336.525536E-3
335.565948E-3
335.927010E-3
335.870934E-3
335.675812E-3
337.049103E-3
336.159897E-3
336.193085E-3
336.597633E-3
335.974503E-3
337.110901E-3
335.944176E-3
335.997963E-3
336.747551E-3
336.336708E-3
337.622452E-3
336.466026E-3
336.712074E-3
337.577248E-3
336.646843E-3
337.834167E-3
336.857414E-3
337.202454E-3
337.787247E-3
337.211037E-3
338.360023E-3
336.999321E-3
336.746407E-3
336.412811E-3
334.830093E-3
335.045815E-3
332.714653E-3
332.073212E-3
331.366539E-3
330.160332E-3
331.173134E-3
329.142952E-3
329.221344E-3
329.677391E-3
328.908920E-3
330.253601E-3
329.675674E-3
330.325699E-3
330.832100E-3
330.228424E-3
331.719589E-3
330.269051E-3
330.671310E-3
331.779671E-3
330.981445E-3
332.195091E-3
331.394005E-3
331.905556E-3
332.201958E-3
331.663513E-3
333.161545E-3
331.918144E-3
332.147026E-3
332.653999E-3
332.005692E-3
333.105469E-3
331.990814E-3
332.296371E-3
332.540703E-3
331.933594E-3
333.416748E-3
332.191086E-3
332.259178E-3
332.741547E-3
332.328987E-3
333.916855E-3
333.275414E-3
333.588409E-3
334.246445E-3
333.655357E-3
334.443283E-3
333.645630E-3
334.356880E-3
334.969711E-3
334.006691E-3
335.660362E-3
334.741974E-3
334.877014E-3
335.520172E-3
335.072708E-3
336.046028E-3
335.065269E-3
335.309601E-3
336.032295E-3
335.146523E-3
336.393356E-3
335.145378E-3
335.313606E-3
335.845184E-3
335.203743E-3
336.375046E-3
335.359383E-3
335.293579E-3
336.073494E-3
334.942245E-3
336.570740E-3
335.550499E-3
335.947037E-3
336.738968E-3
336.330986E-3
337.521172E-3
336.423111E-3
336.375618E-3
337.181854E-3
335.101891E-3
336.617661E-3
335.529327E-3
334.958839E-3
334.723091E-3
332.231712E-3
332.601929E-3
330.671310E-3
330.065346E-3
329.603577E-3
327.140808E-3
328.720093E-3
327.888680E-3
327.609444E-3
328.129578E-3
327.894402E-3
329.222488E-3
328.589058E-3
328.542709E-3
329.502296E-3
329.024506E-3
330.385780E-3
329.749489E-3
330.089378E-3
329.900551E-3
329.756355E-3
331.159401E-3
330.422974E-3
330.740547E-3
331.406021E-3
330.884743E-3
332.112694E-3
331.415176E-3
331.030655E-3
331.539917E-3
330.986023E-3
331.798553E-3
330.670738E-3
330.909920E-3
331.252098E-3
330.645561E-3
331.886101E-3
331.014633E-3
331.222916E-3
331.916428E-3
331.420326E-3
332.841110E-3
331.864929E-3
332.353592E-3
332.359886E-3
332.176781E-3
333.230209E-3
332.801056E-3
332.712936E-3
333.043671E-3
332.473183E-3
334.227562E-3
333.319473E-3
333.648491E-3
334.073067E-3
333.330917E-3
334.480476E-3
333.965492E-3
333.654213E-3
334.381485E-3
333.637047E-3
334.440422E-3
333.854485E-3
333.805847E-3
334.372902E-3
333.685112E-3
335.052109E-3
333.874512E-3
334.213829E-3
334.668159E-3
333.939171E-3
335.242653E-3
334.463882E-3
334.717369E-3
334.903336E-3
334.568024E-3
335.528755E-3
334.486198E-3
334.073067E-3
333.785820E-3
332.318115E-3
332.550430E-3
330.781746E-3
329.790115E-3
328.979874E-3
327.878380E-3
328.945541E-3
327.408600E-3
327.280998E-3
327.715302E-3
327.210045E-3
328.447723E-3
327.933311E-3
328.593063E-3
329.051399E-3
327.192307E-3
329.520035E-3
329.108620E-3
329.512024E-3
329.726601E-3
329.437065E-3
331.035233E-3
330.420685E-3
330.814362E-3
330.942535E-3
330.636406E-3
331.919289E-3
331.147385E-3
330.991745E-3
331.312752E-3
330.805206E-3
331.994247E-3
330.706787E-3
330.545998E-3
331.103897E-3
329.992104E-3
331.494141E-3
330.801201E-3
330.874443E-3
331.677246E-3
331.372261E-3
332.664871E-3
331.985092E-3
331.541634E-3
332.524109E-3
331.869507E-3
333.120346E-3
332.763290E-3
332.854843E-3
333.411026E-3
332.784462E-3
333.757210E-3
333.290291E-3
333.385277E-3
334.311676E-3
333.343506E-3
334.560585E-3
333.709145E-3
333.971214E-3
334.039879E-3
333.426476E-3
334.515953E-3
333.997536E-3
333.880806E-3
334.788895E-3
334.027290E-3
334.725380E-3
334.252167E-3
334.036446E-3
334.700775E-3
334.110260E-3
335.428619E-3
334.469604E-3
334.539986E-3
335.017204E-3
334.391785E-3
335.287857E-3
334.911919E-3
334.388924E-3
334.425545E-3
331.996536E-3
332.191086E-3
330.574608E-3
329.255676E-3
329.145813E-3
325.926590E-3
327.677536E-3
326.617813E-3
326.543999E-3
327.066422E-3
326.436424E-3
327.559090E-3
327.071571E-3
327.274132E-3
328.062630E-3
327.436638E-3
328.547859E-3
328.007698E-3
327.984810E-3
328.912354E-3
326.400948E-3
328.469467E-3
328.507805E-3
328.858566E-3
329.525757E-3
329.021645E-3
330.255890E-3
330.051613E-3
329.936028E-3
329.491997E-3
329.025078E-3
330.246735E-3
329.940605E-3
329.573250E-3
330.226135E-3
329.403305E-3
330.606079E-3
329.766655E-3
329.875374E-3
331.134796E-3
330.205536E-3
331.279564E-3
330.567741E-3
330.848694E-3
331.515884E-3
329.687119E-3
331.504440E-3
331.600571E-3
331.648064E-3
332.680893E-3
331.597137E-3
332.835960E-3
332.555008E-3
332.151031E-3
332.982445E-3
332.250595E-3
332.983589E-3
332.916641E-3
332.728386E-3
333.295441E-3
332.299805E-3
333.072853E-3
332.885170E-3
332.605934E-3
333.205032E-3
332.636833E-3
333.533478E-3
333.259392E-3
332.735825E-3
333.197021E-3
332.817650E-3
333.942604E-3
333.428764E-3
333.543777E-3
334.177780E-3
333.221626E-3
334.368324E-3
334.244728E-3
333.344078E-3
333.455086E-3
332.083511E-3
332.101250E-3
330.376053E-3
329.324341E-3
328.908920E-3
327.420616E-3
327.552223E-3
326.585197E-3
326.051331E-3
326.103401E-3
325.188446E-3
326.209831E-3
326.206970E-3
325.926590E-3
326.850700E-3
326.070786E-3
327.127647E-3
326.855278E-3
327.110481E-3
327.216339E-3
326.402664E-3
327.796555E-3
327.742195E-3
327.920151E-3
328.851700E-3
327.908707E-3
328.840828E-3
328.796196E-3
328.499794E-3
328.832817E-3
327.941895E-3
328.793907E-3
328.274345E-3
328.079224E-3
328.349304E-3
327.611160E-3
328.711510E-3
328.292084E-3
328.586197E-3
328.839684E-3
328.414536E-3
329.423332E-3
328.782463E-3
328.689194E-3
329.546928E-3
328.902054E-3
329.995537E-3
329.919434E-3
329.907417E-3
330.257607E-3
329.639053E-3
330.554008E-3
330.372620E-3
330.326271E-3
331.091309E-3
330.186081E-3
331.444931E-3
331.229782E-3
330.916786E-3
331.019211E-3
330.379486E-3
331.310463E-3
331.083870E-3
330.677032E-3
331.007767E-3
330.083084E-3
331.503296E-3
331.083298E-3
330.873871E-3
331.091309E-3
330.403519E-3
331.827736E-3
331.754494E-3
331.606865E-3
331.720734E-3
330.804062E-3
331.740189E-3
330.323410E-3
329.121780E-3
328.699493E-3
326.974297E-3
326.871872E-3
325.789261E-3
324.465179E-3
324.411392E-3
323.409462E-3
324.145889E-3
323.967934E-3
323.657799E-3
324.491501E-3
324.112701E-3
325.249672E-3
325.100327E-3
324.816513E-3
325.692558E-3
324.960709E-3
326.077652E-3
325.920868E-3
325.710297E-3
326.384926E-3
326.046753E-3
327.614021E-3
327.116203E-3
326.379204E-3
326.609230E-3
326.342010E-3
327.504730E-3
327.260971E-3
326.605797E-3
327.294159E-3
326.553726E-3
327.568245E-3
326.735115E-3
326.211548E-3
326.802063E-3
326.201248E-3
327.425766E-3
327.178001E-3
327.029228E-3
327.735901E-3
327.235222E-3
328.334427E-3
328.694344E-3
328.060913E-3
328.645706E-3
328.424263E-3
329.457664E-3
329.072571E-3
329.040527E-3
329.541206E-3
328.845406E-3
330.132294E-3
329.380417E-3
329.027939E-3
329.677963E-3
329.233360E-3
330.402946E-3
330.099106E-3
329.418182E-3
330.067062E-3
329.569817E-3
330.803490E-3
330.717087E-3
330.166626E-3
330.679321E-3
330.237007E-3
331.121063E-3
331.184006E-3
330.742264E-3
331.094742E-3
329.748344E-3
329.917145E-3
328.551292E-3
327.041817E-3
326.888466E-3
325.274277E-3
325.387573E-3
324.489212E-3
323.178864E-3
323.439217E-3
322.351456E-3
323.330498E-3
323.229790E-3
322.864151E-3
323.810577E-3
323.634911E-3
324.689484E-3
324.840546E-3
323.798561E-3
324.605942E-3
324.184799E-3
325.203896E-3
325.330353E-3
324.943542E-3
325.781250E-3
325.293732E-3
326.396942E-3
326.224709E-3
325.686836E-3
326.515961E-3
325.635910E-3
326.297379E-3
326.320267E-3
324.754715E-3
325.814438E-3
325.646210E-3
326.623535E-3
326.083946E-3
325.727463E-3
326.297951E-3
325.828743E-3
326.644707E-3
326.702499E-3
326.359177E-3
326.876450E-3
326.487923E-3
327.656937E-3
327.892113E-3
327.533913E-3
328.100967E-3
327.647781E-3
328.407097E-3
328.635979E-3
328.134155E-3
328.535271E-3
327.967072E-3
329.139519E-3
328.876305E-3
328.230858E-3
328.752136E-3
328.272629E-3
328.710365E-3
329.138947E-3
327.429771E-3
328.658295E-3
328.380203E-3
329.141808E-3
329.138374E-3
327.691269E-3
329.302025E-3
328.728104E-3
329.385567E-3
329.512596E-3
