Notes :


2023-10-27 ¿ÀÈÄ 9:21:23
Volts
Ch : LED 2,
886.555481E-3
884.340477E-3
884.238625E-3
880.795097E-3
880.127335E-3
879.715347E-3
878.391266E-3
880.608559E-3
879.478455E-3
880.669212E-3
881.164742E-3
880.698395E-3
882.863617E-3
881.369019E-3
881.702042E-3
881.276894E-3
879.702187E-3
880.940437E-3
878.590393E-3
878.336334E-3
877.448845E-3
875.613785E-3
876.605415E-3
874.564934E-3
874.280548E-3
873.653412E-3
871.214676E-3
873.148155E-3
871.579170E-3
871.922493E-3
871.351433E-3
869.815063E-3
871.297646E-3
869.623947E-3
869.882011E-3
869.890594E-3
868.005180E-3
870.006752E-3
868.529892E-3
868.875504E-3
868.789673E-3
867.408371E-3
869.090652E-3
867.498779E-3
867.990875E-3
868.141365E-3
866.925430E-3
868.616867E-3
867.193794E-3
867.572021E-3
867.655563E-3
866.495705E-3
867.838097E-3
866.283989E-3
866.114044E-3
865.875435E-3
863.435555E-3
865.129280E-3
863.190651E-3
862.730598E-3
862.784958E-3
861.337852E-3
862.863922E-3
861.177063E-3
862.063408E-3
863.695908E-3
866.140938E-3
873.382759E-3
878.372955E-3
885.344124E-3
891.481018E-3
895.268440E-3
899.705887E-3
899.618340E-3
899.454117E-3
897.976112E-3
894.260216E-3
894.118881E-3
890.217590E-3
888.192558E-3
886.398697E-3
884.321594E-3
885.254288E-3
883.384895E-3
883.921623E-3
884.553337E-3
884.537888E-3
886.844444E-3
885.598755E-3
885.788155E-3
884.924126E-3
881.839943E-3
882.774353E-3
880.173111E-3
879.806900E-3
879.730797E-3
879.229546E-3
881.311226E-3
880.434608E-3
881.323814E-3
881.866837E-3
881.132126E-3
883.065605E-3
881.165886E-3
880.783081E-3
880.091858E-3
878.364944E-3
878.841019E-3
876.392555E-3
875.775146E-3
875.041008E-3
873.297501E-3
874.215889E-3
872.019196E-3
871.673012E-3
871.142578E-3
870.035934E-3
871.402931E-3
869.583893E-3
869.682312E-3
869.627380E-3
868.627167E-3
870.166969E-3
868.446350E-3
868.598557E-3
868.670082E-3
867.827225E-3
869.704056E-3
868.142509E-3
868.378830E-3
868.318748E-3
867.416954E-3
868.953323E-3
867.640114E-3
868.010902E-3
868.141937E-3
867.204666E-3
868.586540E-3
866.909409E-3
867.144012E-3
866.989517E-3
865.762711E-3
866.920280E-3
864.810562E-3
864.390564E-3
863.999748E-3
862.251091E-3
863.524818E-3
861.369324E-3
861.685181E-3
861.522102E-3
860.661507E-3
862.790108E-3
863.051033E-3
866.886520E-3
872.345352E-3
877.975273E-3
885.935783E-3
889.720917E-3
894.201279E-3
896.480370E-3
896.483231E-3
897.245979E-3
893.859100E-3
891.917038E-3
889.544106E-3
886.114311E-3
885.308647E-3
881.936073E-3
881.280899E-3
880.662346E-3
879.676437E-3
881.245995E-3
880.178261E-3
881.223679E-3
881.814194E-3
880.661774E-3
881.312943E-3
878.477097E-3
877.020836E-3
876.344490E-3
874.891090E-3
876.528740E-3
875.607491E-3
876.683807E-3
877.865410E-3
877.928925E-3
879.797745E-3
878.724289E-3
878.903389E-3
878.878212E-3
877.369308E-3
878.253937E-3
875.825500E-3
875.150871E-3
874.025345E-3
872.254372E-3
872.692108E-3
870.236206E-3
869.648552E-3
868.984795E-3
867.617798E-3
868.470383E-3
866.681099E-3
866.630745E-3
866.161537E-3
865.162468E-3
866.403580E-3
864.872360E-3
865.390205E-3
865.192223E-3
864.311600E-3
865.830231E-3
864.183998E-3
864.476967E-3
864.307022E-3
863.456726E-3
864.633751E-3
863.427544E-3
863.729095E-3
863.714790E-3
863.040733E-3
864.288712E-3
862.853622E-3
862.967491E-3
863.247299E-3
862.436485E-3
863.709068E-3
862.247658E-3
862.189293E-3
861.888885E-3
860.805702E-3
861.774445E-3
859.760284E-3
859.319115E-3
859.008980E-3
857.949829E-3
859.264183E-3
857.342720E-3
857.450294E-3
857.933235E-3
858.206749E-3
862.456512E-3
865.951538E-3
872.556496E-3
879.533958E-3
885.392761E-3
892.177963E-3
894.419861E-3
896.189117E-3
896.974182E-3
895.477295E-3
895.378876E-3
891.443253E-3
889.168739E-3
887.063599E-3
884.563637E-3
884.595680E-3
882.408714E-3
882.376099E-3
882.670784E-3
882.294846E-3
884.365654E-3
883.431816E-3
884.179115E-3
884.367371E-3
882.771492E-3
883.003807E-3
879.897881E-3
878.300858E-3
877.310371E-3
875.576019E-3
876.931572E-3
875.753975E-3
876.431465E-3
877.059174E-3
876.373672E-3
878.204155E-3
877.046585E-3
876.970482E-3
876.914978E-3
875.139999E-3
876.202583E-3
874.172974E-3
873.082924E-3
872.522736E-3
870.147514E-3
871.245575E-3
869.700050E-3
868.959618E-3
868.696404E-3
867.238998E-3
868.372536E-3
867.015266E-3
866.676521E-3
866.861916E-3
865.909767E-3
867.256737E-3
865.930939E-3
865.918350E-3
866.119766E-3
865.333557E-3
866.706848E-3
865.346146E-3
865.255165E-3
865.353012E-3
864.275551E-3
865.682602E-3
864.478683E-3
864.247513E-3
864.426041E-3
863.353729E-3
864.522743E-3
863.298798E-3
862.984085E-3
862.782669E-3
861.979866E-3
863.081932E-3
861.769867E-3
861.313820E-3
861.300659E-3
859.883308E-3
860.755348E-3
859.236145E-3
858.531189E-3
858.296585E-3
856.993103E-3
857.853699E-3
856.164551E-3
855.990028E-3
856.481552E-3
855.885315E-3
859.098244E-3
861.615372E-3
867.171478E-3
873.599625E-3
878.612137E-3
886.223030E-3
889.619637E-3
892.617989E-3
894.326019E-3
892.589951E-3
893.325233E-3
890.500259E-3
888.064384E-3
886.256218E-3
882.578659E-3
882.843018E-3
880.956459E-3
880.243492E-3
880.738449E-3
879.297066E-3
881.503487E-3
881.402779E-3
881.854820E-3
882.422447E-3
880.577087E-3
881.237411E-3
878.783226E-3
876.997948E-3
876.264381E-3
872.537041E-3
875.052452E-3
874.778366E-3
874.933434E-3
876.030350E-3
874.680519E-3
876.889801E-3
876.359940E-3
876.434898E-3
876.560211E-3
874.085999E-3
875.223541E-3
873.434830E-3
872.469521E-3
871.821213E-3
869.138718E-3
870.188141E-3
868.516159E-3
867.727089E-3
867.411804E-3
864.985657E-3
866.427040E-3
865.439415E-3
864.907837E-3
865.065765E-3
863.100243E-3
864.927864E-3
864.024925E-3
863.686180E-3
863.840103E-3
862.219048E-3
863.894463E-3
863.101959E-3
862.616158E-3
862.812424E-3
860.966492E-3
862.823296E-3
862.140656E-3
861.906624E-3
862.245941E-3
860.486984E-3
862.126923E-3
861.560440E-3
861.142731E-3
861.534691E-3
859.954262E-3
861.477470E-3
860.971642E-3
860.148239E-3
860.485268E-3
858.250809E-3
859.498787E-3
858.381844E-3
857.615089E-3
857.772446E-3
855.457878E-3
856.675529E-3
855.606079E-3
854.735756E-3
855.361176E-3
853.796768E-3
856.057549E-3
857.364464E-3
860.372543E-3
866.210175E-3
871.057320E-3
878.810120E-3
883.871269E-3
887.618637E-3
890.887642E-3
890.210152E-3
891.628075E-3
889.587593E-3
886.811256E-3
884.883499E-3
880.880928E-3
880.357933E-3
878.039360E-3
876.116180E-3
876.044655E-3
874.213028E-3
876.454353E-3
876.433754E-3
876.020050E-3
876.866341E-3
875.178909E-3
876.238060E-3
874.481392E-3
872.407150E-3
871.841812E-3
869.686317E-3
871.269035E-3
871.402931E-3
871.236992E-3
872.627449E-3
871.845245E-3
873.949814E-3
874.033356E-3
873.229408E-3
873.543549E-3
871.685028E-3
872.772789E-3
871.400642E-3
869.320107E-3
869.016266E-3
866.369247E-3
867.000961E-3
865.652847E-3
864.242935E-3
864.022636E-3
862.220764E-3
863.374329E-3
862.712860E-3
861.412239E-3
861.714935E-3
860.069847E-3
861.685753E-3
861.108398E-3
860.132217E-3
860.479546E-3
858.689117E-3
860.608864E-3
860.010910E-3
859.412384E-3
859.843826E-3
858.452225E-3
859.966850E-3
859.526825E-3
858.591270E-3
858.847618E-3
857.712364E-3
859.270477E-3
858.551788E-3
857.680893E-3
857.854271E-3
857.018852E-3
858.542633E-3
857.675171E-3
856.344223E-3
856.571388E-3
855.206680E-3
856.272125E-3
854.953194E-3
853.548431E-3
853.948975E-3
852.706718E-3
853.510094E-3
852.387428E-3
851.477623E-3
852.396011E-3
852.559090E-3
856.715584E-3
860.719872E-3
866.128349E-3
873.355293E-3
878.688240E-3
885.076332E-3
888.201141E-3
889.226532E-3
890.698242E-3
889.123535E-3
888.975334E-3
886.082840E-3
882.932281E-3
881.377602E-3
878.747177E-3
878.849030E-3
877.173615E-3
876.103020E-3
876.868629E-3
876.138496E-3
878.018188E-3
877.717781E-3
877.350426E-3
877.971268E-3
876.460075E-3
876.594543E-3
874.080849E-3
871.491623E-3
871.178055E-3
869.750977E-3
871.088791E-3
870.813560E-3
869.956970E-3
871.679306E-3
871.399498E-3
873.268318E-3
872.876930E-3
871.633530E-3
872.226906E-3
870.643044E-3
871.325111E-3
869.918633E-3
868.179703E-3
867.495918E-3
866.053963E-3
866.997528E-3
865.434265E-3
863.569450E-3
863.923073E-3
862.719727E-3
863.907623E-3
863.006401E-3
861.886024E-3
862.378120E-3
861.379623E-3
862.506866E-3
861.791611E-3
861.052895E-3
861.642265E-3
860.885239E-3
861.890030E-3
861.278915E-3
860.361099E-3
860.976219E-3
860.230637E-3
861.247444E-3
860.402298E-3
859.502792E-3
859.763718E-3
858.686829E-3
859.541702E-3
858.356094E-3
857.524681E-3
858.132935E-3
857.126999E-3
858.195305E-3
857.393646E-3
855.882454E-3
856.427193E-3
855.024147E-3
856.058693E-3
854.956055E-3
853.681183E-3
854.019928E-3
852.658653E-3
853.490067E-3
852.510452E-3
851.277924E-3
851.840401E-3
851.523972E-3
853.933525E-3
856.463814E-3
860.342216E-3
867.361450E-3
873.104095E-3
880.608559E-3
885.503769E-3
888.258362E-3
891.077042E-3
890.939713E-3
891.737366E-3
889.602470E-3
886.738014E-3
885.208511E-3
882.156372E-3
881.828499E-3
880.169106E-3
878.257370E-3
878.763771E-3
878.183556E-3
879.820633E-3
879.804611E-3
879.568291E-3
880.867195E-3
879.922485E-3
880.543327E-3
878.822136E-3
876.333046E-3
875.418091E-3
873.183060E-3
873.553276E-3
872.812843E-3
871.715355E-3
872.789955E-3
872.435188E-3
874.096298E-3
873.736954E-3
873.109245E-3
873.949814E-3
872.835159E-3
873.540115E-3
872.151375E-3
870.306015E-3
870.096016E-3
868.404007E-3
868.798828E-3
867.209816E-3
865.028572E-3
865.397644E-3
864.047813E-3
864.662933E-3
863.693619E-3
862.224197E-3
862.371254E-3
861.466026E-3
862.570381E-3
861.752129E-3
860.635757E-3
861.441994E-3
860.317039E-3
861.595917E-3
861.047173E-3
859.827232E-3
860.737038E-3
859.842110E-3
860.829163E-3
860.275841E-3
859.318542E-3
860.020638E-3
859.000969E-3
859.957695E-3
859.503365E-3
858.142090E-3
858.930588E-3
857.839966E-3
858.945465E-3
858.404732E-3
857.320976E-3
858.001328E-3
856.915855E-3
857.741547E-3
856.975365E-3
855.390358E-3
855.771446E-3
854.497147E-3
855.220985E-3
854.437637E-3
852.833748E-3
853.131294E-3
852.066994E-3
853.234863E-3
853.066635E-3
852.854347E-3
856.013489E-3
859.346008E-3
866.463661E-3
872.446060E-3
877.454567E-3
883.534813E-3
886.893082E-3
890.375519E-3
890.884781E-3
889.036560E-3
888.277245E-3
885.203934E-3
883.755112E-3
880.925560E-3
877.443695E-3
876.539040E-3
874.647903E-3
875.457573E-3
875.096512E-3
873.349571E-3
875.172615E-3
875.034714E-3
876.480675E-3
876.104164E-3
874.369812E-3
873.964691E-3
871.894455E-3
871.599770E-3
870.661354E-3
869.293785E-3
870.457649E-3
870.006180E-3
871.755409E-3
872.047806E-3
871.484756E-3
872.958755E-3
872.187424E-3
873.101807E-3
872.405434E-3
870.353508E-3
869.919777E-3
868.341064E-3
868.578529E-3
867.617798E-3
865.308952E-3
864.980507E-3
863.698769E-3
864.175415E-3
863.512230E-3
861.781311E-3
861.965561E-3
860.960197E-3
861.796761E-3
861.201096E-3
859.879303E-3
860.761642E-3
859.953690E-3
860.913277E-3
860.663795E-3
859.373474E-3
860.311890E-3
859.370613E-3
860.303307E-3
859.756851E-3
858.616447E-3
859.332848E-3
858.658218E-3
859.626389E-3
859.404945E-3
858.154678E-3
859.133720E-3
858.199310E-3
859.140587E-3
858.809853E-3
857.261467E-3
857.804489E-3
856.710434E-3
857.070923E-3
856.460953E-3
854.724884E-3
855.225563E-3
853.684044E-3
853.928375E-3
853.420258E-3
851.825523E-3
852.729607E-3
851.723099E-3
853.039742E-3
854.867363E-3
857.487488E-3
864.380264E-3
869.762421E-3
876.914978E-3
882.528305E-3
885.756111E-3
889.646530E-3
890.016747E-3
890.422440E-3
889.113808E-3
885.840225E-3
884.840012E-3
881.396484E-3
879.903030E-3
878.129196E-3
875.755119E-3
876.505852E-3
875.343132E-3
876.016617E-3
876.357079E-3
875.539970E-3
877.586746E-3
876.452065E-3
876.735306E-3
875.419235E-3
872.584534E-3
872.898674E-3
870.415306E-3
870.304871E-3
870.144653E-3
869.166183E-3
871.610069E-3
870.804977E-3
872.260666E-3
872.458076E-3
871.356583E-3
873.331261E-3
871.625519E-3
871.918488E-3
871.006393E-3
868.118477E-3
869.558716E-3
867.059898E-3
866.926575E-3
865.682602E-3
862.934875E-3
864.476395E-3
862.285423E-3
862.408447E-3
861.872864E-3
859.786606E-3
861.509514E-3
859.690475E-3
859.958839E-3
859.803200E-3
858.282280E-3
860.018921E-3
858.274269E-3
858.746910E-3
858.631325E-3
857.212257E-3
858.948326E-3
857.365608E-3
857.992172E-3
857.880592E-3
856.280136E-3
858.223343E-3
856.416321E-3
856.867790E-3
856.848335E-3
855.422974E-3
857.177925E-3
855.384064E-3
855.848694E-3
855.539703E-3
854.030800E-3
855.913925E-3
853.897476E-3
854.061127E-3
853.591347E-3
852.074432E-3
853.521538E-3
851.585197E-3
851.613808E-3
851.085091E-3
849.423981E-3
851.129723E-3
849.438286E-3
850.346375E-3
851.537704E-3
853.621674E-3
860.918427E-3
866.173553E-3
873.453712E-3
879.545975E-3
883.838081E-3
889.561844E-3
890.029907E-3
891.119957E-3
890.072823E-3
887.330246E-3
887.085915E-3
883.304787E-3
881.497765E-3
879.560852E-3
877.000809E-3
878.119469E-3
876.333046E-3
877.219391E-3
877.799606E-3
877.253723E-3
879.644394E-3
878.768349E-3
879.421806E-3
878.945160E-3
876.671791E-3
877.112961E-3
873.751831E-3
872.915840E-3
872.027206E-3
869.519806E-3
871.830368E-3
870.861053E-3
871.808624E-3
872.088432E-3
870.693398E-3
873.073196E-3
871.746254E-3
871.854973E-3
871.301079E-3
869.421959E-3
870.592117E-3
867.953682E-3
867.401505E-3
866.525459E-3
864.413452E-3
865.422249E-3
863.006401E-3
863.177490E-3
862.491989E-3
860.875511E-3
862.126923E-3
860.244370E-3
860.620880E-3
860.099602E-3
858.729744E-3
860.556221E-3
859.052467E-3
859.236145E-3
859.044456E-3
857.870865E-3
859.704208E-3
858.174133E-3
858.457375E-3
858.483696E-3
857.260895E-3
859.072495E-3
857.423973E-3
857.541847E-3
857.476044E-3
855.784607E-3
857.701492E-3
856.101036E-3
856.455231E-3
856.367111E-3
855.118561E-3
856.775093E-3
854.974365E-3
855.069923E-3
854.418755E-3
853.093529E-3
854.773521E-3
852.568817E-3
852.481842E-3
851.894760E-3
850.386429E-3
851.652718E-3
849.583626E-3
849.754143E-3
849.512100E-3
848.404884E-3
850.907135E-3
851.067924E-3
855.520248E-3
861.415100E-3
867.049026E-3
875.584602E-3
880.053520E-3
885.195351E-3
888.102150E-3
888.350487E-3
890.207863E-3
887.465286E-3
885.870552E-3
883.602905E-3
879.435539E-3
879.581451E-3
876.502419E-3
875.551987E-3
875.024414E-3
873.858833E-3
875.917053E-3
874.936295E-3
876.076698E-3
876.781654E-3
876.212883E-3
877.699471E-3
875.394058E-3
874.625015E-3
873.148727E-3
871.096802E-3
872.110748E-3
870.564651E-3
871.098518E-3
871.640396E-3
871.315956E-3
873.532104E-3
872.518158E-3
873.053741E-3
873.040581E-3
871.662712E-3
872.888947E-3
870.427322E-3
869.651413E-3
868.530464E-3
866.405296E-3
867.225266E-3
864.572525E-3
864.077568E-3
863.228989E-3
861.519814E-3
862.514305E-3
860.579681E-3
860.408592E-3
860.113335E-3
858.947182E-3
860.275841E-3
858.615303E-3
858.623886E-3
858.630753E-3
