Notes :


2023-11-10 ¿ÀÈÄ 11:17:06
Volts
Ch : LED 2,
59.283829E-3
59.127617E-3
59.077835E-3
59.104729E-3
59.097862E-3
59.258080E-3
59.294128E-3
59.386253E-3
59.240913E-3
59.193993E-3
59.033775E-3
58.577156E-3
58.580017E-3
58.456421E-3
58.527946E-3
58.628082E-3
58.535385E-3
58.693886E-3
58.662987E-3
58.827209E-3
58.699608E-3
58.761978E-3
58.967972E-3
58.883286E-3
58.811188E-3
58.589172E-3
58.399773E-3
58.395195E-3
58.160591E-3
58.044434E-3
57.874489E-3
57.746315E-3
57.712555E-3
57.531738E-3
57.453346E-3
57.400131E-3
57.234764E-3
57.305145E-3
57.184410E-3
57.241631E-3
57.158661E-3
57.124901E-3
57.176971E-3
57.063103E-3
57.067108E-3
57.040787E-3
57.013893E-3
57.176399E-3
57.010460E-3
57.031631E-3
56.993866E-3
56.969833E-3
57.058525E-3
56.951523E-3
56.934357E-3
56.922913E-3
56.950378E-3
56.892014E-3
56.744385E-3
56.755257E-3
56.696320E-3
56.581879E-3
56.598473E-3
56.563568E-3
56.472015E-3
56.511497E-3
56.506920E-3
56.503487E-3
56.357002E-3
56.355286E-3
56.328392E-3
56.237984E-3
56.336975E-3
56.218529E-3
56.288910E-3
56.219673E-3
56.109238E-3
56.124115E-3
55.973625E-3
55.961609E-3
55.904961E-3
55.780220E-3
55.875206E-3
55.755615E-3
55.706406E-3
55.834007E-3
55.883217E-3
56.188774E-3
56.489754E-3
57.271385E-3
58.252144E-3
58.967972E-3
59.930420E-3
60.563850E-3
61.111450E-3
61.414719E-3
61.441040E-3
61.315155E-3
61.017609E-3
60.604477E-3
60.383606E-3
60.001945E-3
59.757042E-3
59.414291E-3
59.331894E-3
59.195709E-3
59.037781E-3
59.131622E-3
58.996582E-3
59.090424E-3
59.204865E-3
59.148788E-3
59.168816E-3
58.921051E-3
58.747673E-3
58.669853E-3
58.491325E-3
58.370590E-3
58.371162E-3
58.562279E-3
58.694458E-3
58.788300E-3
58.945084E-3
58.905602E-3
58.983994E-3
59.112167E-3
59.077835E-3
59.009743E-3
58.784866E-3
58.679008E-3
58.616066E-3
58.361435E-3
58.259583E-3
58.071899E-3
57.923698E-3
57.844734E-3
57.674217E-3
57.658768E-3
57.628441E-3
57.453918E-3
57.494545E-3
57.362938E-3
57.330894E-3
57.297134E-3
57.313156E-3
57.286835E-3
57.167816E-3
57.269669E-3
57.278252E-3
57.285690E-3
57.334328E-3
57.044220E-3
57.225037E-3
57.081413E-3
57.051086E-3
57.174110E-3
57.095146E-3
57.132339E-3
57.024193E-3
57.012177E-3
56.844521E-3
56.812477E-3
56.916046E-3
56.761551E-3
56.762123E-3
56.745529E-3
56.599045E-3
56.628799E-3
56.509781E-3
56.399345E-3
56.463432E-3
56.390190E-3
56.444550E-3
56.338120E-3
56.287766E-3
56.308365E-3
56.204224E-3
56.198502E-3
56.096077E-3
56.012535E-3
56.015968E-3
55.901527E-3
55.928421E-3
55.857468E-3
55.869484E-3
55.930138E-3
55.918121E-3
56.082344E-3
56.368446E-3
57.046509E-3
57.913399E-3
58.684158E-3
59.585381E-3
60.249138E-3
60.776138E-3
61.221313E-3
61.320305E-3
61.219025E-3
60.868263E-3
60.661697E-3
60.330963E-3
59.912109E-3
59.648323E-3
59.274101E-3
59.046364E-3
59.020615E-3
58.863258E-3
58.802032E-3
58.725357E-3
58.786011E-3
58.824348E-3
58.744240E-3
58.574867E-3
58.478165E-3
58.317375E-3
58.309937E-3
58.169174E-3
58.178902E-3
58.206940E-3
58.342552E-3
58.452415E-3
58.521080E-3
58.689880E-3
58.721924E-3
58.802032E-3
58.791733E-3
58.677292E-3
58.674431E-3
58.479881E-3
58.410645E-3
58.227539E-3
58.007812E-3
57.864761E-3
57.799530E-3
57.647896E-3
57.555199E-3
57.342339E-3
57.281113E-3
57.190132E-3
57.193565E-3
57.165527E-3
57.053375E-3
57.059097E-3
56.981277E-3
56.943512E-3
57.029915E-3
56.933212E-3
56.972694E-3
57.031631E-3
56.950951E-3
56.927490E-3
56.816483E-3
56.855965E-3
56.782722E-3
56.803322E-3
56.802750E-3
56.727219E-3
56.812477E-3
56.764412E-3
56.698036E-3
56.652832E-3
56.465721E-3
56.591034E-3
56.442261E-3
56.460571E-3
56.459427E-3
56.344414E-3
56.395912E-3
56.309509E-3
56.295776E-3
56.257439E-3
56.204796E-3
56.153870E-3
56.180191E-3
56.130981E-3
56.112099E-3
55.947876E-3
55.966759E-3
55.842590E-3
55.765343E-3
55.850601E-3
55.672646E-3
55.681229E-3
55.634308E-3
55.683517E-3
55.862045E-3
56.034851E-3
56.596184E-3
57.290268E-3
58.131981E-3
59.121895E-3
59.737587E-3
60.595322E-3
61.090279E-3
61.361504E-3
61.513138E-3
61.275673E-3
61.075974E-3
60.780144E-3
60.352135E-3
60.024261E-3
59.770203E-3
59.575081E-3
59.508705E-3
59.401131E-3
59.437180E-3
59.397697E-3
59.474945E-3
59.482956E-3
59.510994E-3
59.611130E-3
59.483528E-3
59.362793E-3
59.142494E-3
58.931923E-3
58.839226E-3
58.688736E-3
58.713913E-3
58.824348E-3
58.875847E-3
58.990288E-3
58.996010E-3
59.142494E-3
59.099579E-3
59.111023E-3
59.123611E-3
58.956528E-3
58.982277E-3
58.878136E-3
58.628654E-3
58.625793E-3
58.347130E-3
58.253288E-3
58.125114E-3
58.061600E-3
57.899094E-3
57.694817E-3
57.669067E-3
57.586098E-3
57.524872E-3
57.494545E-3
57.362366E-3
57.439613E-3
57.259369E-3
57.298851E-3
57.381248E-3
57.251930E-3
57.263374E-3
57.298279E-3
57.213020E-3
57.213020E-3
57.131767E-3
57.328033E-3
57.188416E-3
57.017899E-3
57.130623E-3
57.080269E-3
57.069969E-3
57.035637E-3
56.991005E-3
56.983566E-3
56.949234E-3
56.991005E-3
56.835937E-3
56.820488E-3
56.776428E-3
56.601334E-3
56.695175E-3
56.623650E-3
56.571007E-3
56.657410E-3
56.511497E-3
56.494904E-3
56.486893E-3
56.357574E-3
56.361008E-3
56.256866E-3
56.220245E-3
56.170464E-3
56.045723E-3
56.057167E-3
55.974770E-3
55.990791E-3
56.040573E-3
56.003952E-3
56.019974E-3
56.045723E-3
56.414223E-3
56.862259E-3
57.464218E-3
58.372307E-3
59.201431E-3
60.136986E-3
60.793877E-3
61.285400E-3
61.518288E-3
61.550903E-3
61.418724E-3
61.197853E-3
60.806465E-3
60.495758E-3
60.104370E-3
59.920692E-3
59.733582E-3
59.464073E-3
59.523010E-3
59.429169E-3
59.439468E-3
59.458923E-3
59.549332E-3
59.634018E-3
59.514427E-3
59.434319E-3
59.375381E-3
59.046364E-3
58.963966E-3
58.724213E-3
58.759117E-3
58.779144E-3
58.822060E-3
59.018326E-3
59.072685E-3
59.278679E-3
59.334183E-3
59.234619E-3
59.290123E-3
59.235191E-3
59.191704E-3
59.054947E-3
58.816910E-3
58.835220E-3
58.511353E-3
58.412933E-3
58.386612E-3
58.149719E-3
58.141136E-3
57.880783E-3
57.946587E-3
57.880783E-3
57.750893E-3
57.727432E-3
57.548904E-3
57.682800E-3
57.616425E-3
57.477379E-3
57.586670E-3
57.540894E-3
57.578659E-3
57.502556E-3
57.378387E-3
57.480240E-3
57.325745E-3
57.342911E-3
57.340050E-3
57.291985E-3
57.374382E-3
57.299995E-3
57.317162E-3
57.340622E-3
57.183838E-3
57.201004E-3
57.067680E-3
57.098007E-3
57.012749E-3
56.843376E-3
57.001877E-3
56.854820E-3
56.853104E-3
56.805038E-3
56.783867E-3
56.782722E-3
56.663704E-3
56.721497E-3
56.627083E-3
56.525803E-3
56.569290E-3
56.394196E-3
56.415939E-3
56.308937E-3
56.198502E-3
56.229973E-3
56.120110E-3
56.034279E-3
56.068611E-3
56.005096E-3
56.107521E-3
56.211090E-3
56.713486E-3
57.214165E-3
57.907677E-3
58.854675E-3
59.589958E-3
60.229111E-3
60.851669E-3
61.125183E-3
61.338615E-3
61.161232E-3
61.057091E-3
60.748100E-3
60.381889E-3
60.119820E-3
59.864044E-3
59.596252E-3
59.318733E-3
59.137344E-3
59.187126E-3
59.119606E-3
59.152794E-3
59.195137E-3
59.098434E-3
59.165382E-3
58.987999E-3
58.854103E-3
58.628082E-3
58.419228E-3
58.414650E-3
58.358574E-3
58.525085E-3
58.698463E-3
58.675575E-3
58.923340E-3
58.934784E-3
59.025192E-3
59.072685E-3
58.999443E-3
59.117317E-3
58.939362E-3
58.822060E-3
58.634949E-3
58.388901E-3
58.369446E-3
58.231544E-3
58.053017E-3
57.911110E-3
57.744598E-3
57.645035E-3
57.503128E-3
57.474518E-3
57.405853E-3
57.395554E-3
57.410431E-3
57.301140E-3
57.249641E-3
57.303429E-3
57.218742E-3
57.178688E-3
57.155800E-3
57.299995E-3
57.223320E-3
57.110023E-3
57.114601E-3
57.046509E-3
57.102013E-3
57.042503E-3
57.024193E-3
57.059097E-3
56.957245E-3
56.979561E-3
56.980705E-3
56.876564E-3
56.895447E-3
56.778717E-3
56.721497E-3
56.744957E-3
56.633377E-3
56.676292E-3
56.511497E-3
56.526947E-3
56.558418E-3
56.404495E-3
56.434822E-3
56.382179E-3
56.315804E-3
56.265450E-3
56.165314E-3
56.201363E-3
56.093216E-3
56.072617E-3
56.021690E-3
55.919266E-3
55.932426E-3
55.829430E-3
55.780220E-3
55.785942E-3
55.729866E-3
55.879211E-3
56.047440E-3
56.524658E-3
57.284546E-3
58.115959E-3
59.001160E-3
59.824562E-3
60.597038E-3
61.114311E-3
61.304283E-3
61.459923E-3
61.208153E-3
61.093140E-3
60.930634E-3
60.535812E-3
60.281181E-3
59.980202E-3
59.767914E-3
59.654045E-3
59.567642E-3
59.682655E-3
59.526443E-3
59.545898E-3
59.662628E-3
59.656334E-3
59.742737E-3
59.587097E-3
59.463501E-3
59.329033E-3
59.160233E-3
58.977699E-3
58.816338E-3
58.771133E-3
58.887291E-3
58.922195E-3
59.056091E-3
59.090424E-3
59.093285E-3
59.329033E-3
59.211731E-3
59.259224E-3
59.096718E-3
58.975410E-3
58.940506E-3
58.740234E-3
58.740807E-3
58.474159E-3
58.401489E-3
58.264160E-3
58.011818E-3
58.049583E-3
57.883072E-3
57.737160E-3
57.760048E-3
57.708549E-3
57.646179E-3
57.523155E-3
57.538033E-3
57.526016E-3
57.472801E-3
57.474518E-3
57.411575E-3
57.380104E-3
57.341194E-3
57.259369E-3
57.402420E-3
57.222176E-3
57.227325E-3
57.287979E-3
57.151222E-3
57.226181E-3
57.166672E-3
56.909752E-3
57.049370E-3
57.008171E-3
57.058525E-3
56.976700E-3
56.962395E-3
56.866264E-3
56.762123E-3
56.770706E-3
56.783295E-3
56.699753E-3
56.652832E-3
56.601334E-3
56.607056E-3
56.519508E-3
56.427383E-3
56.471443E-3
56.389618E-3
56.311798E-3
56.304359E-3
56.343842E-3
56.381035E-3
56.233406E-3
56.200790E-3
56.082916E-3
56.090355E-3
56.080055E-3
55.980492E-3
55.990219E-3
55.887794E-3
55.971336E-3
56.033707E-3
56.072044E-3
56.515503E-3
57.011604E-3
57.811546E-3
58.840942E-3
59.624863E-3
60.437965E-3
60.997009E-3
61.417580E-3
61.584663E-3
61.514282E-3
61.366653E-3
61.055946E-3
60.840797E-3
60.611343E-3
60.165596E-3
59.906960E-3
59.774780E-3
59.667778E-3
59.651756E-3
59.541893E-3
59.643745E-3
59.618568E-3
59.674072E-3
59.739876E-3
59.705544E-3
59.699821E-3
59.469223E-3
59.193993E-3
59.199142E-3
58.961678E-3
58.992577E-3
58.879852E-3
58.946800E-3
59.120750E-3
59.096718E-3
59.227180E-3
59.286118E-3
59.235764E-3
59.248352E-3
59.116173E-3
59.129333E-3
58.953667E-3
58.827782E-3
58.748245E-3
58.532524E-3
58.479309E-3
58.355713E-3
58.213234E-3
58.159447E-3
57.916260E-3
57.935715E-3
57.820129E-3
57.770348E-3
57.677650E-3
57.622719E-3
57.833290E-3
57.702827E-3
57.573509E-3
57.616425E-3
57.501411E-3
57.511711E-3
57.428169E-3
57.427025E-3
57.509422E-3
57.377243E-3
57.439613E-3
57.437325E-3
57.343483E-3
57.345772E-3
57.292557E-3
57.362938E-3
57.252502E-3
57.261086E-3
56.995583E-3
56.970406E-3
57.058525E-3
56.966400E-3
56.959534E-3
56.986427E-3
56.810760E-3
56.851387E-3
56.783867E-3
56.750679E-3
56.702614E-3
56.603050E-3
56.707191E-3
56.631660E-3
56.542397E-3
56.562996E-3
56.548691E-3
56.537247E-3
56.426811E-3
56.306076E-3
56.325531E-3
56.187057E-3
56.252289E-3
56.223679E-3
56.080627E-3
55.973625E-3
55.922127E-3
55.993080E-3
56.102371E-3
56.116676E-3
56.382179E-3
56.669998E-3
57.547188E-3
58.181763E-3
59.056091E-3
59.839439E-3
60.350418E-3
60.971832E-3
61.087418E-3
61.029625E-3
61.010742E-3
60.693169E-3
60.446548E-3
59.875488E-3
59.668350E-3
59.508133E-3
59.202003E-3
59.218025E-3
59.023476E-3
58.856392E-3
58.950233E-3
58.858681E-3
58.848381E-3
58.838654E-3
58.784294E-3
58.735657E-3
58.538246E-3
58.421516E-3
58.323097E-3
58.198357E-3
58.309364E-3
58.392334E-3
58.458710E-3
58.589172E-3
58.702469E-3
58.847809E-3
58.810043E-3
58.879852E-3
58.823204E-3
58.712196E-3
58.719635E-3
58.582878E-3
58.521652E-3
58.450699E-3
58.160019E-3
58.055878E-3
57.784653E-3
57.691383E-3
57.579803E-3
57.476234E-3
57.479668E-3
57.339478E-3
57.302856E-3
57.266235E-3
57.167244E-3
57.181549E-3
56.906891E-3
57.064247E-3
57.129478E-3
57.095718E-3
57.080841E-3
56.956100E-3
56.995583E-3
57.028770E-3
56.986427E-3
56.857109E-3
56.822205E-3
56.872559E-3
56.831360E-3
56.711769E-3
56.892586E-3
56.736374E-3
56.695747E-3
56.709480E-3
56.618500E-3
56.668854E-3
56.564713E-3
56.565857E-3
56.474876E-3
56.454849E-3
56.415939E-3
56.307793E-3
56.265450E-3
56.284904E-3
56.234550E-3
56.210518E-3
56.080627E-3
56.106377E-3
56.066322E-3
55.959892E-3
56.081772E-3
55.916977E-3
55.926132E-3
55.928993E-3
55.776215E-3
55.859184E-3
55.712128E-3
55.735588E-3
55.702400E-3
55.593681E-3
55.629730E-3
55.479813E-3
55.672073E-3
55.966187E-3
56.334686E-3
57.096291E-3
57.823563E-3
58.780861E-3
59.569359E-3
60.225677E-3
60.737228E-3
61.041641E-3
61.132050E-3
61.053085E-3
60.753250E-3
60.657692E-3
60.249138E-3
60.025406E-3
59.660912E-3
59.438324E-3
59.429741E-3
59.230042E-3
59.181404E-3
59.160805E-3
59.148216E-3
59.286690E-3
59.266090E-3
59.319305E-3
59.283829E-3
59.142494E-3
59.000015E-3
58.744240E-3
58.674431E-3
58.638382E-3
58.497047E-3
58.704185E-3
58.721352E-3
58.689308E-3
58.874702E-3
58.818054E-3
58.919334E-3
58.922768E-3
58.915901E-3
58.818626E-3
58.625221E-3
58.776855E-3
58.456421E-3
58.339691E-3
58.226395E-3
57.963181E-3
57.984352E-3
57.790375E-3
57.723427E-3
57.502556E-3
57.432747E-3
57.446480E-3
57.390404E-3
57.335472E-3
57.301712E-3
57.278824E-3
57.285118E-3
57.210159E-3
57.322311E-3
57.223892E-3
57.161522E-3
57.208443E-3
57.077408E-3
57.091141E-3
57.010460E-3
56.991005E-3
57.071114E-3
56.831932E-3
56.893158E-3
56.948662E-3
56.821632E-3
56.876564E-3
56.857681E-3
56.786156E-3
56.768417E-3
56.703186E-3
56.701469E-3
56.613350E-3
56.515503E-3
56.457138E-3
56.418800E-3
56.456566E-3
56.328392E-3
56.340408E-3
56.372452E-3
56.249428E-3
56.233406E-3
56.114960E-3
56.109810E-3
56.164742E-3
56.041145E-3
56.109810E-3
55.954170E-3
55.966759E-3
55.968475E-3
55.807114E-3
55.985641E-3
55.791664E-3
55.709267E-3
55.739594E-3
55.656052E-3
55.692101E-3
55.512428E-3
55.613708E-3
55.677795E-3
55.871201E-3
56.505775E-3
57.071114E-3
57.913399E-3
58.761406E-3
59.403992E-3
60.275459E-3
60.619926E-3
60.943222E-3
61.054230E-3
60.978699E-3
60.815620E-3
60.567284E-3
60.235977E-3
59.983063E-3
59.587669E-3
59.485245E-3
59.230614E-3
59.119606E-3
59.221458E-3
59.127617E-3
59.198570E-3
