Notes :


2023-10-22 ¿ÀÀü 10:55:53
Volts
Ch : LED 2,
540.695572E-3
540.689850E-3
540.797424E-3
540.845490E-3
540.854645E-3
541.252899E-3
541.403389E-3
541.327858E-3
541.518402E-3
541.346169E-3
541.772461E-3
541.865158E-3
541.645432E-3
541.788483E-3
541.705513E-3
542.012787E-3
541.840553E-3
541.601944E-3
541.935539E-3
541.704941E-3
542.066574E-3
542.003632E-3
541.695786E-3
541.851425E-3
541.795921E-3
541.913223E-3
541.849709E-3
541.620255E-3
541.776466E-3
541.728973E-3
541.953850E-3
541.909218E-3
541.677475E-3
542.066574E-3
541.938400E-3
542.343521E-3
542.512321E-3
542.277145E-3
542.541504E-3
542.432785E-3
542.758942E-3
542.709160E-3
542.711449E-3
543.002701E-3
542.844200E-3
543.010139E-3
542.758942E-3
542.175293E-3
541.824532E-3
540.780258E-3
540.012932E-3
539.052773E-3
538.106346E-3
537.581062E-3
537.210846E-3
537.312126E-3
537.302399E-3
537.193108E-3
537.459755E-3
537.462044E-3
537.790489E-3
538.001060E-3
537.999344E-3
538.235092E-3
538.280296E-3
538.554382E-3
538.696861E-3
538.493729E-3
538.866806E-3
538.917160E-3
539.390373E-3
539.712524E-3
539.725113E-3
540.060425E-3
539.881325E-3
539.727974E-3
539.712524E-3
539.397240E-3
539.533424E-3
539.269638E-3
539.297676E-3
539.410400E-3
539.045906E-3
539.237022E-3
539.113998E-3
539.463615E-3
539.547157E-3
539.469337E-3
539.830971E-3
539.742279E-3
540.070152E-3
540.365982E-3
540.142822E-3
540.684700E-3
540.776825E-3
540.987968E-3
541.252327E-3
541.081810E-3
541.373062E-3
541.296959E-3
541.417122E-3
541.686058E-3
541.090393E-3
541.577339E-3
541.487503E-3
541.839981E-3
541.897202E-3
541.757584E-3
542.090034E-3
542.069435E-3
542.208481E-3
542.170715E-3
541.512680E-3
541.845703E-3
541.929245E-3
541.982460E-3
542.202759E-3
542.021370E-3
542.271996E-3
542.184448E-3
542.319489E-3
542.349815E-3
542.387581E-3
542.614174E-3
542.543221E-3
542.761230E-3
542.931747E-3
542.745209E-3
543.253899E-3
543.141747E-3
543.248749E-3
543.358040E-3
543.184090E-3
543.292236E-3
542.713737E-3
542.009354E-3
541.249466E-3
540.018654E-3
539.588928E-3
538.514900E-3
538.121223E-3
537.731552E-3
537.495804E-3
537.721252E-3
537.510681E-3
537.685776E-3
537.987328E-3
537.962151E-3
538.344955E-3
538.377571E-3
538.488579E-3
538.697433E-3
538.554955E-3
538.958359E-3
538.763237E-3
538.873672E-3
539.005852E-3
538.989258E-3
539.604950E-3
539.607811E-3
539.772034E-3
540.116501E-3
539.952850E-3
540.233803E-3
539.897919E-3
539.794350E-3
539.915085E-3
539.492798E-3
539.650154E-3
539.392662E-3
539.360046E-3
539.507675E-3
539.366341E-3
539.595795E-3
539.635849E-3
539.721680E-3
539.982605E-3
540.132523E-3
540.535927E-3
540.475845E-3
540.502739E-3
540.941620E-3
540.840340E-3
541.394234E-3
541.210556E-3
541.395950E-3
541.604233E-3
541.477776E-3
541.861153E-3
541.687775E-3
541.799927E-3
541.896629E-3
541.794205E-3
542.013931E-3
541.882324E-3
541.989326E-3
542.178154E-3
541.873741E-3
542.103767E-3
541.774750E-3
541.886330E-3
542.097473E-3
541.905785E-3
542.199898E-3
541.934967E-3
542.068863E-3
542.124367E-3
542.115784E-3
542.360115E-3
542.145538E-3
542.302895E-3
542.526627E-3
542.477989E-3
542.990112E-3
542.978096E-3
543.130875E-3
543.313408E-3
543.253899E-3
543.538857E-3
543.309975E-3
543.181229E-3
543.074226E-3
542.647934E-3
542.239380E-3
541.275215E-3
540.320206E-3
539.674187E-3
538.652229E-3
538.323212E-3
537.722969E-3
537.551880E-3
537.790489E-3
537.625694E-3
537.914085E-3
537.783623E-3
537.828255E-3
537.991905E-3
538.092613E-3
538.485146E-3
538.332367E-3
538.473129E-3
538.599586E-3
538.129807E-3
538.744926E-3
538.667679E-3
538.898849E-3
539.245605E-3
539.097977E-3
539.631844E-3
539.597511E-3
539.379501E-3
539.412689E-3
539.089394E-3
539.155197E-3
538.945198E-3
538.928032E-3
539.004135E-3
538.776970E-3
538.991547E-3
538.790703E-3
538.830757E-3
539.078522E-3
539.038467E-3
539.305115E-3
539.400673E-3
539.425278E-3
539.802361E-3
539.786911E-3
539.998627E-3
539.954567E-3
540.009499E-3
540.256691E-3
540.287590E-3
540.669823E-3
540.546227E-3
540.600014E-3
540.735626E-3
540.659523E-3
540.864944E-3
540.795708E-3
540.624046E-3
540.832901E-3
540.607452E-3
540.913582E-3
540.710449E-3
540.744209E-3
540.996552E-3
540.870094E-3
540.987968E-3
540.925026E-3
540.784264E-3
540.941620E-3
540.791130E-3
540.987396E-3
540.922165E-3
540.651512E-3
540.937614E-3
540.662384E-3
541.049767E-3
541.252327E-3
541.413689E-3
541.633415E-3
541.723251E-3
541.988754E-3
541.851997E-3
541.825104E-3
542.028809E-3
541.869736E-3
541.954422E-3
541.996193E-3
541.483498E-3
541.223145E-3
540.373993E-3
539.848137E-3
538.878822E-3
538.132668E-3
537.835121E-3
537.198257E-3
537.156487E-3
537.051201E-3
536.937332E-3
537.083817E-3
537.019157E-3
537.438011E-3
537.566185E-3
537.531281E-3
537.791634E-3
537.645149E-3
537.927818E-3
538.101196E-3
538.163567E-3
538.417625E-3
538.263702E-3
538.671112E-3
538.852501E-3
538.990974E-3
539.420700E-3
539.391518E-3
539.449310E-3
539.366913E-3
539.022446E-3
539.097404E-3
538.759232E-3
538.901138E-3
538.831902E-3
538.859940E-3
539.048195E-3
538.737488E-3
539.006996E-3
539.139175E-3
539.087105E-3
539.303970E-3
539.328575E-3
539.802933E-3
539.832687E-3
539.999199E-3
540.294456E-3
540.230370E-3
540.574265E-3
540.763664E-3
540.795135E-3
540.909004E-3
540.928459E-3
541.124153E-3
541.131592E-3
541.161346E-3
541.374779E-3
541.155624E-3
541.478920E-3
541.489792E-3
541.430283E-3
541.596794E-3
541.375351E-3
541.682053E-3
541.664886E-3
541.669464E-3
541.706085E-3
541.514397E-3
541.740990E-3
541.742706E-3
541.560745E-3
541.854858E-3
541.624260E-3
541.992187E-3
542.084885E-3
541.916084E-3
542.189026E-3
541.985321E-3
542.426491E-3
542.539215E-3
542.463684E-3
542.665100E-3
542.568398E-3
542.868233E-3
542.867088E-3
542.469978E-3
542.294312E-3
541.474342E-3
541.153336E-3
540.313911E-3
539.222145E-3
538.620186E-3
538.028526E-3
538.026237E-3
537.893486E-3
537.502098E-3
537.763023E-3
537.831116E-3
538.172722E-3
538.377571E-3
538.333511E-3
538.582420E-3
538.593864E-3
538.678551E-3
539.029312E-3
538.894272E-3
539.068222E-3
538.989830E-3
539.254189E-3
539.363480E-3
539.501953E-3
539.982605E-3
539.981461E-3
540.344238E-3
540.400314E-3
539.995193E-3
539.915085E-3
539.720535E-3
539.893913E-3
539.715958E-3
539.484787E-3
539.722824E-3
539.624977E-3
539.865303E-3
539.757156E-3
539.774895E-3
540.039825E-3
540.079880E-3
540.533638E-3
540.802002E-3
540.771103E-3
540.727043E-3
540.834618E-3
541.129303E-3
541.304970E-3
541.267776E-3
541.607094E-3
541.652298E-3
541.996193E-3
541.894913E-3
541.812515E-3
542.129517E-3
542.039680E-3
542.281151E-3
542.086029E-3
541.945267E-3
542.197037E-3
542.107773E-3
542.310333E-3
542.250252E-3
542.094612E-3
542.430496E-3
542.284584E-3
542.400169E-3
542.546654E-3
542.401314E-3
542.607880E-3
542.492294E-3
542.637634E-3
542.623329E-3
542.671394E-3
542.886543E-3
542.892265E-3
543.151474E-3
543.141747E-3
543.061066E-3
543.541718E-3
543.481636E-3
543.835258E-3
544.043541E-3
543.550873E-3
543.635559E-3
543.233299E-3
542.856216E-3
542.316628E-3
541.360474E-3
540.706444E-3
539.774895E-3
539.128876E-3
538.806725E-3
538.304329E-3
538.499451E-3
538.463402E-3
538.512611E-3
538.664246E-3
538.535500E-3
538.752365E-3
538.726616E-3
538.825607E-3
539.190674E-3
538.910866E-3
539.112282E-3
539.030457E-3
539.258194E-3
539.422989E-3
539.337158E-3
539.864159E-3
539.728546E-3
540.110207E-3
540.328789E-3
539.996910E-3
540.269852E-3
539.993477E-3
539.966583E-3
539.904213E-3
539.592361E-3
539.947701E-3
539.582062E-3
539.578056E-3
539.764023E-3
539.575195E-3
539.936256E-3
539.943123E-3
540.030670E-3
540.236092E-3
540.075874E-3
540.649223E-3
540.440369E-3
540.500450E-3
541.006279E-3
540.874672E-3
541.199684E-3
540.986252E-3
541.167068E-3
541.400528E-3
541.232300E-3
541.604233E-3
541.394806E-3
541.486931E-3
541.670036E-3
541.482925E-3
541.873741E-3
541.632843E-3
541.618538E-3
541.787338E-3
541.576767E-3
542.094040E-3
541.834831E-3
541.840553E-3
541.982460E-3
541.813660E-3
542.072296E-3
541.726112E-3
541.850281E-3
542.037964E-3
541.887474E-3
542.212486E-3
542.102623E-3
542.179298E-3
542.325783E-3
542.222786E-3
542.701721E-3
542.733192E-3
542.728615E-3
542.973518E-3
542.823601E-3
543.199539E-3
542.967796E-3
542.792130E-3
542.843628E-3
542.448235E-3
542.164993E-3
541.167068E-3
540.481567E-3
540.011215E-3
539.170074E-3
538.979530E-3
538.321495E-3
538.161278E-3
538.282013E-3
538.254547E-3
538.536072E-3
538.434792E-3
538.603020E-3
538.822174E-3
538.795853E-3
539.248466E-3
538.990402E-3
539.091682E-3
539.307976E-3
539.273071E-3
539.690781E-3
539.519119E-3
539.624405E-3
540.059853E-3
540.184593E-3
540.680122E-3
540.459251E-3
540.396881E-3
540.445518E-3
539.745712E-3
540.307045E-3
540.239525E-3
540.147400E-3
540.280724E-3
540.046692E-3
540.333366E-3
540.102768E-3
540.125656E-3
540.367699E-3
540.411758E-3
540.812874E-3
540.850067E-3
541.096115E-3
541.258049E-3
541.294098E-3
541.735268E-3
541.787338E-3
541.687775E-3
542.004776E-3
542.031670E-3
542.375565E-3
542.169571E-3
542.199326E-3
542.458534E-3
542.422485E-3
542.813301E-3
542.690849E-3
542.704582E-3
542.819023E-3
542.709732E-3
543.004417E-3
542.778969E-3
542.687988E-3
542.972946E-3
542.831612E-3
543.278503E-3
543.019295E-3
542.988396E-3
542.837906E-3
542.831039E-3
543.120575E-3
543.261909E-3
543.290520E-3
543.441582E-3
543.315125E-3
543.686485E-3
543.759155E-3
543.924522E-3
544.256973E-3
544.036674E-3
544.363403E-3
544.303894E-3
544.394875E-3
544.707870E-3
544.404030E-3
544.216347E-3
543.472481E-3
542.441368E-3
541.633987E-3
540.720177E-3
540.533066E-3
540.131378E-3
539.844131E-3
539.996338E-3
539.961433E-3
540.253830E-3
540.150833E-3
540.280724E-3
540.662956E-3
540.565109E-3
540.774536E-3
540.795708E-3
540.821457E-3
541.132164E-3
540.971375E-3
541.437149E-3
541.441727E-3
541.411972E-3
541.732407E-3
541.705513E-3
542.354393E-3
542.270851E-3
542.258263E-3
542.371559E-3
542.057991E-3
542.185020E-3
541.805077E-3
541.739273E-3
541.968727E-3
541.721535E-3
542.012215E-3
541.834259E-3
541.749573E-3
541.986465E-3
541.922379E-3
542.272568E-3
542.329216E-3
542.468834E-3
542.758369E-3
542.780685E-3
543.141174E-3
543.263626E-3
543.335152E-3
543.664169E-3
543.481636E-3
543.842697E-3
543.847847E-3
543.728256E-3
544.009209E-3
543.800926E-3
544.115067E-3
544.109917E-3
543.925667E-3
544.029808E-3
543.861008E-3
544.332504E-3
544.184875E-3
544.267273E-3
544.355392E-3
544.195747E-3
544.507027E-3
544.462967E-3
544.365120E-3
544.497871E-3
544.293022E-3
544.691277E-3
544.680977E-3
544.605446E-3
544.763947E-3
544.362259E-3
544.780540E-3
544.919586E-3
544.906425E-3
545.208549E-3
545.137596E-3
545.438004E-3
545.482635E-3
545.438576E-3
545.447159E-3
545.322990E-3
545.496368E-3
545.138741E-3
544.501305E-3
544.031525E-3
542.969513E-3
542.456818E-3
541.909218E-3
541.356468E-3
540.904427E-3
540.540504E-3
540.832329E-3
540.727043E-3
540.631485E-3
540.808296E-3
540.775681E-3
541.249466E-3
541.167641E-3
541.151047E-3
541.269493E-3
541.083527E-3
541.372490E-3
541.266060E-3
541.118431E-3
541.411972E-3
541.313553E-3
541.760445E-3
541.954994E-3
541.875458E-3
542.322922E-3
542.111206E-3
542.361259E-3
542.214203E-3
541.925240E-3
541.978455E-3
541.565323E-3
541.954994E-3
541.955566E-3
541.771889E-3
541.910362E-3
541.691780E-3
541.988182E-3
542.115784E-3
541.992187E-3
542.218781E-3
542.122078E-3
542.588997E-3
542.697144E-3
542.684555E-3
542.912865E-3
542.766380E-3
543.233871E-3
543.146324E-3
543.059349E-3
543.308258E-3
543.104553E-3
543.682480E-3
543.628693E-3
543.426704E-3
543.658447E-3
543.400955E-3
543.700218E-3
543.751144E-3
543.685341E-3
543.823242E-3
543.442154E-3
543.703651E-3
543.790054E-3
543.768883E-3
543.953133E-3
543.722534E-3
543.961716E-3
544.046402E-3
543.641853E-3
543.917656E-3
543.800354E-3
544.048119E-3
544.064713E-3
543.877602E-3
544.168854E-3
544.059563E-3
544.413185E-3
544.623756E-3
544.616890E-3
544.874382E-3
544.795418E-3
544.913292E-3
544.977951E-3
544.708443E-3
544.842339E-3
544.700432E-3
544.590569E-3
544.131660E-3
543.360901E-3
542.716599E-3
541.859436E-3
541.394806E-3
540.951347E-3
540.351677E-3
540.491295E-3
540.308762E-3
540.732193E-3
540.848351E-3
540.681839E-3
540.812302E-3
540.699005E-3
541.074944E-3
541.267204E-3
541.126442E-3
541.343307E-3
541.258049E-3
541.508102E-3
541.553879E-3
541.436005E-3
541.851425E-3
541.940689E-3
542.391586E-3
542.568970E-3
542.361832E-3
542.492294E-3
542.340088E-3
542.416763E-3
542.383575E-3
542.130661E-3
542.297173E-3
542.182732E-3
542.378998E-3
542.279434E-3
542.207909E-3
542.390442E-3
542.382431E-3
542.563820E-3
542.849922E-3
542.761803E-3
543.158340E-3
543.296242E-3
543.641853E-3
543.814087E-3
543.705368E-3
543.970871E-3
543.874168E-3
544.234657E-3
544.216347E-3
544.039536E-3
544.406891E-3
544.398880E-3
544.686127E-3
544.816017E-3
544.602013E-3
544.884682E-3
544.780540E-3
544.822311E-3
544.912148E-3
544.713020E-3
544.985390E-3
544.825745E-3
544.983673E-3
545.065498E-3
544.927597E-3
545.170784E-3
545.118141E-3
545.153618E-3
545.192528E-3
545.053482E-3
545.337868E-3
545.292091E-3
545.483208E-3
545.456886E-3
545.408821E-3
545.831108E-3
545.770454E-3
545.915222E-3
546.024513E-3
545.917511E-3
546.300316E-3
546.286011E-3
546.264839E-3
546.089745E-3
545.523262E-3
545.130157E-3
544.250679E-3
543.662453E-3
542.770386E-3
542.060280E-3
542.022514E-3
541.614532E-3
541.597939E-3
541.766739E-3
541.516113E-3
541.962433E-3
541.830254E-3
542.126656E-3
542.297745E-3
542.206192E-3
542.587280E-3
542.409897E-3
542.434502E-3
542.631912E-3
542.514038E-3
542.966652E-3
542.847633E-3
543.066216E-3
543.331146E-3
543.359184E-3
543.808937E-3
543.661308E-3
543.419838E-3
543.556595E-3
543.283653E-3
543.544006E-3
543.249321E-3
543.286514E-3
543.331146E-3
543.187523E-3
543.522263E-3
543.395233E-3
543.321419E-3
543.610382E-3
543.394661E-3
544.069862E-3
543.934250E-3
544.101906E-3
544.384575E-3
544.409752E-3
544.809723E-3
544.728470E-3
544.813156E-3
544.965363E-3
544.976234E-3
545.302391E-3
545.170212E-3
545.347595E-3
545.581627E-3
545.261765E-3
545.656013E-3
545.433998E-3
545.452309E-3
545.739555E-3
545.524406E-3
545.906639E-3
545.808792E-3
545.762444E-3
545.968437E-3
545.849991E-3
546.159554E-3
546.030807E-3
546.015930E-3
546.146965E-3
545.463753E-3
546.216202E-3
545.934677E-3
546.035957E-3
546.210480E-3
546.168137E-3
546.562386E-3
546.481705E-3
546.586990E-3
546.808434E-3
546.758652E-3
547.083664E-3
546.891403E-3
546.981812E-3
547.222137E-3
547.198105E-3
547.451591E-3
547.118568E-3
546.893120E-3
546.573830E-3
545.466042E-3
545.195961E-3
544.058418E-3
543.356323E-3
542.946625E-3
542.398453E-3
542.456818E-3
542.156410E-3
542.143822E-3
542.400742E-3
542.444229E-3
542.871666E-3
542.836189E-3
542.807579E-3
543.124580E-3
542.997551E-3
