Notes :


2023-11-06 ¿ÀÈÄ 11:11:22
Volts
Ch : LED 2,
375.261497E-3
375.086403E-3
375.039482E-3
374.941635E-3
374.999428E-3
375.014305E-3
374.874687E-3
375.069809E-3
374.928474E-3
374.795151E-3
374.817467E-3
374.704742E-3
374.780273E-3
374.685287E-3
374.584579E-3
374.621201E-3
374.361420E-3
374.508476E-3
374.561691E-3
374.578857E-3
374.534798E-3
374.279022E-3
374.389458E-3
374.387169E-3
374.387741E-3
374.453545E-3
374.257851E-3
374.309921E-3
374.210358E-3
374.102783E-3
374.197197E-3
373.990631E-3
374.014091E-3
373.927689E-3
373.933983E-3
373.861313E-3
373.724556E-3
373.717690E-3
373.494530E-3
373.559761E-3
373.630714E-3
373.417282E-3
373.520851E-3
373.429298E-3
373.490524E-3
374.013519E-3
374.396324E-3
375.217438E-3
375.930977E-3
376.566124E-3
377.177811E-3
377.486229E-3
377.921677E-3
378.020096E-3
377.858162E-3
377.823830E-3
377.615547E-3
377.471924E-3
377.087402E-3
376.809883E-3
376.729774E-3
376.481438E-3
376.513481E-3
376.379013E-3
376.370430E-3
376.542664E-3
376.456833E-3
376.564407E-3
376.533508E-3
376.483154E-3
376.401901E-3
376.190758E-3
376.163292E-3
375.893211E-3
375.849152E-3
375.987053E-3
375.858879E-3
375.822258E-3
375.869179E-3
375.930977E-3
376.076889E-3
376.066017E-3
376.152420E-3
376.138115E-3
376.168442E-3
376.123810E-3
375.753021E-3
375.758171E-3
375.727272E-3
375.556755E-3
375.434303E-3
375.167656E-3
375.215721E-3
375.149345E-3
375.002861E-3
375.086975E-3
374.965668E-3
374.913025E-3
374.795151E-3
374.700165E-3
374.701881E-3
374.618912E-3
374.588013E-3
374.516487E-3
374.460983E-3
374.483299E-3
374.320221E-3
374.430084E-3
374.500465E-3
374.439812E-3
374.505615E-3
374.376297E-3
374.486732E-3
374.490738E-3
374.318504E-3
374.360275E-3
374.213219E-3
374.310493E-3
374.232674E-3
374.256134E-3
374.258995E-3
374.247551E-3
374.266434E-3
374.178886E-3
374.039268E-3
374.058723E-3
373.912811E-3
373.907661E-3
373.950005E-3
373.870468E-3
373.836708E-3
373.741150E-3
373.554611E-3
373.488808E-3
373.358917E-3
373.344612E-3
373.234177E-3
373.270798E-3
373.346329E-3
373.571777E-3
374.192047E-3
374.744797E-3
375.362206E-3
376.057434E-3
376.482582E-3
376.906586E-3
377.120590E-3
377.266502E-3
377.239037E-3
377.047920E-3
377.103424E-3
376.816750E-3
376.650810E-3
376.392174E-3
376.165009E-3
375.956726E-3
375.632286E-3
375.600243E-3
375.544739E-3
375.572205E-3
375.607681E-3
375.575638E-3
375.650597E-3
375.452042E-3
375.243759E-3
375.175095E-3
375.000000E-3
375.034904E-3
374.937630E-3
374.961090E-3
375.046921E-3
374.992561E-3
375.087547E-3
375.059509E-3
375.168800E-3
375.367355E-3
375.357056E-3
375.359344E-3
375.344467E-3
375.096703E-3
375.116158E-3
374.920464E-3
374.834061E-3
374.670410E-3
374.522209E-3
374.404335E-3
374.268723E-3
374.212646E-3
374.129677E-3
374.043274E-3
373.979187E-3
373.924828E-3
373.952866E-3
373.879623E-3
373.710251E-3
373.753738E-3
373.598671E-3
373.656464E-3
373.536301E-3
373.524284E-3
373.614693E-3
373.407555E-3
373.555756E-3
373.553467E-3
373.547173E-3
373.566055E-3
373.386383E-3
373.402977E-3
373.468781E-3
373.415565E-3
373.340607E-3
373.269081E-3
373.397827E-3
373.415565E-3
373.230743E-3
373.309708E-3
373.235321E-3
373.291397E-3
373.245621E-3
373.158073E-3
373.152351E-3
372.993279E-3
372.989845E-3
372.994995E-3
372.862816E-3
372.856522E-3
372.767258E-3
372.727203E-3
372.682571E-3
372.600746E-3
372.684288E-3
372.595024E-3
372.716904E-3
373.044777E-3
373.436165E-3
374.128532E-3
374.699593E-3
375.345039E-3
376.112938E-3
376.599884E-3
377.042198E-3
377.289391E-3
377.302551E-3
377.212715E-3
376.999283E-3
376.906586E-3
376.463127E-3
376.390457E-3
376.206779E-3
375.921822E-3
375.914955E-3
375.742722E-3
375.784492E-3
375.868607E-3
375.835991E-3
376.017952E-3
375.965309E-3
375.969887E-3
375.992775E-3
375.796509E-3
375.780487E-3
375.494385E-3
375.487518E-3
375.345039E-3
375.287819E-3
375.342751E-3
375.251198E-3
375.304413E-3
375.447464E-3
375.583649E-3
375.625420E-3
375.560188E-3
375.607681E-3
375.692368E-3
375.526428E-3
375.504684E-3
375.287247E-3
375.179672E-3
375.092697E-3
374.966812E-3
374.784851E-3
374.581718E-3
374.562836E-3
374.513054E-3
374.357414E-3
374.408913E-3
374.297905E-3
374.283600E-3
374.293900E-3
374.147987E-3
374.164009E-3
374.018669E-3
374.088478E-3
374.121666E-3
374.082184E-3
374.035263E-3
373.907661E-3
373.954582E-3
373.893929E-3
373.947144E-3
373.922539E-3
373.845863E-3
373.848724E-3
373.935699E-3
373.823547E-3
373.849869E-3
373.778343E-3
373.825264E-3
373.757172E-3
373.742867E-3
373.693085E-3
373.640442E-3
373.659897E-3
373.663902E-3
373.511124E-3
373.563194E-3
373.483086E-3
373.373222E-3
373.414421E-3
373.194695E-3
373.290253E-3
373.179817E-3
373.141479E-3
373.221588E-3
373.089409E-3
373.203278E-3
373.041916E-3
372.970390E-3
372.970963E-3
372.790718E-3
372.898293E-3
373.056221E-3
373.397827E-3
374.017525E-3
374.743080E-3
375.603676E-3
376.183891E-3
376.689720E-3
377.107430E-3
377.303696E-3
377.479935E-3
377.322006E-3
377.228737E-3
377.029610E-3
376.681137E-3
376.554108E-3
376.234818E-3
376.009941E-3
375.917244E-3
375.736427E-3
375.787354E-3
375.700951E-3
375.788498E-3
375.857162E-3
375.863457E-3
375.929832E-3
375.826836E-3
375.765038E-3
375.639153E-3
375.144196E-3
375.212288E-3
375.115585E-3
375.081825E-3
375.166512E-3
375.119019E-3
375.155640E-3
375.229454E-3
375.171661E-3
375.367928E-3
375.244331E-3
375.292397E-3
375.254059E-3
375.195694E-3
375.157928E-3
374.953651E-3
374.935913E-3
374.668121E-3
374.406052E-3
374.339676E-3
374.192619E-3
374.176025E-3
374.021530E-3
373.902512E-3
373.832130E-3
373.670197E-3
373.624420E-3
373.594093E-3
373.479652E-3
373.418427E-3
373.262787E-3
373.331451E-3
373.288536E-3
373.206711E-3
373.217583E-3
373.107719E-3
373.084259E-3
373.095703E-3
373.078537E-3
373.202705E-3
372.990990E-3
373.080254E-3
373.016739E-3
372.929764E-3
373.074532E-3
372.956085E-3
372.885132E-3
372.851372E-3
372.721481E-3
372.703171E-3
372.581291E-3
372.598457E-3
372.403908E-3
372.268867E-3
372.227669E-3
372.057724E-3
372.009087E-3
371.894073E-3
371.852303E-3
371.768761E-3
371.537018E-3
371.508408E-3
371.356773E-3
371.264076E-3
371.266365E-3
371.146202E-3
371.146774E-3
370.997429E-3
370.963669E-3
371.030617E-3
371.014023E-3
371.397400E-3
371.753311E-3
372.409630E-3
373.162651E-3
373.729706E-3
374.440956E-3
374.795723E-3
375.040627E-3
375.246048E-3
375.219154E-3
375.140762E-3
375.051498E-3
374.750519E-3
374.556541E-3
374.191475E-3
374.076462E-3
373.816109E-3
373.624420E-3
373.572922E-3
373.390961E-3
373.553467E-3
373.495102E-3
373.454475E-3
373.598099E-3
373.441887E-3
373.419571E-3
373.211861E-3
373.003006E-3
372.958374E-3
372.915459E-3
372.987556E-3
373.021889E-3
372.948074E-3
373.139191E-3
373.087692E-3
373.264503E-3
373.327446E-3
373.412704E-3
373.450470E-3
373.336029E-3
373.399544E-3
373.258781E-3
373.137474E-3
373.065376E-3
372.850800E-3
372.871399E-3
372.715759E-3
372.571564E-3
372.521782E-3
372.308350E-3
372.312927E-3
372.220802E-3
372.188187E-3
372.270584E-3
372.062302E-3
372.038269E-3
372.010231E-3
371.955872E-3
372.008514E-3
371.947289E-3
372.019386E-3
372.032547E-3
371.878624E-3
371.940994E-3
371.815109E-3
371.846008E-3
371.855736E-3
371.767044E-3
371.903801E-3
371.815681E-3
371.860886E-3
371.863747E-3
371.801376E-3
371.819115E-3
371.732140E-3
371.776772E-3
371.753311E-3
371.649170E-3
371.663475E-3
371.559906E-3
371.769333E-3
371.629143E-3
371.496391E-3
371.513557E-3
371.415138E-3
371.443748E-3
371.368790E-3
371.325302E-3
371.385956E-3
371.313286E-3
371.345329E-3
371.126175E-3
371.056938E-3
371.151352E-3
371.020317E-3
371.088982E-3
371.027184E-3
371.237755E-3
371.593094E-3
372.017097E-3
372.748375E-3
373.420715E-3
373.925400E-3
374.572563E-3
375.026894E-3
375.449181E-3
375.543594E-3
375.496101E-3
375.472069E-3
375.261497E-3
375.085258E-3
374.858093E-3
374.616623E-3
374.440384E-3
374.139977E-3
374.094200E-3
374.057579E-3
374.027252E-3
374.192619E-3
374.156570E-3
374.323654E-3
374.380875E-3
374.248695E-3
374.461555E-3
374.206924E-3
374.176025E-3
373.928833E-3
373.758888E-3
373.798943E-3
373.721695E-3
373.773193E-3
373.810387E-3
373.734283E-3
373.806953E-3
373.898506E-3
374.053001E-3
374.040413E-3
374.055862E-3
374.200058E-3
374.011230E-3
373.933983E-3
373.889351E-3
373.729134E-3
373.695946E-3
373.436737E-3
373.347473E-3
373.291397E-3
373.174095E-3
373.198700E-3
373.117447E-3
373.175240E-3
373.077965E-3
372.905159E-3
372.988701E-3
372.931480E-3
372.910881E-3
372.841072E-3
372.727776E-3
372.820473E-3
372.810745E-3
372.767830E-3
372.810745E-3
372.795296E-3
372.868538E-3
372.688293E-3
372.721481E-3
372.635078E-3
372.569847E-3
372.800446E-3
372.686005E-3
372.638512E-3
372.589302E-3
372.552681E-3
372.561264E-3
372.483444E-3
372.490883E-3
372.409058E-3
372.231674E-3
372.340393E-3
372.327805E-3
372.335815E-3
372.352409E-3
372.208214E-3
372.267723E-3
372.118378E-3
372.235680E-3
372.284317E-3
372.214508E-3
372.207069E-3
372.177887E-3
372.176170E-3
372.097778E-3
371.913528E-3
371.972466E-3
371.833420E-3
371.841431E-3
371.925545E-3
371.923256E-3
372.022247E-3
372.169876E-3
372.659683E-3
373.333168E-3
373.919678E-3
374.660683E-3
375.248909E-3
375.693512E-3
376.053429E-3
376.108932E-3
376.291466E-3
376.129532E-3
375.955582E-3
375.676918E-3
375.514984E-3
375.426865E-3
375.125313E-3
374.994278E-3
374.915314E-3
374.692154E-3
374.772263E-3
374.803162E-3
374.903297E-3
375.037766E-3
374.953651E-3
375.046349E-3
374.966812E-3
374.989700E-3
374.826050E-3
374.638367E-3
374.547386E-3
374.471855E-3
374.517632E-3
374.553680E-3
374.582863E-3
374.658966E-3
374.554253E-3
374.677277E-3
374.814606E-3
374.764252E-3
374.816322E-3
374.740219E-3
374.717903E-3
374.690437E-3
374.629211E-3
374.617195E-3
374.400902E-3
374.213219E-3
374.151993E-3
373.969460E-3
373.901367E-3
373.762894E-3
373.783493E-3
373.725700E-3
373.629570E-3
373.762321E-3
373.534584E-3
373.536301E-3
373.573494E-3
373.459053E-3
373.487091E-3
373.277664E-3
373.401833E-3
373.400116E-3
373.344040E-3
373.405838E-3
373.330307E-3
373.400116E-3
373.351479E-3
373.270798E-3
373.305702E-3
373.314285E-3
373.302269E-3
373.320007E-3
373.182106E-3
373.270798E-3
373.265648E-3
373.206711E-3
373.209572E-3
373.112297E-3
373.122025E-3
373.008728E-3
373.076820E-3
373.011017E-3
372.944069E-3
372.932625E-3
372.840500E-3
372.780418E-3
372.836494E-3
372.682571E-3
372.757530E-3
372.695732E-3
372.708321E-3
372.676277E-3
372.552109E-3
372.535515E-3
372.422791E-3
372.334099E-3
372.365570E-3
372.348976E-3
372.473717E-3
372.739792E-3
373.309708E-3
374.035263E-3
374.520493E-3
375.111580E-3
375.621414E-3
375.941849E-3
376.264000E-3
376.298904E-3
376.366425E-3
376.276588E-3
375.980186E-3
375.782776E-3
375.435448E-3
375.174522E-3
374.924469E-3
374.695587E-3
374.654961E-3
374.415207E-3
374.537659E-3
374.642372E-3
374.762535E-3
374.722481E-3
374.633789E-3
374.518204E-3
374.395752E-3
374.250412E-3
374.078178E-3
374.082756E-3
374.098206E-3
374.108505E-3
374.200058E-3
374.247551E-3
374.211502E-3
374.410629E-3
374.455833E-3
374.420929E-3
374.631500E-3
374.627495E-3
374.584007E-3
374.486732E-3
374.348831E-3
374.298477E-3
374.011230E-3
373.997498E-3
373.912811E-3
373.722839E-3
373.752022E-3
373.630142E-3
373.524284E-3
373.401833E-3
373.350334E-3
373.363495E-3
373.187828E-3
373.180389E-3
373.177528E-3
373.156929E-3
373.176956E-3
373.035049E-3
373.112297E-3
373.108864E-3
373.065948E-3
373.123169E-3
373.116875E-3
373.142052E-3
373.053360E-3
373.021317E-3
373.019028E-3
372.883415E-3
372.969818E-3
372.858238E-3
372.797012E-3
372.869682E-3
372.841644E-3
372.932625E-3
372.840500E-3
372.752953E-3
372.847939E-3
372.690010E-3
372.667694E-3
372.625351E-3
372.590446E-3
372.655678E-3
372.532082E-3
372.603035E-3
372.557259E-3
372.552681E-3
372.484016E-3
372.346687E-3
372.367287E-3
372.287750E-3
372.258568E-3
372.210503E-3
372.042847E-3
372.136688E-3
372.203636E-3
372.474861E-3
372.918892E-3
373.397827E-3
374.220657E-3
374.794006E-3
375.358772E-3
375.840569E-3
376.106644E-3
376.289177E-3
376.388741E-3
376.457977E-3
376.308632E-3
376.115227E-3
375.980759E-3
375.737000E-3
375.454903E-3
375.413132E-3
375.101280E-3
375.125885E-3
375.134468E-3
375.199699E-3
375.243187E-3
375.189400E-3
375.327873E-3
375.322151E-3
375.273514E-3
375.382233E-3
375.107574E-3
374.989700E-3
374.911308E-3
374.830055E-3
374.896431E-3
374.779129E-3
374.885559E-3
374.886131E-3
374.910164E-3
375.038338E-3
375.137329E-3
375.282097E-3
375.417137E-3
375.301552E-3
375.277519E-3
375.030899E-3
375.052643E-3
374.862099E-3
374.605751E-3
374.590874E-3
374.524498E-3
374.402046E-3
374.347687E-3
374.260712E-3
374.250412E-3
374.245262E-3
374.201202E-3
374.111938E-3
374.099350E-3
374.064445E-3
373.898506E-3
373.923683E-3
373.907661E-3
373.793221E-3
373.852158E-3
373.769760E-3
373.785782E-3
373.860168E-3
373.742867E-3
373.817825E-3
373.711967E-3
373.740005E-3
373.733711E-3
373.742294E-3
373.799515E-3
373.726845E-3
373.741722E-3
373.611259E-3
373.622704E-3
373.691368E-3
373.584938E-3
373.630714E-3
373.644447E-3
373.498535E-3
373.489380E-3
373.368073E-3
373.433876E-3
373.402977E-3
373.317719E-3
373.440742E-3
373.349762E-3
373.401260E-3
373.297119E-3
373.254776E-3
373.299408E-3
373.138618E-3
373.164940E-3
373.063660E-3
373.098564E-3
373.045349E-3
373.008156E-3
373.179817E-3
373.309135E-3
373.616409E-3
374.271584E-3
374.881554E-3
375.625992E-3
376.222229E-3
376.766396E-3
377.118301E-3
377.268219E-3
377.417564E-3
377.312279E-3
377.210999E-3
377.087975E-3
376.765251E-3
376.677132E-3
376.462555E-3
376.245689E-3
376.189613E-3
376.081467E-3
376.068878E-3
376.143837E-3
376.097488E-3
376.269722E-3
376.286888E-3
376.280022E-3
376.231956E-3
376.191902E-3
376.059151E-3
375.886345E-3
375.792503E-3
375.797081E-3
375.722122E-3
375.844002E-3
375.790215E-3
375.909805E-3
375.806236E-3
375.870323E-3
376.045990E-3
376.032257E-3
376.125526E-3
376.048851E-3
375.913811E-3
375.845718E-3
375.698090E-3
375.552750E-3
375.537872E-3
375.304985E-3
375.386810E-3
375.278091E-3
375.176239E-3
375.056648E-3
375.016022E-3
375.058937E-3
374.910736E-3
374.955368E-3
374.842072E-3
374.736214E-3
374.736786E-3
374.682426E-3
374.691010E-3
374.688148E-3
374.560547E-3
374.604607E-3
374.563408E-3
374.613762E-3
374.606323E-3
374.492455E-3
374.578857E-3
374.529076E-3
374.579430E-3
374.472427E-3
374.375153E-3
374.440956E-3
374.339104E-3
374.275589E-3
374.331093E-3
374.206352E-3
374.328804E-3
374.181747E-3
374.178314E-3
374.099922E-3
374.025536E-3
374.109077E-3
374.003792E-3
373.975182E-3
374.040413E-3
373.901367E-3
373.990631E-3
373.804665E-3
373.735428E-3
373.668480E-3
373.506546E-3
373.535728E-3
373.297119E-3
373.346901E-3
373.260498E-3
373.209572E-3
373.329163E-3
373.397255E-3
373.808670E-3
