Notes :


2023-11-06 ¿ÀÈÄ 11:02:44
Volts
Ch : LED 2,
406.070137E-3
406.063843E-3
406.074142E-3
406.031799E-3
405.919075E-3
405.709076E-3
405.659294E-3
405.705643E-3
405.490494E-3
405.376053E-3
405.152893E-3
405.054474E-3
405.096817E-3
405.082512E-3
404.912567E-3
404.815865E-3
404.732323E-3
404.718018E-3
404.488564E-3
404.540062E-3
404.461670E-3
404.425049E-3
404.406738E-3
404.252243E-3
404.225922E-3
404.236794E-3
404.239655E-3
404.244232E-3
404.094315E-3
404.103470E-3
404.100609E-3
404.142952E-3
404.074860E-3
404.038811E-3
404.006195E-3
403.969574E-3
403.894043E-3
403.878021E-3
403.734970E-3
403.734398E-3
403.560448E-3
403.676033E-3
403.695488E-3
403.536415E-3
403.609657E-3
403.506660E-3
403.498077E-3
403.442001E-3
403.297806E-3
403.369331E-3
403.324699E-3
403.326988E-3
403.210258E-3
403.150749E-3
403.108978E-3
403.078651E-3
402.960777E-3
402.878952E-3
402.843475E-3
402.807426E-3
402.761650E-3
402.682114E-3
402.731895E-3
402.797699E-3
403.156471E-3
403.622818E-3
404.368973E-3
405.254745E-3
406.090164E-3
406.819725E-3
407.365036E-3
407.657433E-3
407.846260E-3
407.825089E-3
407.787323E-3
407.619095E-3
407.279778E-3
407.037163E-3
406.617737E-3
406.402588E-3
406.124496E-3
406.038094E-3
405.901909E-3
405.916214E-3
405.864143E-3
405.841255E-3
405.790901E-3
405.778313E-3
405.693626E-3
405.686188E-3
405.562592E-3
405.348587E-3
405.264473E-3
405.211258E-3
405.206680E-3
405.305099E-3
405.345154E-3
405.451012E-3
405.517387E-3
405.604362E-3
405.734825E-3
405.808640E-3
405.831528E-3
405.714226E-3
405.677605E-3
405.528831E-3
405.458450E-3
405.315971E-3
405.042458E-3
404.917717E-3
404.791832E-3
404.613304E-3
404.601860E-3
404.418182E-3
404.300880E-3
404.110909E-3
404.042816E-3
404.018211E-3
403.898048E-3
403.658295E-3
403.681755E-3
403.618813E-3
403.684044E-3
403.569031E-3
403.649139E-3
403.603363E-3
403.442574E-3
403.538132E-3
403.480911E-3
403.369904E-3
403.330421E-3
403.127289E-3
403.275490E-3
403.202820E-3
403.136444E-3
403.066063E-3
403.062630E-3
402.940750E-3
402.754784E-3
402.784538E-3
402.777100E-3
402.705002E-3
402.761650E-3
402.639198E-3
402.630043E-3
402.589417E-3
402.539635E-3
402.476120E-3
402.384567E-3
402.379417E-3
402.310753E-3
402.300453E-3
402.245522E-3
401.958847E-3
401.969147E-3
401.923943E-3
401.820946E-3
401.858711E-3
401.772308E-3
401.785469E-3
401.762009E-3
401.862717E-3
402.412605E-3
402.991676E-3
403.832817E-3
404.596138E-3
405.405807E-3
406.040382E-3
406.450653E-3
406.902695E-3
407.152748E-3
407.204819E-3
407.128716E-3
406.847191E-3
406.548500E-3
406.206894E-3
405.927658E-3
405.765724E-3
405.529404E-3
405.450439E-3
405.150032E-3
405.190659E-3
405.183792E-3
405.204964E-3
405.336571E-3
405.296516E-3
405.251312E-3
405.218124E-3
405.044746E-3
404.838753E-3
404.782104E-3
404.725456E-3
404.831314E-3
404.800987E-3
404.968071E-3
404.985237E-3
405.023575E-3
405.099678E-3
405.225563E-3
405.261040E-3
405.258751E-3
405.218124E-3
405.380058E-3
405.175209E-3
405.104828E-3
405.005836E-3
404.823875E-3
404.860497E-3
404.639053E-3
404.462242E-3
404.366112E-3
404.269409E-3
404.206467E-3
404.016495E-3
404.001617E-3
403.856850E-3
403.905487E-3
403.857994E-3
403.753281E-3
403.759003E-3
403.685188E-3
403.573608E-3
403.603935E-3
403.440857E-3
403.478050E-3
403.444290E-3
403.470039E-3
403.394508E-3
403.305244E-3
403.446579E-3
403.380775E-3
403.402519E-3
403.380775E-3
403.232574E-3
403.173637E-3
403.175926E-3
403.231430E-3
403.294945E-3
403.096390E-3
403.091240E-3
403.041458E-3
402.872658E-3
402.927589E-3
402.826309E-3
402.897835E-3
402.870941E-3
402.813721E-3
402.844048E-3
402.793121E-3
402.766228E-3
402.725601E-3
402.570534E-3
402.573395E-3
402.452660E-3
402.402306E-3
402.297592E-3
402.255249E-3
402.223778E-3
402.125359E-3
402.216339E-3
402.314758E-3
402.552795E-3
403.015137E-3
403.725243E-3
404.536629E-3
405.381203E-3
406.028366E-3
406.691551E-3
407.030296E-3
407.442856E-3
407.422829E-3
407.491493E-3
407.427979E-3
407.118416E-3
406.912422E-3
406.642342E-3
406.380272E-3
406.068993E-3
405.887604E-3
405.900764E-3
405.912781E-3
405.891037E-3
406.003189E-3
405.980301E-3
406.048393E-3
405.996323E-3
406.020355E-3
405.987740E-3
405.862999E-3
405.796623E-3
405.685616E-3
405.528259E-3
405.556297E-3
405.625534E-3
405.702209E-3
405.636978E-3
405.776596E-3
405.914497E-3
405.915070E-3
406.030083E-3
406.023788E-3
406.015778E-3
405.961418E-3
405.882454E-3
405.865288E-3
405.708504E-3
405.643272E-3
405.537987E-3
405.318260E-3
405.275345E-3
405.104256E-3
404.990387E-3
405.038452E-3
404.834747E-3
404.870224E-3
404.754639E-3
404.707718E-3
404.718018E-3
404.537201E-3
404.580116E-3
404.574394E-3
404.447937E-3
404.487991E-3
404.417038E-3
404.457664E-3
404.362679E-3
404.307747E-3
404.434776E-3
404.413605E-3
404.367256E-3
404.382133E-3
404.294014E-3
404.334641E-3
404.330635E-3
404.347229E-3
404.196167E-3
404.150391E-3
404.261398E-3
404.136086E-3
404.130363E-3
404.130936E-3
404.110909E-3
404.088020E-3
403.971291E-3
404.015923E-3
403.942680E-3
403.839684E-3
403.837967E-3
403.820801E-3
403.802490E-3
403.768730E-3
403.657150E-3
403.615952E-3
403.488350E-3
403.431702E-3
403.417969E-3
403.547859E-3
403.621674E-3
403.435135E-3
403.496933E-3
403.606224E-3
404.015350E-3
404.661369E-3
405.389214E-3
406.268692E-3
407.201385E-3
407.744408E-3
408.099174E-3
408.382416E-3
408.507729E-3
408.461952E-3
408.342361E-3
408.103180E-3
407.820511E-3
407.723236E-3
407.349586E-3
407.072067E-3
406.933022E-3
406.715012E-3
406.669235E-3
406.642914E-3
406.597137E-3
406.648636E-3
406.617165E-3
406.605148E-3
406.526184E-3
406.450081E-3
406.313324E-3
406.151962E-3
406.113052E-3
406.152534E-3
406.212044E-3
406.077576E-3
406.287575E-3
406.522179E-3
406.593132E-3
406.588554E-3
406.713867E-3
406.674957E-3
406.692123E-3
406.679535E-3
406.509018E-3
406.428909E-3
406.274414E-3
406.126213E-3
405.930519E-3
405.789757E-3
405.721664E-3
405.464172E-3
405.349731E-3
405.266190E-3
405.164337E-3
405.111122E-3
405.037308E-3
405.037880E-3
404.926300E-3
404.768372E-3
404.771805E-3
404.569817E-3
404.534912E-3
404.593849E-3
404.509163E-3
404.452515E-3
404.332924E-3
404.311752E-3
404.244232E-3
404.126930E-3
404.160690E-3
404.057121E-3
404.030800E-3
404.026222E-3
403.955269E-3
403.878021E-3
403.843689E-3
403.788185E-3
403.800201E-3
403.715515E-3
403.749847E-3
403.719521E-3
403.673744E-3
403.571320E-3
403.564453E-3
403.429413E-3
403.361893E-3
403.232574E-3
403.211975E-3
403.106117E-3
403.078651E-3
402.927589E-3
402.890396E-3
402.824020E-3
402.759361E-3
402.742195E-3
402.742195E-3
402.828026E-3
403.222275E-3
403.768158E-3
404.570389E-3
405.279350E-3
406.115341E-3
406.746483E-3
407.236862E-3
407.631111E-3
407.806778E-3
407.738113E-3
407.726097E-3
407.611656E-3
407.454300E-3
407.132149E-3
406.787109E-3
406.590271E-3
406.477547E-3
406.284714E-3
406.170273E-3
406.246376E-3
406.119919E-3
406.118774E-3
406.212044E-3
406.183434E-3
406.236076E-3
405.995178E-3
405.946541E-3
405.892181E-3
405.680466E-3
405.703354E-3
405.655289E-3
405.783463E-3
405.893898E-3
405.853271E-3
405.874443E-3
405.927086E-3
405.931664E-3
406.132507E-3
406.127357E-3
406.156540E-3
406.090736E-3
406.011772E-3
405.873871E-3
405.875015E-3
405.670738E-3
405.476761E-3
405.306244E-3
405.148888E-3
405.088806E-3
405.035019E-3
404.911423E-3
404.791260E-3
404.834747E-3
404.712868E-3
404.696274E-3
404.559517E-3
404.511452E-3
404.506874E-3
404.387856E-3
404.429054E-3
404.338074E-3
404.299736E-3
404.348946E-3
404.253387E-3
404.289436E-3
404.218483E-3
404.160118E-3
404.208755E-3
404.050255E-3
404.116058E-3
404.034233E-3
403.945541E-3
404.008484E-3
403.960991E-3
403.954124E-3
403.901482E-3
403.853989E-3
403.977585E-3
403.841400E-3
403.774452E-3
403.737831E-3
403.618813E-3
403.684044E-3
403.607368E-3
403.724098E-3
403.573036E-3
403.405380E-3
403.428268E-3
403.354454E-3
403.383636E-3
403.190804E-3
403.107262E-3
403.149605E-3
403.042603E-3
403.091812E-3
403.154182E-3
403.198814E-3
403.664589E-3
404.146385E-3
404.867363E-3
405.661011E-3
406.367683E-3
407.096672E-3
407.623672E-3
408.142090E-3
408.194160E-3
408.186150E-3
408.190155E-3
408.015060E-3
407.776451E-3
407.538414E-3
407.229424E-3
407.040596E-3
406.715012E-3
406.622887E-3
406.693840E-3
406.613731E-3
406.574821E-3
406.621742E-3
406.637764E-3
406.709862E-3
406.744194E-3
406.771660E-3
406.674385E-3
406.550789E-3
406.405449E-3
406.299019E-3
406.368828E-3
406.336212E-3
406.359673E-3
406.339073E-3
406.245804E-3
406.466675E-3
406.513023E-3
406.612587E-3
406.669807E-3
406.599426E-3
406.664658E-3
406.550789E-3
406.537628E-3
406.385994E-3
406.242943E-3
406.155396E-3
405.986023E-3
405.941391E-3
405.891037E-3
405.705643E-3
405.699921E-3
405.534554E-3
405.703354E-3
405.509377E-3
405.390930E-3
405.443573E-3
405.323410E-3
405.299950E-3
405.323410E-3
405.118561E-3
405.181503E-3
405.164337E-3
405.171204E-3
405.148315E-3
405.149460E-3
405.149460E-3
405.092812E-3
405.097961E-3
405.097961E-3
405.026436E-3
405.057907E-3
404.964638E-3
404.947472E-3
404.915428E-3
404.788399E-3
404.918289E-3
404.809570E-3
404.877090E-3
404.853630E-3
404.759216E-3
404.729462E-3
404.616737E-3
404.657364E-3
404.589844E-3
404.621887E-3
404.749489E-3
404.572105E-3
404.562378E-3
404.478836E-3
404.422188E-3
404.417038E-3
404.310036E-3
404.223633E-3
404.270554E-3
404.142952E-3
404.267120E-3
404.204750E-3
404.205322E-3
404.114342E-3
404.179573E-3
404.651642E-3
405.198097E-3
406.027222E-3
406.795120E-3
407.661438E-3
408.282852E-3
408.641052E-3
408.900833E-3
409.082794E-3
409.055328E-3
409.031296E-3
408.721161E-3
408.570671E-3
408.441925E-3
408.092308E-3
407.869720E-3
407.648277E-3
407.605934E-3
407.458878E-3
407.447433E-3
407.545280E-3
407.489204E-3
407.627106E-3
407.508087E-3
407.381630E-3
407.409096E-3
407.183647E-3
407.074928E-3
407.028008E-3
406.861496E-3
406.929588E-3
407.014275E-3
407.148743E-3
407.236862E-3
407.300949E-3
407.413673E-3
407.445145E-3
407.390213E-3
407.335281E-3
407.273483E-3
407.262039E-3
407.138443E-3
407.040596E-3
406.910133E-3
406.699562E-3
406.587410E-3
406.434631E-3
406.368256E-3
406.256676E-3
406.389999E-3
406.158829E-3
406.109047E-3
405.969429E-3
405.796051E-3
405.728531E-3
405.816078E-3
405.628967E-3
405.537415E-3
405.502510E-3
405.413818E-3
405.418968E-3
405.337715E-3
405.363464E-3
405.267334E-3
405.153465E-3
405.251312E-3
405.069351E-3
405.031013E-3
404.962921E-3
404.845047E-3
404.892540E-3
404.768372E-3
404.746628E-3
404.669952E-3
404.615021E-3
404.591560E-3
404.528046E-3
404.452515E-3
404.427910E-3
404.290009E-3
404.307747E-3
404.180145E-3
404.105186E-3
404.170990E-3
403.968430E-3
403.894043E-3
403.746986E-3
403.657722E-3
403.617096E-3
403.467751E-3
403.421402E-3
403.409386E-3
403.251457E-3
403.298378E-3
403.336143E-3
403.559875E-3
403.971863E-3
404.667664E-3
405.439568E-3
406.102753E-3
406.868362E-3
407.369614E-3
407.727242E-3
407.996178E-3
408.084869E-3
408.104324E-3
407.849693E-3
407.785034E-3
407.524681E-3
407.158470E-3
406.806564E-3
406.656075E-3
406.466103E-3
406.508446E-3
406.494713E-3
406.526184E-3
406.411743E-3
406.424332E-3
406.531334E-3
406.339645E-3
406.423759E-3
406.266403E-3
406.173134E-3
406.100464E-3
405.964851E-3
405.930519E-3
406.007767E-3
406.016350E-3
406.135368E-3
406.125069E-3
406.282425E-3
406.235504E-3
406.293297E-3
406.377411E-3
406.244087E-3
406.264114E-3
406.164551E-3
406.341934E-3
406.052971E-3
405.820656E-3
405.718231E-3
405.528259E-3
405.421829E-3
405.354881E-3
405.288506E-3
405.260468E-3
405.249596E-3
405.059624E-3
404.989243E-3
404.832458E-3
404.905128E-3
404.758644E-3
404.757500E-3
404.718018E-3
404.655647E-3
404.792404E-3
404.546356E-3
404.524612E-3
404.569817E-3
404.423332E-3
404.544067E-3
404.529762E-3
404.522896E-3
404.432487E-3
404.387856E-3
404.365540E-3
404.276276E-3
404.326057E-3
404.229927E-3
404.219055E-3
404.232216E-3
404.016495E-3
404.024506E-3
404.121208E-3
403.939247E-3
403.959274E-3
403.924370E-3
403.904915E-3
403.924370E-3
403.896332E-3
403.942680E-3
403.879738E-3
403.745270E-3
403.722382E-3
403.602219E-3
403.577614E-3
403.439140E-3
403.339005E-3
403.310394E-3
403.244591E-3
403.313828E-3
403.276634E-3
403.397369E-3
403.775024E-3
404.344368E-3
405.090523E-3
405.865288E-3
406.532478E-3
407.255173E-3
407.728386E-3
408.114052E-3
408.301735E-3
408.372688E-3
408.270836E-3
408.057404E-3
407.905197E-3
407.588768E-3
407.200813E-3
407.140160E-3
406.906700E-3
406.848335E-3
406.764221E-3
406.846619E-3
406.883240E-3
406.873512E-3
406.981087E-3
406.872940E-3
407.026291E-3
406.937599E-3
406.879234E-3
406.713867E-3
406.509590E-3
406.373405E-3
406.373405E-3
406.367683E-3
406.590843E-3
406.558800E-3
406.543350E-3
406.578827E-3
406.573677E-3
406.684685E-3
406.665802E-3
406.699562E-3
406.685257E-3
406.348228E-3
406.493568E-3
406.477547E-3
406.295586E-3
406.253815E-3
406.010056E-3
405.957985E-3
405.825806E-3
405.725098E-3
405.781174E-3
405.645561E-3
405.678177E-3
405.491066E-3
405.396652E-3
405.440712E-3
405.365753E-3
405.333138E-3
405.283928E-3
405.219269E-3
405.273628E-3
405.186081E-3
405.156326E-3
405.161476E-3
405.168915E-3
405.132294E-3
404.699135E-3
404.874802E-3
404.992104E-3
404.953194E-3
405.028725E-3
404.913139E-3
404.904556E-3
404.866791E-3
404.848480E-3
404.512596E-3
404.720879E-3
404.765511E-3
404.857063E-3
404.795837E-3
404.739761E-3
404.623604E-3
404.398155E-3
404.491425E-3
404.532623E-3
404.563522E-3
404.501152E-3
404.507446E-3
404.444504E-3
404.447937E-3
404.450798E-3
404.415894E-3
404.398727E-3
404.290581E-3
404.243088E-3
404.277420E-3
404.222488E-3
404.225922E-3
404.231644E-3
404.366684E-3
404.827881E-3
405.397797E-3
406.125069E-3
406.940460E-3
407.605362E-3
408.295441E-3
408.689117E-3
409.039307E-3
409.058762E-3
409.027290E-3
408.915138E-3
408.733177E-3
408.525467E-3
408.241653E-3
407.993889E-3
407.845688E-3
407.715225E-3
407.532120E-3
407.231712E-3
407.508087E-3
407.490349E-3
407.537842E-3
407.627106E-3
407.651138E-3
407.622528E-3
407.556725E-3
407.252884E-3
407.135582E-3
407.013130E-3
407.081223E-3
407.149887E-3
407.121277E-3
407.201958E-3
407.166481E-3
407.482910E-3
407.420540E-3
407.343292E-3
407.415390E-3
407.330704E-3
407.354164E-3
407.323837E-3
407.181358E-3
407.117844E-3
407.189369E-3
406.831169E-3
406.679535E-3
406.522751E-3
406.504440E-3
406.342506E-3
406.287003E-3
406.173134E-3
406.043243E-3
406.331062E-3
406.023788E-3
405.914497E-3
405.845833E-3
405.716515E-3
405.745125E-3
405.662155E-3
405.617523E-3
405.553436E-3
405.000114E-3
405.230141E-3
405.267334E-3
405.224419E-3
405.194664E-3
405.142593E-3
405.122566E-3
405.136871E-3
405.038452E-3
405.015564E-3
404.932022E-3
404.952621E-3
404.865646E-3
404.745483E-3
404.711723E-3
404.608727E-3
404.614449E-3
404.521751E-3
