Notes :


2023-10-28 ¿ÀÀü 12:10:57
Volts
Ch : LED 2,Ch : LED 3,
519.067383E-3,489.854050E-3
517.354774E-3,489.332199E-3
518.769836E-3,490.374756E-3
517.573357E-3,489.273262E-3
517.833138E-3,489.597702E-3
518.114090E-3,489.425468E-3
517.422867E-3,488.791466E-3
518.434525E-3,490.452576E-3
517.280960E-3,489.289284E-3
517.580795E-3,489.343071E-3
517.302704E-3,489.356804E-3
516.805458E-3,489.023209E-3
518.362999E-3,490.155602E-3
517.180824E-3,489.241791E-3
517.645454E-3,489.591408E-3
517.968750E-3,489.326477E-3
517.219734E-3,488.910484E-3
518.059158E-3,490.070915E-3
516.363716E-3,488.344574E-3
515.987206E-3,488.488197E-3
516.379738E-3,488.852119E-3
515.067673E-3,487.983513E-3
515.679932E-3,488.565445E-3
513.659477E-3,487.308884E-3
513.250351E-3,487.363815E-3
512.903595E-3,487.686539E-3
511.847305E-3,486.783028E-3
512.382889E-3,487.394714E-3
511.012459E-3,486.069489E-3
511.627007E-3,486.593056E-3
513.591385E-3,487.239647E-3
515.321159E-3,487.574959E-3
520.284462E-3,489.537048E-3
523.834419E-3,490.043449E-3
529.765892E-3,491.922569E-3
535.710526E-3,494.428825E-3
539.503098E-3,495.280266E-3
543.036461E-3,497.148514E-3
543.968582E-3,496.370316E-3
544.380569E-3,496.809769E-3
543.311691E-3,496.852112E-3
540.633202E-3,495.619011E-3
539.328003E-3,495.962334E-3
535.391235E-3,494.091797E-3
533.070374E-3,493.322182E-3
530.792999E-3,493.173981E-3
528.238106E-3,491.814995E-3
528.194618E-3,492.247581E-3
526.229095E-3,491.443634E-3
525.988770E-3,491.314316E-3
525.782776E-3,491.347504E-3
525.526428E-3,491.326332E-3
526.825333E-3,492.249870E-3
525.233459E-3,491.358948E-3
524.578857E-3,491.141510E-3
523.762894E-3,490.668297E-3
522.565269E-3,489.974213E-3
523.071098E-3,491.229630E-3
521.273232E-3,490.006828E-3
521.261787E-3,490.233421E-3
521.808243E-3,490.490913E-3
521.989059E-3,490.007973E-3
524.019241E-3,491.738319E-3
524.087334E-3,490.448570E-3
524.964523E-3,491.059685E-3
526.036835E-3,491.106606E-3
525.907516E-3,491.040230E-3
527.108002E-3,492.494202E-3
525.951004E-3,491.237068E-3
525.602531E-3,491.227913E-3
525.235748E-3,491.379547E-3
523.586082E-3,490.721512E-3
522.897720E-3,490.716934E-3
520.576859E-3,489.396858E-3
519.713974E-3,489.569664E-3
519.118881E-3,489.379692E-3
517.407417E-3,488.604927E-3
517.334175E-3,488.730240E-3
515.412140E-3,487.925148E-3
514.989853E-3,487.704277E-3
514.597321E-3,487.701416E-3
513.908386E-3,485.677528E-3
514.604187E-3,487.762642E-3
513.173676E-3,487.238503E-3
513.197708E-3,487.629318E-3
513.070679E-3,487.356949E-3
512.359428E-3,486.597061E-3
513.917542E-3,488.465309E-3
512.856674E-3,487.220764E-3
512.809753E-3,487.203598E-3
512.689590E-3,487.144089E-3
512.464142E-3,486.812210E-3
513.407707E-3,487.549782E-3
512.416077E-3,486.868858E-3
512.302780E-3,486.668015E-3
512.480736E-3,487.469101E-3
511.855316E-3,486.768150E-3
512.800026E-3,487.375259E-3
512.231255E-3,486.466026E-3
512.543106E-3,486.527252E-3
512.864685E-3,487.143517E-3
511.114883E-3,486.817360E-3
511.998940E-3,487.377548E-3
511.096573E-3,486.182785E-3
511.033630E-3,486.379051E-3
510.808182E-3,486.277199E-3
509.654617E-3,485.438347E-3
510.277176E-3,486.557579E-3
508.721352E-3,485.987091E-3
507.883644E-3,485.733604E-3
507.565498E-3,485.782242E-3
506.476021E-3,484.602928E-3
507.654190E-3,485.807419E-3
507.034492E-3,485.513306E-3
508.459282E-3,485.672951E-3
511.097717E-3,486.306953E-3
515.008736E-3,487.412453E-3
522.089195E-3,490.408516E-3
527.231026E-3,491.834450E-3
533.599663E-3,493.894386E-3
539.077950E-3,496.067619E-3
541.874886E-3,496.680450E-3
544.692993E-3,497.721863E-3
544.499016E-3,497.403145E-3
543.586349E-3,497.208595E-3
542.059135E-3,497.130203E-3
536.804008E-3,495.687675E-3
535.518265E-3,495.043945E-3
532.995415E-3,493.471527E-3
530.478859E-3,492.940521E-3
528.876686E-3,493.075562E-3
526.650238E-3,491.084862E-3
526.099205E-3,491.584969E-3
525.472069E-3,491.477966E-3
525.518990E-3,491.439056E-3
526.171303E-3,492.362022E-3
525.897217E-3,491.894531E-3
526.803589E-3,492.634964E-3
526.295471E-3,491.968346E-3
526.301193E-3,492.198944E-3
525.991058E-3,492.264175E-3
523.931122E-3,491.057968E-3
523.931694E-3,491.639328E-3
522.576141E-3,490.265465E-3
521.936989E-3,490.190506E-3
522.470284E-3,490.454292E-3
522.239685E-3,490.043449E-3
524.142265E-3,492.094803E-3
524.073029E-3,491.596413E-3
524.541664E-3,491.346359E-3
525.317001E-3,491.942596E-3
525.113297E-3,491.073990E-3
526.383018E-3,492.419815E-3
525.524139E-3,491.281700E-3
525.247192E-3,491.234207E-3
524.901581E-3,491.618729E-3
521.971893E-3,490.169907E-3
522.085762E-3,490.500069E-3
520.940781E-3,489.993668E-3
519.827843E-3,489.356804E-3
519.359779E-3,489.884377E-3
517.504120E-3,488.196373E-3
517.398834E-3,488.685036E-3
516.068459E-3,488.388062E-3
515.465927E-3,488.048744E-3
515.917397E-3,488.983154E-3
514.442253E-3,487.464523E-3
514.825630E-3,488.392639E-3
513.979912E-3,487.691689E-3
514.120102E-3,487.629890E-3
514.711189E-3,488.282204E-3
513.351059E-3,486.924934E-3
514.353561E-3,488.290215E-3
513.551903E-3,487.625885E-3
513.296700E-3,487.166405E-3
513.745880E-3,487.657928E-3
512.622643E-3,486.433983E-3
513.863182E-3,488.038445E-3
513.334465E-3,487.549782E-3
513.258934E-3,487.348938E-3
513.171959E-3,487.652206E-3
512.496185E-3,486.522102E-3
513.751030E-3,487.716866E-3
513.229752E-3,487.657928E-3
512.943077E-3,487.384987E-3
513.018036E-3,487.572670E-3
511.794662E-3,486.321831E-3
512.409782E-3,486.668587E-3
512.101936E-3,486.807060E-3
511.923981E-3,486.914062E-3
512.547112E-3,486.771011E-3
510.884285E-3,485.988235E-3
511.792374E-3,487.225914E-3
511.110306E-3,486.661148E-3
510.324097E-3,486.221695E-3
510.321808E-3,486.629677E-3
508.432961E-3,485.177422E-3
509.309006E-3,486.544991E-3
508.198929E-3,485.546494E-3
507.512856E-3,485.245514E-3
507.739449E-3,485.377121E-3
506.648254E-3,484.094810E-3
507.947731E-3,486.169052E-3
508.533669E-3,486.010551E-3
510.434532E-3,487.164688E-3
514.825058E-3,487.898254E-3
519.213295E-3,488.707352E-3
526.653099E-3,492.263603E-3
532.133102E-3,493.574524E-3
537.515831E-3,495.236206E-3
542.162132E-3,496.618652E-3
544.030952E-3,497.051811E-3
546.123505E-3,498.398781E-3
545.111275E-3,498.162460E-3
543.056488E-3,497.803116E-3
540.775681E-3,496.388054E-3
536.999702E-3,494.691467E-3
534.872246E-3,494.437408E-3
531.982613E-3,493.690681E-3
529.447746E-3,492.858696E-3
527.880478E-3,492.634392E-3
525.901794E-3,491.225052E-3
526.491165E-3,492.317390E-3
525.757027E-3,492.023277E-3
525.937843E-3,491.835594E-3
526.693153E-3,491.974068E-3
526.009369E-3,490.916061E-3
527.031326E-3,492.365456E-3
526.657104E-3,492.161179E-3
525.453186E-3,491.384125E-3
524.709320E-3,491.613579E-3
523.161507E-3,490.392494E-3
523.047638E-3,490.837669E-3
522.794151E-3,490.492630E-3
522.211647E-3,490.225983E-3
523.036194E-3,490.656853E-3
522.663116E-3,489.906693E-3
524.317932E-3,491.316605E-3
524.663544E-3,491.520882E-3
524.629784E-3,490.830231E-3
525.850296E-3,490.707207E-3
524.961090E-3,490.588188E-3
526.930046E-3,492.596054E-3
526.165009E-3,491.582108E-3
524.686432E-3,490.934944E-3
523.822975E-3,491.023064E-3
522.018242E-3,489.682388E-3
522.888565E-3,491.282845E-3
521.126747E-3,489.954185E-3
519.562340E-3,489.055824E-3
518.813896E-3,489.007759E-3
517.156792E-3,487.681961E-3
517.131042E-3,488.963699E-3
516.067886E-3,488.031006E-3
515.464783E-3,487.509727E-3
515.314865E-3,487.948036E-3
513.890648E-3,487.180138E-3
515.004158E-3,487.958336E-3
514.068604E-3,487.994385E-3
513.816833E-3,486.916351E-3
513.974762E-3,487.232208E-3
513.089561E-3,487.039948E-3
513.858604E-3,487.034225E-3
513.145638E-3,486.644554E-3
512.618637E-3,486.215401E-3
512.905312E-3,486.844254E-3
512.515068E-3,486.285782E-3
513.182831E-3,486.912346E-3
513.348770E-3,486.673164E-3
512.248421E-3,485.956192E-3
513.067818E-3,486.884880E-3
512.284470E-3,486.496353E-3
513.615417E-3,487.659645E-3
512.751961E-3,487.188148E-3
511.650467E-3,486.069489E-3
512.365723E-3,486.444283E-3
511.618996E-3,486.326408E-3
512.682724E-3,487.543488E-3
511.552620E-3,486.470032E-3
510.955238E-3,486.178780E-3
511.233330E-3,484.965134E-3
510.270309E-3,484.943962E-3
510.855103E-3,486.339569E-3
510.111809E-3,486.225128E-3
509.270668E-3,485.275841E-3
509.712982E-3,485.854340E-3
508.491325E-3,485.140228E-3
508.918190E-3,484.877586E-3
508.669853E-3,485.293007E-3
507.255936E-3,484.396362E-3
507.488251E-3,484.969139E-3
506.423950E-3,484.165764E-3
506.754684E-3,484.669876E-3
506.438828E-3,484.373474E-3
504.812050E-3,483.507729E-3
506.167030E-3,484.470177E-3
507.164955E-3,484.082794E-3
511.604691E-3,486.354446E-3
515.987778E-3,487.609291E-3
520.927048E-3,488.605499E-3
528.107643E-3,491.216469E-3
533.577919E-3,492.508507E-3
539.608955E-3,495.244217E-3
542.721176E-3,496.455574E-3
544.002342E-3,496.576309E-3
544.154549E-3,496.773148E-3
541.777611E-3,495.397568E-3
540.323067E-3,494.960403E-3
537.249184E-3,494.438553E-3
533.109856E-3,493.081284E-3
530.775261E-3,492.766571E-3
527.309418E-3,491.092873E-3
525.573349E-3,490.901756E-3
523.916245E-3,490.294075E-3
521.987343E-3,489.242363E-3
522.408485E-3,489.960480E-3
521.849442E-3,489.505577E-3
522.956085E-3,490.237999E-3
523.218727E-3,490.297508E-3
522.100639E-3,489.190292E-3
522.848511E-3,489.914703E-3
521.602249E-3,489.238358E-3
521.836281E-3,489.962769E-3
520.429802E-3,489.181137E-3
518.645096E-3,487.937737E-3
518.899155E-3,488.866425E-3
518.291473E-3,488.475037E-3
520.309639E-3,489.648056E-3
520.268440E-3,489.468956E-3
520.595169E-3,488.853264E-3
522.115517E-3,489.866638E-3
522.481728E-3,489.348221E-3
524.070740E-3,490.496635E-3
523.914528E-3,490.761566E-3
523.750305E-3,488.949394E-3
524.166870E-3,489.409447E-3
522.759247E-3,489.248657E-3
522.221947E-3,489.709854E-3
520.941925E-3,489.876938E-3
519.114304E-3,488.381195E-3
517.575073E-3,488.726807E-3
516.705322E-3,488.032150E-3
516.605759E-3,488.771439E-3
514.838791E-3,488.077927E-3
513.463211E-3,486.742973E-3
512.931061E-3,487.530899E-3
512.264442E-3,486.301231E-3
513.191414E-3,487.581825E-3
512.837791E-3,486.993027E-3
511.594391E-3,486.268616E-3
512.088203E-3,487.043381E-3
510.953522E-3,486.129570E-3
511.653328E-3,486.708641E-3
511.590958E-3,486.527252E-3
510.286903E-3,485.852623E-3
510.791588E-3,486.416817E-3
510.159302E-3,485.677528E-3
510.368156E-3,485.865211E-3
510.378456E-3,486.213684E-3
509.774780E-3,485.497284E-3
510.764694E-3,486.253166E-3
510.428810E-3,486.241722E-3
511.037064E-3,486.920357E-3
510.479164E-3,486.506653E-3
509.666061E-3,485.213470E-3
510.685730E-3,486.333275E-3
509.821129E-3,486.147881E-3
510.546684E-3,486.769295E-3
509.914970E-3,486.367035E-3
509.033775E-3,485.635185E-3
509.527588E-3,486.441994E-3
508.694458E-3,485.317039E-3
509.029770E-3,486.063194E-3
509.244919E-3,486.171913E-3
507.393265E-3,485.776520E-3
507.670212E-3,486.526108E-3
507.226181E-3,485.702705E-3
507.428741E-3,485.425186E-3
507.497978E-3,485.539627E-3
505.855751E-3,483.190155E-3
506.377029E-3,485.138512E-3
505.245209E-3,484.183502E-3
505.107307E-3,484.515953E-3
504.908180E-3,484.316826E-3
503.489113E-3,483.422470E-3
504.222107E-3,484.886169E-3
503.863335E-3,484.122276E-3
505.487251E-3,485.042381E-3
507.160950E-3,485.434341E-3
510.241699E-3,485.679245E-3
516.676140E-3,488.486481E-3
521.959877E-3,489.904976E-3
528.623772E-3,491.877365E-3
534.675407E-3,493.711853E-3
537.996483E-3,494.575310E-3
542.051125E-3,496.786880E-3
542.136383E-3,496.325111E-3
542.129517E-3,496.226692E-3
540.995407E-3,496.137428E-3
537.979317E-3,494.583893E-3
536.271858E-3,495.538902E-3
532.637787E-3,493.323326E-3
530.043983E-3,492.466164E-3
527.743149E-3,491.866493E-3
524.904442E-3,490.867424E-3
525.088120E-3,492.125702E-3
523.412132E-3,490.486336E-3
523.312569E-3,490.859413E-3
522.816467E-3,490.575027E-3
522.356987E-3,490.161324E-3
524.230385E-3,491.899109E-3
523.463058E-3,490.198517E-3
523.880768E-3,490.616798E-3
523.008156E-3,490.326118E-3
521.505547E-3,489.357948E-3
521.818542E-3,490.283203E-3
519.889069E-3,488.707352E-3
519.554901E-3,489.308167E-3
519.892502E-3,489.834023E-3
519.829559E-3,488.986015E-3
521.482658E-3,490.349007E-3
520.659828E-3,489.623451E-3
521.795082E-3,489.812851E-3
522.874260E-3,490.787888E-3
522.870827E-3,490.445137E-3
524.681854E-3,492.305374E-3
523.667908E-3,490.979576E-3
523.526573E-3,490.758705E-3
522.813606E-3,490.809059E-3
521.694374E-3,488.296509E-3
521.689796E-3,489.841461E-3
519.798660E-3,488.623238E-3
519.163513E-3,488.718796E-3
518.491173E-3,488.413239E-3
516.230965E-3,487.618446E-3
516.634941E-3,488.799477E-3
514.744949E-3,487.344933E-3
514.192772E-3,487.530899E-3
514.007950E-3,487.175560E-3
513.161659E-3,486.856842E-3
514.254570E-3,488.220406E-3
512.833214E-3,486.886597E-3
512.398338E-3,487.082863E-3
512.352562E-3,486.846542E-3
511.380386E-3,485.601997E-3
512.440109E-3,487.205887E-3
511.092567E-3,486.055183E-3
511.236191E-3,486.220551E-3
511.473083E-3,486.670876E-3
510.646248E-3,485.880661E-3
511.699677E-3,486.637688E-3
510.688019E-3,485.668945E-3
510.748100E-3,485.990524E-3
511.060524E-3,486.592484E-3
510.712051E-3,485.761070E-3
511.821556E-3,487.326050E-3
510.588455E-3,486.107254E-3
510.757256E-3,486.191368E-3
511.077118E-3,486.408234E-3
509.974480E-3,485.849190E-3
510.994720E-3,487.131500E-3
510.082626E-3,486.131287E-3
509.917259E-3,485.873222E-3
509.575081E-3,486.125565E-3
508.987999E-3,484.823799E-3
510.287476E-3,486.226273E-3
508.907318E-3,485.051537E-3
508.617210E-3,485.351372E-3
509.173393E-3,485.795403E-3
507.221603E-3,485.476685E-3
508.054733E-3,486.121559E-3
507.264519E-3,484.532547E-3
507.295418E-3,485.143089E-3
507.271957E-3,485.314751E-3
506.351852E-3,484.610939E-3
506.372452E-3,485.161972E-3
504.883003E-3,484.408379E-3
504.977989E-3,484.321404E-3
504.445839E-3,483.999825E-3
503.485680E-3,483.702278E-3
504.906464E-3,484.610367E-3
503.416443E-3,483.685684E-3
504.189491E-3,484.181213E-3
506.143570E-3,484.602356E-3
508.863831E-3,485.348511E-3
515.116882E-3,488.440704E-3
519.783783E-3,489.222336E-3
526.609612E-3,490.927505E-3
532.433510E-3,493.143082E-3
536.765671E-3,494.268608E-3
541.720963E-3,496.999168E-3
542.183304E-3,496.148872E-3
542.545509E-3,496.598053E-3
541.330719E-3,495.885658E-3
538.977242E-3,494.973564E-3
537.377357E-3,495.544052E-3
533.244896E-3,493.463516E-3
531.024170E-3,492.609787E-3
528.852654E-3,492.252731E-3
526.049995E-3,490.963554E-3
525.253487E-3,491.184998E-3
523.039055E-3,490.065765E-3
522.809029E-3,490.358734E-3
523.290825E-3,490.608788E-3
522.787285E-3,490.061760E-3
523.854446E-3,491.348648E-3
523.214149E-3,490.979004E-3
523.726845E-3,491.110611E-3
523.254776E-3,490.678596E-3
522.057152E-3,490.151024E-3
522.794724E-3,491.663361E-3
521.007729E-3,490.137863E-3
520.227242E-3,489.881516E-3
520.041275E-3,489.732742E-3
519.673920E-3,489.241219E-3
521.272659E-3,490.564156E-3
520.976830E-3,490.061760E-3
521.573067E-3,490.183067E-3
522.748375E-3,490.518379E-3
522.753525E-3,489.951897E-3
523.731422E-3,491.217613E-3
523.310280E-3,490.180206E-3
523.249626E-3,490.225983E-3
523.495674E-3,490.755844E-3
522.292328E-3,489.364243E-3
521.841431E-3,490.195656E-3
520.231819E-3,489.278412E-3
519.363213E-3,489.201736E-3
518.961525E-3,489.365387E-3
517.102432E-3,488.404083E-3
516.676140E-3,488.445282E-3
514.949226E-3,487.525177E-3
514.204216E-3,487.527466E-3
514.084625E-3,487.231636E-3
513.126755E-3,485.370827E-3
513.898087E-3,487.810135E-3
512.594032E-3,487.173843E-3
512.187767E-3,487.093735E-3
511.867905E-3,486.816788E-3
511.273956E-3,486.222839E-3
512.673569E-3,487.789536E-3
511.526299E-3,486.958694E-3
511.338615E-3,486.186218E-3
510.980415E-3,486.053467E-3
510.735512E-3,485.596848E-3
512.162018E-3,486.881447E-3
511.253929E-3,486.256599E-3
511.454773E-3,485.899544E-3
511.128044E-3,486.044312E-3
508.665848E-3,485.620308E-3
510.848236E-3,486.603355E-3
510.005379E-3,485.763359E-3
510.430527E-3,485.574532E-3
510.991287E-3,486.074066E-3
510.347557E-3,484.965706E-3
510.452271E-3,486.021423E-3
509.663773E-3,485.510445E-3
509.402275E-3,485.338783E-3
509.635735E-3,485.744476E-3
508.641243E-3,485.028076E-3
509.094429E-3,485.306168E-3
508.193779E-3,484.653854E-3
507.905388E-3,484.992599E-3
508.658409E-3,485.049820E-3
507.679367E-3,484.390068E-3
508.255005E-3,485.060120E-3
507.419014E-3,484.447289E-3
507.269669E-3,484.601784E-3
507.322311E-3,485.061264E-3
505.942726E-3,484.020996E-3
506.815910E-3,485.022354E-3
505.398560E-3,484.320831E-3
505.333328E-3,483.762932E-3
504.957962E-3,483.732605E-3
503.781509E-3,482.958984E-3
504.947090E-3,483.947754E-3
503.588676E-3,483.380699E-3
503.209877E-3,483.079720E-3
503.483963E-3,483.214760E-3
502.790451E-3,481.792831E-3
505.319595E-3,484.755135E-3
507.595253E-3,484.629250E-3
511.602402E-3,486.169052E-3
517.537880E-3,487.800980E-3
523.134613E-3,488.907623E-3
530.417061E-3,492.063332E-3
534.893417E-3,493.507576E-3
538.337517E-3,494.520950E-3
540.567970E-3,495.342636E-3
540.352249E-3,494.352722E-3
539.913940E-3,494.513512E-3
537.146759E-3,493.332481E-3
534.195328E-3,492.702484E-3
531.857300E-3,492.260170E-3
528.479576E-3,489.188004E-3
526.091766E-3,490.164185E-3
523.419571E-3,489.404869E-3
521.978760E-3,489.071274E-3
521.579933E-3,489.676094E-3
520.101357E-3,488.095093E-3
520.645523E-3,489.214325E-3
519.986343E-3,489.029503E-3
520.115089E-3,488.982582E-3
521.107292E-3,489.491844E-3
518.413353E-3,488.432693E-3
519.968605E-3,489.343643E-3
519.054794E-3,488.738823E-3
518.292618E-3,488.404655E-3
517.918396E-3,488.386345E-3
516.947937E-3,486.975861E-3
518.629074E-3,488.301659E-3
518.094635E-3,488.155174E-3
518.526649E-3,487.747192E-3
519.138336E-3,488.705063E-3
518.665123E-3,488.080215E-3
521.465492E-3,489.857483E-3
522.073746E-3,489.580536E-3
522.627640E-3,489.402580E-3
522.828484E-3,489.861488E-3
521.459198E-3,488.881302E-3
521.878052E-3,489.566231E-3
520.545387E-3,488.695335E-3
519.659615E-3,488.497925E-3
518.731499E-3,488.075066E-3
516.509628E-3,486.812782E-3
516.031265E-3,487.712860E-3
514.565277E-3,487.188721E-3
513.694954E-3,486.668015E-3
513.458633E-3,486.931801E-3
511.561203E-3,485.972214E-3
511.627007E-3,486.805916E-3
511.638451E-3,486.186218E-3
511.311150E-3,485.885811E-3
511.518860E-3,486.234856E-3
509.774208E-3,485.049248E-3
510.659409E-3,486.237144E-3
509.941864E-3,485.950470E-3
509.662056E-3,485.793686E-3
510.080910E-3,486.165047E-3
508.965683E-3,484.630966E-3
510.317802E-3,486.217690E-3
509.961319E-3,485.673523E-3
509.325600E-3,485.627747E-3
509.876060E-3,485.569954E-3
508.855820E-3,484.481049E-3
510.158730E-3,486.242867E-3
509.387970E-3,485.704422E-3
509.360504E-3,485.531044E-3
509.413147E-3,485.512733E-3
507.940292E-3,484.762573E-3
509.954453E-3,486.304665E-3
509.046936E-3,485.933876E-3
509.193420E-3,485.083580E-3
509.111023E-3,485.119629E-3
508.134270E-3,484.364891E-3
509.417152E-3,486.387062E-3
508.803177E-3,485.453224E-3
508.289337E-3,485.196304E-3
507.881355E-3,485.040092E-3
506.684303E-3,483.990669E-3
507.938576E-3,485.353661E-3
506.968117E-3,484.573746E-3
506.403351E-3,484.597206E-3
506.312943E-3,484.313965E-3
505.025482E-3,483.739471E-3
505.617142E-3,484.998894E-3
504.650688E-3,484.066772E-3
504.090500E-3,483.639336E-3
503.693390E-3,483.374405E-3
502.245712E-3,482.614517E-3
503.134918E-3,483.312035E-3
502.744675E-3,483.175278E-3
503.077126E-3,483.061409E-3
504.806328E-3,483.858490E-3
506.901741E-3,483.663368E-3
512.211227E-3,485.968208E-3
517.671204E-3,487.843895E-3
523.512840E-3,489.133644E-3
529.741859E-3,491.758347E-3
533.436012E-3,492.094803E-3
537.764740E-3,494.452858E-3
539.372635E-3,495.015335E-3
539.097977E-3,494.618225E-3
538.410187E-3,494.702911E-3
535.541153E-3,492.911911E-3
534.056854E-3,493.520164E-3
531.612396E-3,492.313957E-3
528.353119E-3,490.655136E-3
526.192474E-3,490.710068E-3
522.923470E-3,488.954544E-3
523.215294E-3,490.302658E-3
521.420288E-3,489.402008E-3
519.744301E-3,488.553429E-3
520.211220E-3,489.143372E-3
519.457054E-3,488.216972E-3
521.447182E-3,489.837456E-3
521.242332E-3,489.432907E-3
520.469856E-3,488.986015E-3
519.938278E-3,488.998032E-3
518.478012E-3,487.870789E-3
519.598389E-3,489.784241E-3
518.331528E-3,488.138580E-3
517.592812E-3,487.399292E-3
517.531013E-3,488.113976E-3
516.978264E-3,487.469101E-3
519.407845E-3,488.947678E-3
519.278526E-3,488.907623E-3
519.709396E-3,488.396072E-3
520.343399E-3,489.260674E-3
520.052719E-3,488.637543E-3
521.882057E-3,489.773941E-3
521.729279E-3,489.230347E-3
521.045494E-3,488.943100E-3
521.181107E-3,488.926506E-3
519.304276E-3,488.329124E-3
519.480515E-3,488.947105E-3
518.345261E-3,488.575745E-3
516.547966E-3,487.029076E-3
515.350342E-3,487.576675E-3
513.755608E-3,486.805916E-3
514.192772E-3,487.264824E-3
513.414574E-3,487.015915E-3
511.664200E-3,485.589409E-3
511.133194E-3,486.380768E-3
510.809326E-3,485.644913E-3
511.540031E-3,486.319542E-3
511.139488E-3,486.199379E-3
509.806824E-3,484.967422E-3
509.992218E-3,485.616302E-3
509.383392E-3,485.055542E-3
509.868622E-3,485.674667E-3
509.645462E-3,485.219765E-3
508.504486E-3,484.624100E-3
509.264374E-3,485.309601E-3
508.874702E-3,484.849548E-3
509.551048E-3,485.558510E-3
509.407425E-3,485.107613E-3
508.456993E-3,483.890533E-3
509.135056E-3,484.950256E-3
508.924484E-3,484.985733E-3
509.844589E-3,485.895538E-3
509.418869E-3,485.290146E-3
507.784653E-3,484.733391E-3
509.005165E-3,484.791756E-3
508.297348E-3,484.592056E-3
509.281540E-3,485.823441E-3
508.723640E-3,485.659218E-3
507.529449E-3,484.232712E-3
507.827568E-3,484.999466E-3
507.084274E-3,484.571457E-3
508.217812E-3,485.898972E-3
507.276535E-3,484.980583E-3
506.209373E-3,483.929443E-3
506.352425E-3,484.495926E-3
505.899811E-3,483.854485E-3
507.331467E-3,485.358810E-3
506.336403E-3,484.321404E-3
505.621719E-3,483.092880E-3
505.679512E-3,483.938026E-3
504.902458E-3,483.205605E-3
505.446625E-3,484.065628E-3
504.549408E-3,483.991241E-3
503.472519E-3,483.417892E-3
503.594971E-3,483.571243E-3
502.447128E-3,482.877159E-3
502.728653E-3,483.136940E-3
502.432251E-3,483.121490E-3
501.675797E-3,482.221985E-3
501.983070E-3,482.803345E-3
501.242638E-3,482.481194E-3
502.886009E-3,482.953262E-3
504.512215E-3,483.335495E-3
507.365799E-3,484.254456E-3
512.576866E-3,486.281204E-3
517.933846E-3,487.606430E-3
524.412918E-3,489.999390E-3
530.267715E-3,491.795540E-3
533.866882E-3,492.299652E-3
537.775612E-3,494.244003E-3
538.601303E-3,494.230843E-3
539.286804E-3,494.747543E-3
538.371277E-3,494.401932E-3
534.658813E-3,493.021202E-3
533.319855E-3,492.806053E-3
530.426788E-3,491.676521E-3
528.636360E-3,491.972351E-3
525.871468E-3,490.964699E-3
523.299408E-3,489.509010E-3
522.487450E-3,489.425468E-3
521.464348E-3,488.786888E-3
522.348976E-3,490.090942E-3
521.208572E-3,489.345932E-3
521.176529E-3,488.808060E-3
522.087479E-3,489.657211E-3
521.515274E-3,489.044380E-3
522.757530E-3,489.468956E-3
522.530365E-3,489.385986E-3
521.119881E-3,488.514519E-3
520.679855E-3,488.852119E-3
519.046783E-3,487.984657E-3
518.766403E-3,488.402367E-3
519.126892E-3,488.681602E-3
517.729568E-3,487.650490E-3
518.818474E-3,488.586617E-3
519.523430E-3,488.346291E-3
520.781708E-3,489.094734E-3
521.865463E-3,489.720726E-3
520.504189E-3,488.730240E-3
521.419716E-3,489.690971E-3
521.573067E-3,489.359093E-3
522.634506E-3,490.128708E-3
521.617699E-3,489.439201E-3
520.652390E-3,488.366890E-3
520.412636E-3,488.802910E-3
518.881989E-3,488.214684E-3
518.761253E-3,488.330269E-3
517.360497E-3,488.052750E-3
516.189194E-3,487.102318E-3
515.816689E-3,487.590981E-3
514.149284E-3,486.700630E-3
514.061165E-3,487.209320E-3
513.320732E-3,487.177849E-3
512.167740E-3,485.557938E-3
512.935638E-3,486.432266E-3
512.235260E-3,485.972786E-3
513.130760E-3,486.604500E-3
512.504196E-3,486.425400E-3
511.477661E-3,485.912132E-3
511.842728E-3,486.757851E-3
511.045074E-3,485.397148E-3
511.447906E-3,486.131287E-3
511.728287E-3,486.098671E-3
510.688019E-3,485.283852E-3
511.347771E-3,486.069489E-3
511.042213E-3,485.152245E-3
511.514282E-3,486.375618E-3
511.141205E-3,486.252022E-3
510.507202E-3,484.810638E-3
511.371231E-3,485.729599E-3
510.766411E-3,485.189438E-3
511.418724E-3,485.597420E-3
511.235046E-3,485.323906E-3
510.677719E-3,485.231209E-3
511.188698E-3,485.650063E-3
510.244560E-3,484.901047E-3
510.253143E-3,484.862709E-3
510.113525E-3,485.425758E-3
509.307861E-3,484.631538E-3
509.753609E-3,485.381126E-3
508.574867E-3,484.622383E-3
508.632088E-3,484.826660E-3
508.394051E-3,485.046387E-3
507.429314E-3,482.578468E-3
508.511925E-3,483.903122E-3
507.740593E-3,484.424973E-3
508.740807E-3,485.231781E-3
508.399200E-3,484.485626E-3
507.253647E-3,483.905411E-3
507.801819E-3,484.377480E-3
506.517220E-3,483.663940E-3
506.686592E-3,483.892250E-3
506.472588E-3,483.851051E-3
504.541397E-3,483.401871E-3
505.511284E-3,483.763504E-3
504.870987E-3,482.908058E-3
504.811478E-3,483.272552E-3
504.786873E-3,483.493996E-3
503.390121E-3,482.492065E-3
504.127121E-3,483.724022E-3
504.362297E-3,483.127785E-3
505.939293E-3,484.368896E-3
508.662987E-3,485.031509E-3
511.970901E-3,485.020065E-3
517.752457E-3,488.184929E-3
523.334885E-3,488.983154E-3
529.599953E-3,490.630531E-3
535.181808E-3,492.626953E-3
537.639427E-3,493.050385E-3
540.808868E-3,495.545769E-3
540.317917E-3,494.650269E-3
539.679909E-3,494.922066E-3
537.308121E-3,493.792534E-3
533.818245E-3,491.963196E-3
532.594299E-3,493.034935E-3
529.959869E-3,491.374969E-3
528.058434E-3,491.003036E-3
525.840569E-3,490.122414E-3
523.320007E-3,488.798904E-3
523.311996E-3,490.469170E-3
522.168732E-3,488.853836E-3
522.380447E-3,488.869858E-3
523.088264E-3,489.379692E-3
522.288322E-3,488.010979E-3
523.626137E-3,490.044022E-3
523.049927E-3,489.277267E-3
522.701454E-3,489.125061E-3
522.369003E-3,489.081573E-3
520.758820E-3,486.895180E-3
521.304703E-3,489.383125E-3
520.093346E-3,488.322258E-3
520.351410E-3,488.608360E-3
520.149994E-3,488.402939E-3
519.288826E-3,487.982368E-3
521.826553E-3,489.573097E-3
521.678925E-3,488.787460E-3
523.298264E-3,489.875221E-3
524.094200E-3,489.934158E-3
523.428726E-3,489.307594E-3
525.070953E-3,490.481186E-3
523.558617E-3,489.583969E-3
523.467064E-3,489.291000E-3
522.833633E-3,489.109612E-3
521.371651E-3,487.019348E-3
521.571922E-3,488.770866E-3
519.110298E-3,487.893677E-3
518.350410E-3,487.698555E-3
517.552757E-3,487.684250E-3
515.733147E-3,487.007332E-3
516.598320E-3,488.220978E-3
514.668846E-3,487.104034E-3
514.694023E-3,487.109756E-3
513.988495E-3,487.024498E-3
513.127327E-3,485.918427E-3
514.379883E-3,487.342072E-3
512.817192E-3,486.191368E-3
512.999725E-3,486.259460E-3
512.968826E-3,486.568451E-3
511.877632E-3,485.803986E-3
513.164520E-3,486.757851E-3
511.452484E-3,485.545921E-3
511.857605E-3,485.525894E-3
512.174606E-3,486.329269E-3
511.500549E-3,484.628677E-3
512.716484E-3,486.468315E-3
511.652184E-3,485.591125E-3
511.691093E-3,485.962486E-3
511.766624E-3,486.441994E-3
511.257935E-3,485.723305E-3
513.083267E-3,487.453079E-3
511.902237E-3,486.549568E-3
511.830711E-3,486.338425E-3
511.561775E-3,485.850906E-3
510.869408E-3,485.235786E-3
512.073326E-3,486.703491E-3
510.892296E-3,485.676956E-3
510.325813E-3,485.484695E-3
510.456848E-3,486.223984E-3
509.568787E-3,485.453224E-3
510.286903E-3,486.068344E-3
509.028053E-3,485.008621E-3
508.980560E-3,484.908485E-3
509.378815E-3,485.703278E-3
508.207512E-3,484.747124E-3
509.263229E-3,485.811996E-3
508.213234E-3,484.580040E-3
508.210373E-3,484.517670E-3
507.905388E-3,485.126495E-3
506.797600E-3,484.509087E-3
507.820129E-3,485.318184E-3
506.136703E-3,484.166908E-3
505.978203E-3,484.323120E-3
505.957031E-3,484.332848E-3
504.891586E-3,482.306099E-3
505.790520E-3,484.008408E-3
504.449844E-3,483.213615E-3
504.412079E-3,483.639336E-3
504.925919E-3,483.624458E-3
504.820061E-3,483.835030E-3
507.725143E-3,485.526466E-3
509.770775E-3,485.472107E-3
514.224243E-3,486.841393E-3
519.756889E-3,489.009476E-3
524.756813E-3,489.296150E-3
532.089043E-3,493.417168E-3
535.541153E-3,494.031715E-3
538.988113E-3,494.881439E-3
540.456390E-3,495.425606E-3
540.034676E-3,495.149231E-3
540.787125E-3,496.190643E-3
537.951851E-3,494.696045E-3
535.720253E-3,493.796539E-3
533.246040E-3,492.901611E-3
529.455757E-3,491.920853E-3
529.399681E-3,492.872429E-3
526.693726E-3,491.332054E-3
525.734138E-3,490.655708E-3
524.834633E-3,490.797615E-3
523.244476E-3,489.807129E-3
525.124168E-3,491.335487E-3
524.302483E-3,490.329552E-3
524.690437E-3,490.763855E-3
524.942207E-3,490.680885E-3
524.783707E-3,490.243721E-3
526.243973E-3,491.803551E-3
524.406624E-3,490.399933E-3
523.352623E-3,489.815140E-3
522.841644E-3,489.770508E-3
521.503258E-3,489.226341E-3
522.631645E-3,489.900970E-3
521.718979E-3,488.856125E-3
521.966743E-3,489.509010E-3
522.821045E-3,490.159607E-3
523.043060E-3,489.519882E-3
524.233818E-3,490.925217E-3
523.564911E-3,489.615440E-3
524.285889E-3,490.159035E-3
525.093842E-3,490.331841E-3
524.283600E-3,489.871788E-3
524.642944E-3,490.276337E-3
522.854805E-3,489.236641E-3
522.494316E-3,489.019775E-3
521.965599E-3,489.379120E-3
520.495605E-3,487.118912E-3
520.801163E-3,488.793182E-3
518.522072E-3,487.851906E-3
517.918396E-3,487.719154E-3
517.609978E-3,487.787819E-3
516.293335E-3,487.296867E-3
517.052078E-3,488.614082E-3
515.393257E-3,487.391853E-3
515.295982E-3,487.037659E-3
514.994431E-3,487.071419E-3
514.229393E-3,485.372543E-3
515.660477E-3,487.740898E-3
