Notes :


2023-11-04 ¿ÀÈÄ 9:15:18
Volts
Ch : LED 2,
782.789612E-3
782.196236E-3
781.961632E-3
781.628609E-3
781.240082E-3
781.061554E-3
780.675316E-3
780.496216E-3
780.222130E-3
779.841042E-3
779.598999E-3
779.265404E-3
779.038811E-3
778.757858E-3
778.577042E-3
778.376198E-3
778.186226E-3
778.192520E-3
778.044891E-3
777.899551E-3
777.835464E-3
777.474403E-3
777.398872E-3
777.145958E-3
777.120209E-3
777.034378E-3
776.915932E-3
776.787758E-3
776.712227E-3
776.513100E-3
776.438141E-3
776.307106E-3
776.113701E-3
775.892830E-3
775.840187E-3
775.847054E-3
775.703430E-3
775.520325E-3
775.379562E-3
774.841118E-3
774.470329E-3
773.997688E-3
773.690414E-3
773.240089E-3
772.737694E-3
772.986603E-3
773.603439E-3
775.401878E-3
778.127289E-3
781.535912E-3
785.690689E-3
789.844894E-3
793.832588E-3
797.346497E-3
799.609566E-3
800.989723E-3
801.298714E-3
800.711060E-3
799.353218E-3
797.594833E-3
795.768929E-3
793.488121E-3
791.658211E-3
790.005684E-3
788.804626E-3
787.925148E-3
787.401009E-3
787.053680E-3
786.922646E-3
786.932945E-3
787.193298E-3
787.191582E-3
786.939240E-3
786.494064E-3
785.671806E-3
785.065842E-3
784.443283E-3
784.245300E-3
784.184647E-3
784.249306E-3
784.632111E-3
784.810066E-3
785.142517E-3
785.468674E-3
785.560226E-3
785.651207E-3
785.460091E-3
785.077858E-3
784.691048E-3
784.155464E-3
783.669090E-3
782.999611E-3
782.429695E-3
781.847191E-3
781.209755E-3
780.846405E-3
780.529404E-3
780.020142E-3
779.604721E-3
779.224777E-3
778.955269E-3
778.440857E-3
778.081512E-3
777.842331E-3
777.614594E-3
777.590561E-3
777.280998E-3
777.111626E-3
776.896477E-3
776.677895E-3
776.603508E-3
776.451874E-3
776.461029E-3
776.438141E-3
776.457024E-3
776.386642E-3
776.192093E-3
776.109123E-3
776.031303E-3
775.872231E-3
775.905991E-3
775.876236E-3
775.681686E-3
775.582123E-3
775.361252E-3
775.323486E-3
775.156403E-3
775.007629E-3
774.903488E-3
774.628830E-3
774.423409E-3
774.176788E-3
773.836899E-3
773.587418E-3
773.239517E-3
773.036385E-3
772.722816E-3
772.626686E-3
772.426414E-3
772.087097E-3
772.053909E-3
771.786118E-3
771.722031E-3
771.725464E-3
771.718025E-3
772.416687E-3
774.064064E-3
776.818085E-3
780.157471E-3
784.303093E-3
788.656998E-3
792.487335E-3
795.956612E-3
798.470879E-3
799.965477E-3
800.687599E-3
800.284767E-3
799.307442E-3
797.933578E-3
796.149445E-3
794.222832E-3
792.400360E-3
790.734673E-3
789.525032E-3
788.721085E-3
788.112831E-3
787.709427E-3
787.783813E-3
787.851906E-3
788.065910E-3
788.236427E-3
788.001251E-3
787.679100E-3
787.052536E-3
786.503220E-3
786.246872E-3
786.139870E-3
786.231995E-3
786.573029E-3
787.048531E-3
787.614441E-3
788.087082E-3
788.739967E-3
789.076996E-3
788.950539E-3
788.866997E-3
788.531113E-3
788.048172E-3
787.516022E-3
786.912346E-3
786.346436E-3
785.580254E-3
785.209465E-3
784.715080E-3
784.362602E-3
784.019852E-3
783.657074E-3
783.330917E-3
783.111763E-3
782.863426E-3
782.958984E-3
782.817078E-3
782.773018E-3
782.771873E-3
782.581902E-3
782.453728E-3
782.341576E-3
782.334137E-3
782.179070E-3
782.073212E-3
781.998253E-3
781.882095E-3
781.801987E-3
781.630898E-3
781.357956E-3
781.293297E-3
780.768585E-3
780.476761E-3
780.097961E-3
779.883385E-3
779.753494E-3
779.565239E-3
779.427338E-3
779.352379E-3
779.112625E-3
779.220772E-3
778.985023E-3
778.911209E-3
778.732681E-3
778.622246E-3
778.543854E-3
778.325272E-3
778.052330E-3
777.747917E-3
777.396011E-3
776.851273E-3
776.248741E-3
775.812149E-3
775.518036E-3
775.282288E-3
775.353813E-3
775.598145E-3
777.098465E-3
779.783821E-3
783.111191E-3
787.035370E-3
790.961266E-3
794.672585E-3
797.899246E-3
800.224113E-3
801.782227E-3
802.151871E-3
801.668930E-3
800.499916E-3
798.747826E-3
796.849251E-3
794.712067E-3
792.818642E-3
791.123772E-3
789.791107E-3
788.743973E-3
787.948036E-3
787.604141E-3
787.428474E-3
787.367249E-3
787.380409E-3
787.096024E-3
786.546707E-3
785.820580E-3
785.211754E-3
784.751129E-3
784.540558E-3
784.441566E-3
784.724236E-3
784.928513E-3
785.572815E-3
786.149025E-3
786.689186E-3
787.117195E-3
787.296295E-3
787.266541E-3
787.063980E-3
786.690903E-3
786.219406E-3
785.339355E-3
784.812927E-3
784.042740E-3
783.199310E-3
782.616806E-3
781.847763E-3
781.216621E-3
780.527687E-3
779.994965E-3
779.563522E-3
779.009056E-3
778.662872E-3
778.358459E-3
778.234291E-3
778.213692E-3
777.973938E-3
777.940178E-3
777.731323E-3
777.592850E-3
777.616310E-3
777.639198E-3
777.607155E-3
777.507019E-3
777.381706E-3
777.240372E-3
777.047539E-3
777.030945E-3
777.064133E-3
776.796341E-3
776.595497E-3
776.387787E-3
776.243019E-3
775.980377E-3
775.799561E-3
775.762367E-3
775.555801E-3
775.461960E-3
775.130081E-3
775.025940E-3
774.870300E-3
774.600792E-3
774.459457E-3
774.291801E-3
774.271774E-3
774.108124E-3
773.727608E-3
773.455238E-3
773.090744E-3
772.691917E-3
772.336006E-3
771.916008E-3
771.633339E-3
771.333504E-3
771.556091E-3
772.393799E-3
774.336433E-3
777.439499E-3
781.354523E-3
785.499001E-3
789.937019E-3
793.886948E-3
797.297287E-3
799.480820E-3
800.723076E-3
800.918770E-3
800.085640E-3
798.728371E-3
796.907616E-3
794.761848E-3
792.714500E-3
790.954971E-3
789.485550E-3
788.269043E-3
787.490845E-3
787.213898E-3
787.037659E-3
787.041664E-3
787.315750E-3
787.424469E-3
787.581253E-3
787.474823E-3
787.070274E-3
786.444283E-3
785.905838E-3
785.518456E-3
785.231781E-3
785.405159E-3
785.564232E-3
785.864067E-3
786.382484E-3
786.906052E-3
787.277985E-3
787.442780E-3
787.447357E-3
787.379837E-3
786.842537E-3
786.483765E-3
785.868073E-3
785.298157E-3
784.726524E-3
783.957481E-3
783.388710E-3
782.751846E-3
782.042313E-3
781.551933E-3
781.027222E-3
780.711937E-3
780.341148E-3
779.961777E-3
779.705429E-3
779.434204E-3
779.293442E-3
779.178429E-3
778.903198E-3
779.048538E-3
779.062271E-3
778.915787E-3
778.921509E-3
778.870010E-3
778.771019E-3
778.849411E-3
778.711510E-3
778.622246E-3
778.387070E-3
778.433418E-3
778.220558E-3
778.161049E-3
778.024292E-3
777.741051E-3
777.723312E-3
777.489281E-3
777.446938E-3
777.262688E-3
777.003479E-3
776.824379E-3
776.612663E-3
776.373482E-3
776.151466E-3
775.634193E-3
775.569534E-3
775.300598E-3
775.170135E-3
774.952698E-3
774.648285E-3
774.358749E-3
773.939896E-3
773.633194E-3
773.177147E-3
772.695351E-3
772.520828E-3
772.324562E-3
772.547722E-3
773.512459E-3
775.473404E-3
778.655434E-3
782.377052E-3
786.577034E-3
790.755844E-3
794.448280E-3
797.317314E-3
799.425888E-3
800.464439E-3
800.400925E-3
799.453354E-3
798.275185E-3
796.473885E-3
794.596481E-3
792.606926E-3
790.843391E-3
789.590263E-3
788.500214E-3
787.897682E-3
787.522316E-3
787.267113E-3
787.347794E-3
787.425613E-3
787.734604E-3
787.621880E-3
787.242508E-3
786.794472E-3
786.165619E-3
785.866356E-3
785.534477E-3
785.399437E-3
785.683250E-3
785.880661E-3
786.304092E-3
786.564445E-3
786.923218E-3
787.274551E-3
787.152100E-3
787.114906E-3
786.867142E-3
786.510086E-3
786.195374E-3
785.743904E-3
785.355949E-3
784.728241E-3
784.186363E-3
783.798981E-3
783.270264E-3
782.950974E-3
782.700348E-3
782.402802E-3
782.199669E-3
781.725883E-3
781.363678E-3
781.268120E-3
781.081009E-3
781.075859E-3
780.909348E-3
780.796623E-3
780.753136E-3
780.737686E-3
780.935669E-3
780.964279E-3
781.158829E-3
781.273842E-3
781.376266E-3
781.514740E-3
781.514740E-3
781.474113E-3
781.414032E-3
781.257248E-3
781.242371E-3
781.114769E-3
781.081009E-3
781.129074E-3
781.086159E-3
781.068993E-3
780.868721E-3
780.786896E-3
780.612946E-3
780.377197E-3
780.262756E-3
780.090523E-3
779.948044E-3
779.768944E-3
779.570389E-3
779.562950E-3
779.346657E-3
779.001617E-3
778.625107E-3
778.229141E-3
777.909851E-3
777.591133E-3
777.473259E-3
777.433205E-3
777.612305E-3
778.512383E-3
780.258179E-3
783.207893E-3
787.001038E-3
790.853691E-3
795.042801E-3
798.504066E-3
801.361084E-3
803.075981E-3
803.898239E-3
803.813553E-3
802.681160E-3
801.225471E-3
799.464226E-3
797.400284E-3
795.406723E-3
793.488693E-3
792.003822E-3
790.646553E-3
789.890099E-3
789.526749E-3
789.424896E-3
789.488983E-3
789.653206E-3
789.521027E-3
789.319611E-3
788.735962E-3
788.100815E-3
787.525749E-3
787.231064E-3
787.423325E-3
787.426186E-3
787.834740E-3
788.398933E-3
788.620377E-3
789.357948E-3
789.804840E-3
789.916992E-3
789.768219E-3
789.368248E-3
788.989449E-3
788.371468E-3
787.671661E-3
787.071419E-3
786.252022E-3
785.607719E-3
784.932518E-3
784.279633E-3
783.794975E-3
782.979584E-3
782.473755E-3
781.926727E-3
781.317329E-3
781.105042E-3
780.738831E-3
780.541420E-3
780.271912E-3
780.186081E-3
779.977798E-3
779.807854E-3
779.702568E-3
779.309464E-3
779.289436E-3
779.253960E-3
779.120064E-3
779.130936E-3
779.028511E-3
778.824234E-3
778.740692E-3
778.542709E-3
778.423691E-3
778.173637E-3
777.902412E-3
777.635765E-3
777.289009E-3
777.170563E-3
776.951981E-3
776.916504E-3
776.732826E-3
776.549149E-3
776.542854E-3
776.314545E-3
776.149750E-3
775.933456E-3
775.515747E-3
775.175858E-3
774.894905E-3
774.276352E-3
773.813438E-3
773.485565E-3
773.285294E-3
773.093605E-3
773.167419E-3
773.731613E-3
774.963570E-3
777.204323E-3
780.588341E-3
784.453583E-3
788.649559E-3
792.478752E-3
795.894241E-3
798.402786E-3
800.077629E-3
800.769424E-3
800.704193E-3
799.777222E-3
798.272324E-3
796.547127E-3
794.801331E-3
792.939949E-3
791.532898E-3
790.402222E-3
789.559937E-3
789.121056E-3
788.850975E-3
788.871002E-3
789.143372E-3
789.368248E-3
789.608002E-3
789.476395E-3
789.309883E-3
788.594627E-3
787.877083E-3
787.388992E-3
786.982727E-3
786.939812E-3
786.975288E-3
787.216759E-3
787.782669E-3
788.193512E-3
788.596344E-3
788.834381E-3
788.961411E-3
788.960838E-3
788.647270E-3
788.357162E-3
787.886238E-3
787.347794E-3
786.472893E-3
785.807419E-3
785.246086E-3
784.542847E-3
783.940315E-3
783.468819E-3
782.822227E-3
782.601929E-3
782.294083E-3
782.144737E-3
781.939316E-3
781.673813E-3
781.579971E-3
781.295013E-3
781.051826E-3
780.988884E-3
780.797768E-3
780.845261E-3
780.695343E-3
780.603790E-3
780.645561E-3
780.698776E-3
780.832100E-3
780.760002E-3
780.690765E-3
780.856705E-3
780.548286E-3
780.360603E-3
780.172348E-3
780.040169E-3
779.910278E-3
779.633331E-3
779.575539E-3
779.280853E-3
779.136086E-3
779.053116E-3
778.894615E-3
778.797340E-3
778.542709E-3
778.290367E-3
778.144455E-3
777.867508E-3
777.624321E-3
777.213478E-3
776.875305E-3
776.624107E-3
776.211548E-3
775.939178E-3
775.714874E-3
775.518036E-3
775.614738E-3
776.063347E-3
777.390862E-3
779.715729E-3
783.037376E-3
787.089157E-3
791.127205E-3
794.958115E-3
798.196220E-3
800.505638E-3
801.985359E-3
802.379608E-3
801.886940E-3
800.764275E-3
799.241066E-3
797.578812E-3
795.750618E-3
794.139290E-3
792.667580E-3
791.732025E-3
791.020775E-3
790.672874E-3
790.744972E-3
790.914917E-3
791.024780E-3
791.310310E-3
791.325188E-3
791.188431E-3
790.686035E-3
790.003395E-3
789.328766E-3
788.817215E-3
788.634109E-3
788.662148E-3
788.691902E-3
789.073563E-3
789.328194E-3
789.866638E-3
790.350151E-3
790.515518E-3
790.661430E-3
790.434837E-3
790.134430E-3
789.550781E-3
788.913345E-3
788.428688E-3
787.718582E-3
787.177849E-3
786.648560E-3
786.133003E-3
785.763359E-3
785.415459E-3
785.240364E-3
785.020638E-3
784.736252E-3
784.749413E-3
784.420967E-3
784.239006E-3
784.138298E-3
783.876228E-3
783.857918E-3
783.588982E-3
783.653069E-3
783.706856E-3
783.822441E-3
783.944321E-3
783.838463E-3
783.851624E-3
783.738899E-3
783.640480E-3
783.696556E-3
783.451653E-3
783.350945E-3
783.355522E-3
783.293724E-3
783.340645E-3
783.190155E-3
783.079720E-3
782.872581E-3
782.480049E-3
782.318687E-3
782.106972E-3
781.978798E-3
781.807709E-3
781.680107E-3
781.589699E-3
781.454659E-3
781.434631E-3
781.154251E-3
781.077003E-3
780.860138E-3
780.544281E-3
780.431557E-3
780.084229E-3
779.805565E-3
779.624176E-3
779.619026E-3
779.764938E-3
780.346298E-3
781.593132E-3
784.169197E-3
787.510872E-3
791.497993E-3
795.585251E-3
799.475098E-3
802.753830E-3
804.941940E-3
806.187630E-3
806.417656E-3
805.688095E-3
804.439545E-3
802.626228E-3
800.683022E-3
798.794174E-3
797.083855E-3
795.933151E-3
794.982147E-3
794.432831E-3
794.281197E-3
794.170761E-3
794.486046E-3
794.712639E-3
794.909477E-3
794.864273E-3
794.504929E-3
793.798256E-3
793.078423E-3
792.533112E-3
792.400360E-3
792.567444E-3
792.867851E-3
793.212891E-3
793.703270E-3
794.189644E-3
794.442558E-3
794.667435E-3
794.519234E-3
794.224548E-3
793.837738E-3
793.187141E-3
792.576599E-3
791.728592E-3
790.986443E-3
790.129280E-3
789.403152E-3
788.964272E-3
788.392067E-3
787.740326E-3
787.258530E-3
786.895180E-3
786.724663E-3
786.313820E-3
786.012840E-3
785.761642E-3
785.532761E-3
785.474968E-3
785.033226E-3
785.013199E-3
784.873581E-3
784.716225E-3
784.555435E-3
784.308815E-3
784.152603E-3
784.024429E-3
783.911705E-3
783.828735E-3
783.665657E-3
783.301735E-3
782.978439E-3
782.565880E-3
782.318687E-3
781.874084E-3
781.481552E-3
780.986595E-3
780.532265E-3
780.260468E-3
779.898262E-3
779.654503E-3
779.403305E-3
779.117203E-3
778.857994E-3
778.714371E-3
778.430557E-3
778.125572E-3
777.749062E-3
777.456665E-3
777.010345E-3
776.669884E-3
776.298523E-3
776.082230E-3
776.105118E-3
776.393509E-3
777.333069E-3
779.441643E-3
782.394791E-3
786.329842E-3
790.377045E-3
794.337273E-3
797.913551E-3
800.349426E-3
802.048874E-3
802.473450E-3
802.134705E-3
801.005745E-3
799.446487E-3
797.795105E-3
796.011543E-3
794.517517E-3
793.246078E-3
792.264748E-3
791.842461E-3
791.395569E-3
791.551208E-3
791.800690E-3
791.922569E-3
792.131996E-3
792.173767E-3
792.150879E-3
791.619301E-3
790.797615E-3
790.074921E-3
789.245224E-3
788.671303E-3
788.597488E-3
788.577461E-3
789.158821E-3
789.596558E-3
790.091515E-3
790.602493E-3
790.877151E-3
791.068840E-3
790.881157E-3
790.592194E-3
790.192223E-3
789.503288E-3
788.740540E-3
788.018417E-3
787.348938E-3
786.776161E-3
786.146736E-3
785.595131E-3
785.044098E-3
784.643555E-3
784.364319E-3
784.132004E-3
783.911705E-3
783.605576E-3
783.441353E-3
783.433342E-3
783.372688E-3
783.293152E-3
783.114624E-3
783.021927E-3
782.979584E-3
782.941246E-3
782.732964E-3
782.450867E-3
782.271194E-3
782.070923E-3
781.863213E-3
781.582832E-3
781.108475E-3
780.906487E-3
780.852699E-3
780.614090E-3
780.499649E-3
780.136299E-3
779.895973E-3
779.870796E-3
779.559517E-3
779.520607E-3
779.318047E-3
779.025650E-3
778.788185E-3
778.379059E-3
778.248024E-3
778.044891E-3
777.850914E-3
777.756500E-3
777.343369E-3
777.131653E-3
776.731682E-3
776.454735E-3
775.954056E-3
775.430489E-3
775.496864E-3
775.023079E-3
774.972725E-3
775.329208E-3
776.083946E-3
778.256035E-3
781.043816E-3
784.783745E-3
789.258957E-3
793.432045E-3
797.091866E-3
799.734306E-3
801.487541E-3
802.088928E-3
801.719856E-3
800.849533E-3
798.838234E-3
797.259521E-3
