Notes :


2023-11-10 ¿ÀÈÄ 10:18:32
Volts
Ch : LED 2,
190.418243E-3
190.139580E-3
190.200233E-3
190.149307E-3
190.203667E-3
190.200806E-3
190.183067E-3
189.983940E-3
189.520454E-3
188.988304E-3
188.369751E-3
187.985229E-3
187.735748E-3
187.532616E-3
187.700272E-3
187.709999E-3
187.944031E-3
188.197517E-3
188.500786E-3
188.876152E-3
188.868141E-3
188.844109E-3
188.822365E-3
188.612938E-3
188.695335E-3
188.510513E-3
188.337708E-3
188.232994E-3
187.960052E-3
187.822151E-3
187.571526E-3
187.435341E-3
187.243080E-3
186.891174E-3
186.705780E-3
186.533546E-3
186.329842E-3
186.343002E-3
186.147308E-3
186.182785E-3
186.046600E-3
186.105537E-3
185.984802E-3
185.887527E-3
185.968781E-3
185.905266E-3
185.985374E-3
186.082077E-3
186.038017E-3
186.249733E-3
186.100388E-3
186.135864E-3
186.205101E-3
186.059761E-3
185.954475E-3
185.831451E-3
185.680962E-3
185.663223E-3
185.489845E-3
185.624313E-3
185.545349E-3
185.569382E-3
185.595131E-3
185.465813E-3
185.594559E-3
185.484695E-3
185.451508E-3
185.532761E-3
185.381126E-3
185.534477E-3
185.446930E-3
185.444641E-3
185.560799E-3
185.416603E-3
185.525894E-3
185.425186E-3
185.504723E-3
185.620308E-3
185.623169E-3
186.066628E-3
186.754990E-3
187.837601E-3
189.618874E-3
191.452789E-3
193.589973E-3
195.368385E-3
197.058105E-3
198.172188E-3
198.595619E-3
198.551559E-3
197.862053E-3
196.998596E-3
196.105957E-3
194.948387E-3
194.202805E-3
193.268394E-3
192.641258E-3
192.245293E-3
191.766357E-3
191.682243E-3
191.629601E-3
191.659927E-3
191.681671E-3
191.556931E-3
191.572952E-3
191.328049E-3
190.901756E-3
190.413094E-3
189.976501E-3
189.819717E-3
189.603424E-3
189.627457E-3
189.791107E-3
189.909554E-3
190.278053E-3
190.418243E-3
190.557289E-3
190.659142E-3
190.556145E-3
190.559006E-3
190.246010E-3
189.973068E-3
189.737320E-3
189.420319E-3
189.324760E-3
189.085007E-3
188.846397E-3
188.607216E-3
188.298225E-3
188.165474E-3
187.928009E-3
187.832451E-3
187.925148E-3
187.589264E-3
187.540627E-3
187.359810E-3
187.360382E-3
187.323761E-3
187.134361E-3
187.217331E-3
186.959267E-3
186.819649E-3
186.863708E-3
186.703491E-3
186.712646E-3
186.630249E-3
186.670303E-3
186.718941E-3
186.601067E-3
186.635399E-3
186.534119E-3
186.439705E-3
186.424255E-3
186.248016E-3
186.391640E-3
186.391640E-3
186.341286E-3
186.315536E-3
186.098671E-3
186.139297E-3
186.051178E-3
186.048889E-3
186.134148E-3
185.970497E-3
185.967636E-3
185.931015E-3
185.731316E-3
185.642624E-3
185.403442E-3
185.366821E-3
185.264397E-3
185.299873E-3
185.588264E-3
185.813713E-3
186.588478E-3
187.523460E-3
188.887596E-3
190.706635E-3
192.633247E-3
194.823647E-3
196.576881E-3
198.029709E-3
199.051666E-3
199.178696E-3
198.898315E-3
198.192215E-3
197.429466E-3
196.492195E-3
195.467377E-3
194.771004E-3
194.134140E-3
193.677521E-3
193.384552E-3
193.074989E-3
193.060112E-3
192.974854E-3
192.933083E-3
193.006897E-3
192.866135E-3
192.815781E-3
192.577744E-3
192.011261E-3
191.532898E-3
190.845108E-3
190.521812E-3
190.107536E-3
189.949036E-3
189.984512E-3
189.916992E-3
190.237427E-3
190.370750E-3
190.557289E-3
190.724945E-3
190.631676E-3
190.622520E-3
190.544128E-3
190.345573E-3
190.174484E-3
189.911842E-3
189.693832E-3
189.329338E-3
189.160538E-3
189.043808E-3
188.729668E-3
188.630676E-3
188.442993E-3
188.262749E-3
188.208961E-3
187.959480E-3
188.005829E-3
187.833595E-3
187.613869E-3
187.534332E-3
187.348938E-3
187.333488E-3
187.241936E-3
187.094879E-3
187.104034E-3
186.952400E-3
186.937523E-3
186.859703E-3
186.712646E-3
186.797905E-3
186.579323E-3
186.617088E-3
186.526680E-3
186.515236E-3
186.411095E-3
186.254311E-3
186.380768E-3
186.317253E-3
186.306953E-3
186.289787E-3
186.190796E-3
186.328125E-3
186.335564E-3
186.141014E-3
186.199951E-3
186.188507E-3
186.285210E-3
186.260033E-3
186.274910E-3
186.271477E-3
186.288071E-3
186.297226E-3
186.245728E-3
186.098671E-3
186.142159E-3
185.902405E-3
185.815430E-3
185.680962E-3
185.659218E-3
185.683250E-3
185.567665E-3
185.868073E-3
186.154175E-3
186.922073E-3
188.215256E-3
189.719582E-3
191.663361E-3
193.744469E-3
195.796967E-3
197.664070E-3
198.771286E-3
199.544334E-3
199.555779E-3
199.133492E-3
198.536110E-3
197.570229E-3
196.707916E-3
195.822716E-3
194.936943E-3
194.437408E-3
194.011116E-3
193.962479E-3
193.683815E-3
193.574524E-3
193.556213E-3
193.583107E-3
193.687820E-3
193.612862E-3
193.446922E-3
193.192863E-3
192.669296E-3
192.207527E-3
191.647339E-3
191.219902E-3
190.999031E-3
190.730667E-3
190.799332E-3
190.865135E-3
190.939522E-3
191.126060E-3
191.193581E-3
191.264534E-3
191.278839E-3
191.188431E-3
191.079140E-3
190.864563E-3
190.826797E-3
190.698624E-3
190.339279E-3
190.249443E-3
189.944458E-3
189.779663E-3
189.575958E-3
189.329910E-3
189.109612E-3
188.838959E-3
188.818932E-3
188.666725E-3
188.533401E-3
188.457298E-3
188.239288E-3
188.135147E-3
188.088799E-3
187.979507E-3
187.922859E-3
187.650490E-3
187.742043E-3
187.688828E-3
187.619019E-3
187.739182E-3
187.572098E-3
187.593842E-3
187.469101E-3
187.417603E-3
187.447929E-3
187.308311E-3
187.379265E-3
187.366676E-3
187.314606E-3
187.441635E-3
187.260246E-3
187.316322E-3
187.239647E-3
187.137794E-3
187.132072E-3
187.066841E-3
187.115479E-3
187.023354E-3
186.912918E-3
186.962700E-3
186.782455E-3
186.813927E-3
186.776733E-3
186.791611E-3
186.831093E-3
186.766434E-3
186.736679E-3
186.590195E-3
186.445427E-3
186.417961E-3
186.170769E-3
186.179924E-3
186.050034E-3
186.009979E-3
186.097527E-3
186.186790E-3
186.521530E-3
187.209892E-3
188.224983E-3
189.753914E-3
191.318893E-3
193.368530E-3
195.375252E-3
197.019196E-3
198.287201E-3
198.889160E-3
198.974419E-3
198.550987E-3
197.745895E-3
196.857834E-3
195.885086E-3
195.054245E-3
194.244576E-3
193.526459E-3
193.097878E-3
192.606354E-3
192.556572E-3
192.402649E-3
192.325974E-3
192.401505E-3
192.332268E-3
192.533684E-3
192.380905E-3
191.992950E-3
191.653061E-3
191.032791E-3
190.729523E-3
190.500069E-3
190.255737E-3
190.254021E-3
190.270042E-3
190.498924E-3
190.787315E-3
190.865135E-3
191.175270E-3
191.080856E-3
191.071701E-3
190.952682E-3
190.796471E-3
190.710068E-3
190.407944E-3
190.264320E-3
190.141296E-3
189.830017E-3
189.779091E-3
189.510155E-3
189.311028E-3
189.250374E-3
189.022636E-3
188.980865E-3
188.745689E-3
188.726234E-3
188.555717E-3
188.389206E-3
188.389206E-3
188.132286E-3
188.056755E-3
188.021851E-3
187.877083E-3
187.941170E-3
187.786674E-3
187.754631E-3
187.604713E-3
187.477684E-3
187.475967E-3
187.182426E-3
187.243652E-3
187.301445E-3
187.147522E-3
187.203026E-3
187.090302E-3
187.098312E-3
187.066269E-3
186.982727E-3
186.978149E-3
186.848831E-3
186.882591E-3
186.847687E-3
186.793900E-3
186.845970E-3
186.738968E-3
186.839104E-3
186.801338E-3
186.829376E-3
186.746979E-3
186.615372E-3
186.581612E-3
186.472893E-3
186.281204E-3
186.333275E-3
185.971069E-3
185.999107E-3
185.976219E-3
185.798264E-3
185.986519E-3
186.147308E-3
186.676598E-3
187.494850E-3
188.594627E-3
190.166473E-3
191.819572E-3
193.807411E-3
195.586967E-3
196.983147E-3
198.118401E-3
198.434830E-3
198.419380E-3
197.879219E-3
196.925354E-3
196.152878E-3
195.118332E-3
194.382477E-3
193.699837E-3
193.099022E-3
192.796898E-3
192.457581E-3
192.326546E-3
192.210960E-3
192.045021E-3
192.247581E-3
192.131424E-3
192.087364E-3
191.812706E-3
191.389847E-3
191.017342E-3
190.413666E-3
190.097809E-3
189.784813E-3
189.594841E-3
189.536476E-3
189.505577E-3
189.652634E-3
189.768791E-3
189.884949E-3
190.128136E-3
190.077782E-3
190.063477E-3
189.977074E-3
189.789963E-3
189.716721E-3
189.404297E-3
189.194298E-3
188.981438E-3
188.664436E-3
188.648987E-3
188.358879E-3
188.203239E-3
187.913132E-3
187.746620E-3
187.632179E-3
187.419319E-3
187.329483E-3
187.237930E-3
187.140083E-3
187.150383E-3
186.912346E-3
186.821938E-3
186.776733E-3
186.598778E-3
186.629677E-3
186.446571E-3
186.373901E-3
186.327553E-3
186.134148E-3
186.090660E-3
185.973930E-3
185.981369E-3
185.944748E-3
185.847473E-3
185.997391E-3
185.850906E-3
185.841179E-3
185.844040E-3
185.778236E-3
185.846329E-3
185.715866E-3
185.655785E-3
185.662651E-3
185.524178E-3
185.732460E-3
185.570526E-3
185.641479E-3
185.679817E-3
185.576248E-3
185.605431E-3
185.453224E-3
185.413742E-3
185.388565E-3
185.338783E-3
185.445213E-3
185.459518E-3
185.450363E-3
185.492134E-3
185.284996E-3
185.275269E-3
185.025215E-3
184.888458E-3
184.824944E-3
184.837532E-3
184.986877E-3
185.232353E-3
186.051178E-3
187.209892E-3
188.572311E-3
190.478325E-3
192.458725E-3
194.252014E-3
195.989799E-3
197.093582E-3
197.954178E-3
197.864914E-3
197.454643E-3
196.746254E-3
195.831871E-3
195.021057E-3
194.068909E-3
193.342781E-3
192.783165E-3
192.236710E-3
192.006683E-3
191.737747E-3
191.508293E-3
191.639328E-3
191.859055E-3
192.058182E-3
192.073059E-3
191.932297E-3
191.757202E-3
191.348076E-3
191.037941E-3
190.374184E-3
189.983368E-3
189.895821E-3
189.703560E-3
189.714432E-3
189.573669E-3
189.734459E-3
189.910698E-3
190.041733E-3
190.282631E-3
190.234566E-3
190.157318E-3
190.159035E-3
189.999390E-3
189.973068E-3
189.697266E-3
189.634323E-3
189.488411E-3
189.212608E-3
189.059830E-3
188.782883E-3
188.608932E-3
188.496780E-3
188.282776E-3
188.201523E-3
187.925720E-3
187.799835E-3
187.784958E-3
187.500000E-3
187.524033E-3
187.411308E-3
187.311745E-3
187.316322E-3
187.098312E-3
187.195015E-3
187.066269E-3
187.030792E-3
187.011337E-3
186.815643E-3
186.857414E-3
186.844254E-3
186.811066E-3
186.795616E-3
186.734390E-3
186.767578E-3
186.659431E-3
186.724663E-3
186.709213E-3
186.665726E-3
186.751556E-3
186.645126E-3
186.583328E-3
186.710358E-3
186.474609E-3
186.524391E-3
186.508942E-3
186.488914E-3
186.530113E-3
186.513519E-3
186.601639E-3
186.475754E-3
186.518669E-3
186.432266E-3
186.403084E-3
186.445427E-3
186.301804E-3
186.311531E-3
186.308098E-3
186.189651E-3
186.201096E-3
186.006546E-3
185.892677E-3
185.885811E-3
185.800552E-3
185.876083E-3
185.929298E-3
186.304665E-3
187.079430E-3
187.996101E-3
189.562798E-3
191.112328E-3
192.767143E-3
194.577026E-3
196.063042E-3
197.251511E-3
197.807693E-3
197.679520E-3
197.290421E-3
196.525383E-3
195.785522E-3
194.811630E-3
193.992233E-3
193.330193E-3
192.478180E-3
192.126846E-3
191.703415E-3
191.467667E-3
191.508293E-3
191.324615E-3
191.460800E-3
191.439629E-3
191.418457E-3
191.522598E-3
191.155815E-3
190.908051E-3
190.384483E-3
190.015984E-3
189.869499E-3
189.717865E-3
189.755630E-3
189.792824E-3
189.929008E-3
190.209389E-3
190.313530E-3
190.474892E-3
190.459442E-3
190.458870E-3
190.458870E-3
190.176773E-3
190.164185E-3
190.030289E-3
189.940453E-3
189.871216E-3
189.447212E-3
189.332771E-3
189.097595E-3
188.892174E-3
188.841820E-3
188.629532E-3
188.579178E-3
188.373756E-3
188.269043E-3
188.259888E-3
188.081360E-3
188.047028E-3
187.899399E-3
187.693405E-3
187.799835E-3
187.596703E-3
187.590408E-3
187.370110E-3
187.408447E-3
187.295723E-3
187.164688E-3
187.203598E-3
187.069702E-3
187.112045E-3
187.084579E-3
186.911774E-3
186.959839E-3
186.914635E-3
186.851120E-3
187.013626E-3
186.682892E-3
186.747551E-3
186.645126E-3
186.691475E-3
186.731529E-3
186.573029E-3
186.666298E-3
186.630249E-3
186.591911E-3
186.646271E-3
186.548424E-3
186.599922E-3
186.591911E-3
186.558723E-3
186.510658E-3
186.336708E-3
186.306953E-3
186.201096E-3
186.021423E-3
186.033440E-3
185.821152E-3
185.894394E-3
185.857773E-3
185.919571E-3
186.146164E-3
186.609077E-3
187.544060E-3
188.805771E-3
190.242577E-3
191.999817E-3
193.654633E-3
195.356369E-3
196.520805E-3
197.102165E-3
197.328186E-3
196.853256E-3
196.306229E-3
195.553207E-3
194.709778E-3
193.832588E-3
192.976570E-3
192.480469E-3
191.952896E-3
191.491699E-3
191.365242E-3
191.029358E-3
191.061974E-3
191.080284E-3
191.017342E-3
191.115189E-3
190.895462E-3
190.780449E-3
190.440559E-3
189.968491E-3
189.812851E-3
189.454079E-3
189.393997E-3
189.301872E-3
189.305878E-3
189.498711E-3
189.591980E-3
189.894676E-3
190.118408E-3
190.193367E-3
190.316963E-3
190.208244E-3
190.232277E-3
189.992523E-3
189.745903E-3
189.669228E-3
189.418602E-3
189.400291E-3
189.194870E-3
188.956261E-3
188.929367E-3
188.631248E-3
188.447571E-3
188.247299E-3
187.997246E-3
188.003540E-3
187.775230E-3
187.784958E-3
187.624741E-3
187.485695E-3
187.473679E-3
187.340927E-3
187.342644E-3
187.356949E-3
187.185860E-3
187.188721E-3
187.071419E-3
187.099457E-3
186.969566E-3
186.995888E-3
187.023354E-3
186.864853E-3
187.055969E-3
186.982155E-3
186.981010E-3
187.069702E-3
186.876869E-3
186.959839E-3
187.010193E-3
186.919212E-3
187.010193E-3
186.908913E-3
187.023354E-3
187.058258E-3
187.051964E-3
187.121773E-3
187.044525E-3
187.144661E-3
187.088013E-3
187.059402E-3
187.078285E-3
186.922646E-3
187.006760E-3
187.016487E-3
186.969566E-3
186.901474E-3
186.746407E-3
186.811638E-3
186.706352E-3
186.508369E-3
186.547852E-3
186.438560E-3
186.809349E-3
187.146378E-3
187.960625E-3
189.266968E-3
190.849686E-3
192.673874E-3
194.403076E-3
196.121979E-3
197.670937E-3
198.430824E-3
198.943520E-3
198.694611E-3
198.118401E-3
197.544479E-3
196.643829E-3
195.718575E-3
194.895172E-3
194.169617E-3
193.801689E-3
193.333626E-3
193.127060E-3
192.922783E-3
192.721367E-3
192.740250E-3
192.655563E-3
192.775154E-3
192.819214E-3
192.672729E-3
192.527962E-3
192.058182E-3
191.730881E-3
191.302872E-3
190.995598E-3
190.945816E-3
190.693474E-3
190.828514E-3
190.813065E-3
191.025352E-3
191.127777E-3
191.183853E-3
191.269684E-3
191.324043E-3
191.230774E-3
191.295433E-3
191.158676E-3
190.980148E-3
190.790176E-3
190.590477E-3
190.520096E-3
190.178490E-3
190.090942E-3
189.961052E-3
189.673805E-3
189.652634E-3
189.345932E-3
189.283562E-3
189.147949E-3
188.972282E-3
189.028931E-3
188.897324E-3
188.861275E-3
188.678169E-3
188.514519E-3
188.489914E-3
188.339424E-3
188.373756E-3
188.261032E-3
188.141441E-3
188.158035E-3
187.993240E-3
188.009262E-3
188.075066E-3
187.918282E-3
187.917709E-3
187.762642E-3
187.894249E-3
187.819290E-3
187.750053E-3
187.791252E-3
187.661362E-3
187.615585E-3
187.567520E-3
187.417030E-3
187.598419E-3
187.479973E-3
187.536049E-3
187.542343E-3
187.342072E-3
187.444496E-3
187.428474E-3
187.431335E-3
187.478256E-3
187.413597E-3
187.440491E-3
187.247086E-3
187.368393E-3
187.387848E-3
187.133789E-3
187.204742E-3
186.974144E-3
187.038803E-3
187.039948E-3
187.063408E-3
187.490845E-3
188.070488E-3
189.066696E-3
190.298080E-3
191.757202E-3
193.543053E-3
195.130920E-3
196.535683E-3
197.588539E-3
198.122978E-3
198.217964E-3
197.712708E-3
196.945953E-3
196.083641E-3
195.062256E-3
194.282341E-3
193.430901E-3
192.927933E-3
192.381477E-3
192.067337E-3
191.892815E-3
191.766930E-3
191.799545E-3
191.821289E-3
191.725731E-3
191.790390E-3
191.662788E-3
191.621017E-3
191.285706E-3
