Notes :


2023-11-10 ¿ÀÈÄ 10:08:19
Volts
Ch : LED 2,
337.619019E-3
337.677383E-3
337.643623E-3
337.316322E-3
337.116051E-3
336.678886E-3
336.464310E-3
336.096382E-3
335.807419E-3
335.631180E-3
335.258675E-3
335.084724E-3
334.905624E-3
334.640121E-3
334.567451E-3
334.449577E-3
334.311104E-3
334.246445E-3
334.105110E-3
334.289360E-3
334.083366E-3
334.058762E-3
334.002686E-3
333.944893E-3
333.962059E-3
333.816719E-3
333.775520E-3
333.784103E-3
333.627892E-3
333.716011E-3
333.615875E-3
333.575821E-3
333.612442E-3
333.450508E-3
333.563232E-3
333.563232E-3
333.623886E-3
333.596992E-3
333.403587E-3
333.447647E-3
333.152390E-3
333.001900E-3
333.007622E-3
332.830238E-3
332.936668E-3
332.854271E-3
332.869148E-3
332.880592E-3
332.725525E-3
332.787895E-3
332.672882E-3
332.652855E-3
332.710075E-3
332.903481E-3
333.847046E-3
335.200882E-3
337.170982E-3
339.709282E-3
342.202377E-3
344.832230E-3
346.790886E-3
348.241425E-3
348.890305E-3
348.612785E-3
348.111534E-3
347.068977E-3
345.961189E-3
344.898033E-3
343.837738E-3
343.177986E-3
342.664719E-3
342.413521E-3
342.285919E-3
342.264175E-3
342.468452E-3
342.497635E-3
342.677307E-3
342.740250E-3
342.577744E-3
342.168617E-3
341.364670E-3
340.659714E-3
339.985085E-3
339.393425E-3
339.106178E-3
338.829231E-3
338.893318E-3
339.048386E-3
339.182281E-3
339.524460E-3
339.636040E-3
339.817429E-3
339.904404E-3
339.600563E-3
339.497566E-3
339.059258E-3
338.801765E-3
338.403511E-3
337.995529E-3
337.682533E-3
337.294006E-3
336.994743E-3
336.750984E-3
336.455154E-3
336.251450E-3
335.931015E-3
335.759926E-3
335.632896E-3
335.432625E-3
335.359955E-3
335.199738E-3
335.136223E-3
335.045242E-3
334.787750E-3
334.826088E-3
334.602928E-3
334.573174E-3
334.521103E-3
334.421539E-3
334.435272E-3
334.269333E-3
334.169197E-3
334.222412E-3
334.140015E-3
334.230423E-3
334.073067E-3
334.070778E-3
334.007263E-3
334.043312E-3
334.130287E-3
334.057045E-3
333.843040E-3
333.782387E-3
333.572960E-3
333.525467E-3
333.289146E-3
333.136368E-3
333.082581E-3
332.754135E-3
332.699776E-3
332.426834E-3
332.340431E-3
332.412529E-3
332.303810E-3
332.438278E-3
332.649994E-3
333.298302E-3
334.421539E-3
335.988235E-3
338.295937E-3
340.924644E-3
343.387985E-3
345.759201E-3
347.473526E-3
348.608208E-3
348.906326E-3
348.505783E-3
347.669220E-3
346.611786E-3
345.560646E-3
344.483757E-3
343.629456E-3
342.960548E-3
342.529678E-3
342.390633E-3
342.355156E-3
342.561150E-3
342.689896E-3
342.818069E-3
342.961121E-3
342.770004E-3
342.556000E-3
341.920280E-3
341.140366E-3
340.323830E-3
339.591408E-3
339.004898E-3
338.729668E-3
338.583183E-3
338.779449E-3
338.902473E-3
339.108467E-3
339.319038E-3
339.380264E-3
339.523888E-3
339.484406E-3
339.224052E-3
339.078140E-3
338.682175E-3
338.446999E-3
338.151169E-3
337.802696E-3
337.520599E-3
336.985016E-3
336.798477E-3
336.399651E-3
336.285782E-3
336.083794E-3
335.742188E-3
335.593414E-3
335.366821E-3
335.189438E-3
335.072136E-3
334.788322E-3
334.853554E-3
334.752846E-3
334.756279E-3
334.753990E-3
334.564590E-3
334.525681E-3
334.421539E-3
334.286499E-3
334.362602E-3
334.147453E-3
334.110260E-3
334.088516E-3
334.041023E-3
334.030151E-3
333.863640E-3
333.855057E-3
333.781242E-3
333.813286E-3
333.816719E-3
333.712006E-3
333.722878E-3
333.617020E-3
333.480835E-3
333.424759E-3
333.282280E-3
333.288002E-3
333.139229E-3
332.987595E-3
332.859993E-3
332.482910E-3
332.398796E-3
332.307243E-3
332.171631E-3
332.224274E-3
332.210541E-3
332.356453E-3
332.377052E-3
332.751846E-3
333.582115E-3
334.820366E-3
336.757278E-3
339.101028E-3
341.787529E-3
344.341278E-3
346.372032E-3
347.898102E-3
348.403358E-3
348.290062E-3
347.656631E-3
346.525383E-3
345.426178E-3
344.357300E-3
343.384552E-3
342.725945E-3
342.064476E-3
341.810989E-3
341.642761E-3
341.622162E-3
341.847610E-3
341.860199E-3
342.176628E-3
342.229271E-3
342.127419E-3
341.717148E-3
340.887451E-3
340.163040E-3
339.460945E-3
338.904190E-3
338.733101E-3
338.699341E-3
339.136505E-3
339.308739E-3
339.732742E-3
340.096664E-3
340.141296E-3
340.284920E-3
340.102386E-3
339.931870E-3
339.620590E-3
339.197731E-3
339.011765E-3
338.715935E-3
338.429260E-3
338.207245E-3
337.783813E-3
337.552643E-3
337.252235E-3
336.981010E-3
336.911774E-3
336.666298E-3
336.604500E-3
336.455727E-3
336.245728E-3
336.232567E-3
336.031723E-3
335.994530E-3
335.970497E-3
335.845184E-3
335.873795E-3
335.741615E-3
335.759354E-3
335.691261E-3
335.524750E-3
335.607719E-3
335.500717E-3
335.400009E-3
335.370827E-3
335.369110E-3
335.418320E-3
335.271835E-3
335.400009E-3
335.497856E-3
335.426903E-3
335.427475E-3
335.315323E-3
335.231209E-3
335.160828E-3
335.000610E-3
334.989166E-3
334.859276E-3
334.758568E-3
334.542847E-3
334.265327E-3
334.174347E-3
333.837891E-3
333.773232E-3
333.820152E-3
333.732033E-3
333.835030E-3
333.817291E-3
334.280777E-3
334.988022E-3
336.265182E-3
338.089371E-3
340.153885E-3
342.770004E-3
345.298004E-3
347.426605E-3
349.188423E-3
349.814415E-3
349.926567E-3
349.312592E-3
348.220825E-3
347.123909E-3
345.788383E-3
344.795609E-3
343.912125E-3
343.303299E-3
343.001747E-3
342.763138E-3
342.960548E-3
342.953682E-3
343.008041E-3
343.188858E-3
343.140221E-3
342.961121E-3
342.339134E-3
341.637611E-3
340.829086E-3
339.941025E-3
339.537048E-3
339.222336E-3
339.057541E-3
339.190865E-3
339.313316E-3
339.654350E-3
339.810562E-3
339.846039E-3
340.061760E-3
339.862633E-3
339.770508E-3
339.503860E-3
339.143372E-3
338.904190E-3
338.547134E-3
338.245583E-3
337.866211E-3
337.398148E-3
337.121773E-3
336.666298E-3
336.414528E-3
336.203384E-3
335.937881E-3
335.879517E-3
335.539627E-3
335.487556E-3
335.338211E-3
335.294724E-3
335.302734E-3
335.083008E-3
335.056686E-3
334.914207E-3
334.707069E-3
334.709358E-3
334.527397E-3
334.510231E-3
334.538269E-3
334.299660E-3
334.337997E-3
334.149170E-3
334.152031E-3
334.059334E-3
333.970642E-3
334.046745E-3
333.834457E-3
333.743477E-3
333.651352E-3
333.566666E-3
333.554649E-3
333.382416E-3
333.397293E-3
333.348083E-3
333.241653E-3
333.404732E-3
333.219910E-3
333.224487E-3
333.024216E-3
332.804489E-3
332.763863E-3
332.528114E-3
332.393646E-3
332.206535E-3
331.975937E-3
332.028580E-3
331.759644E-3
331.761360E-3
331.781960E-3
331.795120E-3
332.077789E-3
332.594490E-3
333.790970E-3
335.378265E-3
337.536621E-3
340.212822E-3
342.808914E-3
345.286560E-3
347.169113E-3
348.074913E-3
348.359299E-3
347.744179E-3
346.619797E-3
345.160675E-3
343.543625E-3
342.184067E-3
340.907478E-3
339.878654E-3
339.221191E-3
338.602638E-3
338.349724E-3
338.060188E-3
338.039589E-3
337.954330E-3
337.814713E-3
337.808990E-3
337.264252E-3
336.741257E-3
335.907555E-3
334.880447E-3
334.018135E-3
333.135223E-3
332.410240E-3
332.013130E-3
331.823730E-3
331.937599E-3
331.974220E-3
332.124710E-3
332.181358E-3
332.240295E-3
332.203674E-3
332.033730E-3
331.975937E-3
331.807137E-3
331.503296E-3
331.361389E-3
331.000328E-3
330.678177E-3
330.415535E-3
330.274200E-3
330.239296E-3
330.178070E-3
330.202103E-3
330.336571E-3
330.219269E-3
330.343437E-3
330.243301E-3
330.266190E-3
330.288506E-3
330.307961E-3
330.479050E-3
330.579185E-3
330.647850E-3
330.743408E-3
330.887032E-3
330.957413E-3
330.874443E-3
330.873871E-3
330.886459E-3
330.862427E-3
330.901337E-3
330.951118E-3
330.916214E-3
330.936813E-3
330.912209E-3
331.008911E-3
330.923080E-3
330.897903E-3
330.832672E-3
330.718231E-3
330.620384E-3
330.539131E-3
330.405807E-3
330.579758E-3
330.473328E-3
330.616379E-3
330.556297E-3
330.562019E-3
330.468750E-3
330.314827E-3
330.441284E-3
330.200386E-3
330.099106E-3
330.037308E-3
329.722023E-3
329.683113E-3
329.482269E-3
329.509163E-3
329.620171E-3
329.479980E-3
329.540062E-3
329.403305E-3
329.677963E-3
330.371475E-3
331.599426E-3
333.577538E-3
335.794830E-3
338.329124E-3
341.004753E-3
343.172264E-3
344.733810E-3
345.239067E-3
345.078850E-3
344.356155E-3
343.165398E-3
342.049026E-3
340.838814E-3
339.907837E-3
339.207458E-3
338.642693E-3
338.493347E-3
338.311958E-3
338.334846E-3
338.535118E-3
338.632393E-3
338.928223E-3
338.944244E-3
338.901901E-3
338.654137E-3
337.976646E-3
337.538338E-3
336.754990E-3
336.279488E-3
336.060905E-3
335.848045E-3
335.980797E-3
336.165619E-3
336.447716E-3
336.825943E-3
336.870575E-3
337.042809E-3
337.002754E-3
336.769295E-3
336.629677E-3
336.397362E-3
336.211395E-3
335.810852E-3
335.436630E-3
335.186005E-3
334.788895E-3
334.669876E-3
334.337425E-3
334.164619E-3
334.130287E-3
333.797836E-3
333.809280E-3
333.579254E-3
333.477402E-3
333.353233E-3
333.136940E-3
333.115196E-3
332.934380E-3
332.870865E-3
332.881165E-3
332.795906E-3
332.794762E-3
332.795334E-3
332.754707E-3
332.752991E-3
332.528114E-3
332.508087E-3
332.384491E-3
332.265472E-3
332.303238E-3
332.314682E-3
332.401657E-3
332.246590E-3
332.220268E-3
332.221413E-3
332.074356E-3
332.128143E-3
332.025719E-3
331.965637E-3
332.003975E-3
331.712151E-3
331.706429E-3
331.641769E-3
331.585121E-3
331.554222E-3
331.306458E-3
331.325340E-3
331.135941E-3
330.890465E-3
330.945396E-3
330.556870E-3
330.440140E-3
330.347443E-3
330.453873E-3
330.627251E-3
330.690193E-3
331.550217E-3
332.702065E-3
334.475327E-3
336.757851E-3
339.067841E-3
341.557503E-3
343.520164E-3
345.042801E-3
345.939445E-3
345.866776E-3
345.329475E-3
344.301796E-3
343.117332E-3
342.088509E-3
341.014481E-3
340.192795E-3
339.448929E-3
338.990593E-3
338.831520E-3
338.711357E-3
338.895607E-3
338.899612E-3
339.103317E-3
339.211464E-3
339.059830E-3
338.912201E-3
338.390923E-3
337.641907E-3
337.158966E-3
336.360168E-3
336.051750E-3
335.763931E-3
335.711288E-3
335.758209E-3
335.858917E-3
336.099815E-3
336.231995E-3
336.294937E-3
336.467743E-3
336.309242E-3
336.250877E-3
336.068344E-3
335.872078E-3
335.659790E-3
335.256958E-3
335.069847E-3
334.659576E-3
334.217262E-3
333.908844E-3
333.595848E-3
333.490562E-3
333.310318E-3
333.040237E-3
332.894897E-3
332.632256E-3
332.528687E-3
332.425690E-3
332.227707E-3
332.181358E-3
332.024002E-3
332.058907E-3
331.911278E-3
331.839752E-3
331.854630E-3
331.606293E-3
331.531334E-3
331.479836E-3
331.391716E-3
331.427765E-3
331.235504E-3
331.232071E-3
331.098747E-3
331.133080E-3
331.082153E-3
330.966568E-3
330.984879E-3
330.859566E-3
330.735970E-3
330.676460E-3
330.483627E-3
330.425835E-3
330.275345E-3
330.218697E-3
330.235291E-3
330.103683E-3
330.292511E-3
330.233002E-3
330.091095E-3
329.962349E-3
329.789543E-3
329.845047E-3
329.671097E-3
329.516029E-3
329.612160E-3
329.422760E-3
329.335213E-3
329.151535E-3
328.935814E-3
328.968430E-3
328.734398E-3
328.796768E-3
328.789902E-3
329.048538E-3
329.833603E-3
331.018066E-3
332.913208E-3
335.165977E-3
337.600708E-3
340.193939E-3
342.223549E-3
343.818855E-3
344.615364E-3
344.611931E-3
344.048309E-3
342.978859E-3
341.928864E-3
340.635109E-3
339.509583E-3
338.740540E-3
337.981796E-3
337.644196E-3
337.355232E-3
337.187004E-3
337.323189E-3
337.316895E-3
337.491417E-3
337.661362E-3
337.692261E-3
337.652779E-3
337.317467E-3
336.920929E-3
336.304665E-3
335.625458E-3
335.222626E-3
334.680748E-3
334.539413E-3
334.475327E-3
334.503365E-3
334.708786E-3
334.792900E-3
334.878731E-3
335.031509E-3
335.037804E-3
335.091591E-3
334.836960E-3
334.673882E-3
334.484482E-3
334.134293E-3
333.975220E-3
333.580399E-3
333.305740E-3
332.923508E-3
332.607651E-3
332.448578E-3
332.177925E-3
332.046318E-3
331.944466E-3
331.657219E-3
331.573105E-3
331.307030E-3
331.175423E-3
331.008339E-3
330.825233E-3
330.782318E-3
330.723953E-3
330.722237E-3
330.659294E-3
330.514526E-3
330.523109E-3
330.418968E-3
330.395508E-3
330.308533E-3
330.068207E-3
330.087662E-3
329.972076E-3
329.973221E-3
330.028725E-3
329.924011E-3
329.910851E-3
329.744911E-3
329.738617E-3
329.577827E-3
329.444504E-3
329.463387E-3
329.284859E-3
329.284859E-3
329.207039E-3
329.108620E-3
329.148102E-3
329.076576E-3
329.102898E-3
329.094315E-3
329.061127E-3
328.999329E-3
328.836823E-3
328.816223E-3
328.739548E-3
328.642273E-3
328.716660E-3
328.459167E-3
328.334999E-3
328.275490E-3
328.067780E-3
328.186798E-3
328.130722E-3
328.091240E-3
328.146172E-3
328.495789E-3
329.265404E-3
330.477333E-3
332.288933E-3
334.506798E-3
336.876297E-3
339.349365E-3
341.264534E-3
342.637825E-3
343.133926E-3
342.752266E-3
341.996384E-3
340.832520E-3
339.599991E-3
338.418961E-3
337.381554E-3
336.682892E-3
335.983086E-3
335.651207E-3
335.573387E-3
335.481834E-3
335.653496E-3
335.664368E-3
335.820007E-3
335.931015E-3
335.990524E-3
335.860062E-3
335.368538E-3
334.889603E-3
334.445000E-3
334.091949E-3
334.001541E-3
333.950043E-3
334.030151E-3
334.207535E-3
334.368896E-3
334.609222E-3
334.750557E-3
334.823227E-3
334.858131E-3
334.757423E-3
334.814072E-3
334.491920E-3
334.320831E-3
334.140015E-3
333.790398E-3
333.516884E-3
333.209610E-3
333.056831E-3
332.695770E-3
332.454872E-3
332.474327E-3
332.172203E-3
332.060623E-3
331.973648E-3
331.806564E-3
331.848907E-3
331.554222E-3
331.527328E-3
331.398582E-3
331.263542E-3
331.359673E-3
331.169128E-3
331.117630E-3
331.177711E-3
330.947113E-3
331.009483E-3
330.881310E-3
330.902481E-3
330.876732E-3
330.841827E-3
330.857849E-3
330.766869E-3
330.715370E-3
330.682182E-3
330.568886E-3
330.676460E-3
330.530548E-3
330.545998E-3
330.584335E-3
330.532265E-3
330.641556E-3
330.595207E-3
330.583763E-3
330.513382E-3
330.345726E-3
330.366898E-3
330.219269E-3
330.112839E-3
330.154610E-3
330.048180E-3
330.069351E-3
329.770088E-3
329.673958E-3
329.592133E-3
329.363251E-3
329.356956E-3
329.251671E-3
329.222488E-3
329.330063E-3
329.475975E-3
330.151749E-3
331.072426E-3
332.765007E-3
334.723663E-3
336.888313E-3
339.201736E-3
340.988731E-3
342.558289E-3
343.494415E-3
343.484116E-3
343.057823E-3
342.097664E-3
341.080856E-3
340.057182E-3
338.937950E-3
338.062477E-3
337.109756E-3
336.512947E-3
336.198807E-3
335.939598E-3
335.932159E-3
335.969925E-3
336.030006E-3
336.142159E-3
336.183929E-3
336.198807E-3
335.829735E-3
335.413742E-3
334.925652E-3
334.390640E-3
334.132576E-3
333.857346E-3
333.806419E-3
334.002113E-3
333.997536E-3
334.236145E-3
334.382057E-3
334.498215E-3
334.651566E-3
334.526253E-3
334.515381E-3
334.224701E-3
334.100533E-3
333.840179E-3
333.649063E-3
333.405876E-3
333.045959E-3
332.680321E-3
332.390785E-3
332.053757E-3
332.033730E-3
331.778526E-3
331.590271E-3
331.553078E-3
331.327629E-3
331.238937E-3
331.093597E-3
330.919075E-3
330.879021E-3
330.713081E-3
330.721664E-3
330.661011E-3
330.490494E-3
330.525970E-3
330.380630E-3
330.408669E-3
330.262184E-3
330.242729E-3
330.370903E-3
330.193520E-3
330.202103E-3
330.072212E-3
330.012131E-3
329.965210E-3
329.914284E-3
329.977798E-3
329.922867E-3
329.819298E-3
329.746628E-3
329.548073E-3
329.534340E-3
329.435349E-3
329.351807E-3
329.322624E-3
