Notes :


2023-11-10 ¿ÀÈÄ 11:50:51
Volts
Ch : LED 2,
753.757668E-3
753.675842E-3
753.405190E-3
753.230095E-3
752.969170E-3
752.724838E-3
752.415276E-3
752.008438E-3
751.796722E-3
751.328087E-3
750.857162E-3
750.562477E-3
750.307274E-3
749.912453E-3
749.674988E-3
749.526215E-3
749.676704E-3
749.823761E-3
750.711250E-3
752.330589E-3
755.112648E-3
759.170723E-3
763.748932E-3
768.487358E-3
772.811508E-3
776.719093E-3
779.210472E-3
780.603218E-3
780.777740E-3
780.026436E-3
778.761292E-3
777.111053E-3
775.235367E-3
773.592567E-3
772.107697E-3
770.932961E-3
770.157051E-3
769.535065E-3
769.395447E-3
769.183731E-3
769.469833E-3
769.605446E-3
769.647789E-3
769.666672E-3
769.045258E-3
768.192673E-3
766.932678E-3
765.621185E-3
764.951706E-3
764.231300E-3
764.110565E-3
764.361763E-3
764.659309E-3
765.316772E-3
765.865517E-3
766.223717E-3
766.506958E-3
766.629982E-3
766.685486E-3
766.263771E-3
765.578270E-3
765.011787E-3
764.261055E-3
763.781548E-3
762.914085E-3
762.170792E-3
761.705589E-3
760.885620E-3
760.483932E-3
759.861374E-3
759.515190E-3
759.143257E-3
758.766747E-3
758.692932E-3
758.287811E-3
758.127022E-3
757.922745E-3
757.764244E-3
757.575989E-3
757.327652E-3
757.164001E-3
757.018089E-3
756.842422E-3
756.841850E-3
756.604385E-3
756.408119E-3
756.394386E-3
756.082535E-3
756.147766E-3
755.861092E-3
755.850792E-3
755.668831E-3
755.335236E-3
755.363274E-3
754.974174E-3
754.778481E-3
754.596519E-3
754.231453E-3
754.004860E-3
753.650093E-3
753.510475E-3
753.287888E-3
752.877617E-3
752.866745E-3
752.502251E-3
752.396393E-3
752.229881E-3
751.877403E-3
751.839638E-3
751.638794E-3
751.421928E-3
751.136971E-3
750.865746E-3
750.569344E-3
750.157356E-3
749.763107E-3
749.390030E-3
748.867035E-3
748.695946E-3
748.290825E-3
748.078537E-3
748.237610E-3
748.350906E-3
749.133682E-3
750.988770E-3
753.968239E-3
758.025169E-3
762.520981E-3
767.308044E-3
771.530914E-3
775.048828E-3
777.347946E-3
778.399086E-3
778.571892E-3
777.746773E-3
776.301384E-3
774.608803E-3
772.768021E-3
771.208191E-3
769.727325E-3
768.613243E-3
767.968941E-3
767.464256E-3
767.531776E-3
767.613602E-3
767.927170E-3
768.309402E-3
768.529129E-3
768.521690E-3
767.947769E-3
767.098618E-3
765.955353E-3
764.741135E-3
763.958931E-3
763.314629E-3
763.045692E-3
763.255119E-3
763.638496E-3
764.230728E-3
764.622116E-3
765.060997E-3
765.327644E-3
765.298462E-3
765.402603E-3
764.961433E-3
764.438438E-3
763.981247E-3
763.404465E-3
762.771034E-3
762.005997E-3
761.133957E-3
760.685921E-3
759.931183E-3
759.336662E-3
758.849716E-3
758.399391E-3
758.126450E-3
757.660103E-3
757.410622E-3
757.203484E-3
756.709671E-3
756.510544E-3
756.219292E-3
756.022453E-3
755.699158E-3
755.644226E-3
755.480003E-3
755.203056E-3
755.025101E-3
754.828262E-3
754.663467E-3
754.411125E-3
754.100990E-3
754.046059E-3
753.775406E-3
753.483582E-3
753.317642E-3
752.945137E-3
752.968025E-3
752.689362E-3
752.333450E-3
752.273369E-3
751.887703E-3
751.706886E-3
751.324654E-3
751.071739E-3
750.840569E-3
750.544167E-3
750.377655E-3
750.172234E-3
749.803734E-3
749.803162E-3
749.664688E-3
749.590874E-3
749.348831E-3
749.106216E-3
749.002647E-3
748.778915E-3
748.789787E-3
748.608971E-3
748.279953E-3
748.162651E-3
747.724342E-3
747.363281E-3
746.982193E-3
746.733284E-3
746.661758E-3
746.609688E-3
746.638870E-3
746.813965E-3
747.486305E-3
749.592590E-3
752.231598E-3
756.200409E-3
760.755730E-3
765.044975E-3
769.396019E-3
772.303963E-3
774.587631E-3
775.506020E-3
775.404167E-3
774.572182E-3
773.147392E-3
771.382141E-3
769.616318E-3
767.805290E-3
766.601944E-3
765.332794E-3
764.582634E-3
764.123726E-3
763.897133E-3
764.053917E-3
764.260483E-3
764.557457E-3
764.789772E-3
764.492226E-3
764.137459E-3
763.009644E-3
762.169075E-3
761.265564E-3
760.864449E-3
760.934258E-3
761.091614E-3
761.573982E-3
762.219429E-3
762.884331E-3
763.597870E-3
763.906860E-3
764.069366E-3
763.958931E-3
763.608742E-3
763.244247E-3
762.704659E-3
762.282944E-3
761.685562E-3
760.846710E-3
760.274506E-3
759.641647E-3
759.072876E-3
758.516121E-3
758.147621E-3
757.973671E-3
757.547379E-3
757.268715E-3
757.252693E-3
757.032967E-3
756.916809E-3
756.749153E-3
756.602669E-3
756.491089E-3
756.207848E-3
756.194115E-3
756.024170E-3
755.847359E-3
755.838776E-3
755.590439E-3
755.359840E-3
755.031395E-3
755.017090E-3
754.916382E-3
754.638290E-3
754.690361E-3
754.225159E-3
754.005432E-3
753.747368E-3
753.463554E-3
753.216362E-3
752.854156E-3
752.556610E-3
752.373505E-3
751.868820E-3
751.752663E-3
751.415634E-3
751.112366E-3
751.011658E-3
750.703812E-3
750.563622E-3
750.268936E-3
750.127029E-3
749.872398E-3
749.671555E-3
749.491882E-3
749.238396E-3
748.851013E-3
748.588371E-3
748.188972E-3
748.089981E-3
747.541809E-3
747.275734E-3
747.002220E-3
746.740150E-3
746.808243E-3
746.895218E-3
747.324944E-3
748.643875E-3
750.821114E-3
754.249191E-3
758.419991E-3
762.861443E-3
767.090034E-3
770.649147E-3
773.400879E-3
774.821091E-3
775.187302E-3
774.905205E-3
773.586845E-3
772.136879E-3
770.341301E-3
768.659592E-3
767.052269E-3
765.644646E-3
764.729118E-3
764.015007E-3
763.585854E-3
763.718033E-3
763.715172E-3
764.006424E-3
764.261055E-3
764.185524E-3
763.873672E-3
763.064003E-3
762.165070E-3
761.013794E-3
760.386658E-3
760.114861E-3
760.025597E-3
760.575485E-3
761.019516E-3
761.679268E-3
762.225723E-3
762.750435E-3
763.136673E-3
763.104630E-3
762.992477E-3
762.754440E-3
762.060356E-3
761.713600E-3
760.989189E-3
760.366631E-3
759.620476E-3
758.778191E-3
758.242035E-3
757.476997E-3
756.956291E-3
756.544304E-3
755.903435E-3
755.711746E-3
755.302048E-3
755.134964E-3
754.868889E-3
754.496384E-3
754.384804E-3
754.162788E-3
754.061508E-3
753.927612E-3
753.666687E-3
753.435516E-3
753.389740E-3
753.317642E-3
753.169441E-3
753.016663E-3
752.856445E-3
752.688217E-3
752.536011E-3
752.433014E-3
752.027321E-3
752.144623E-3
752.012444E-3
751.889992E-3
751.666832E-3
751.443672E-3
751.291466E-3
750.907516E-3
750.672340E-3
750.598526E-3
750.184822E-3
750.105286E-3
749.810600E-3
749.582291E-3
749.492455E-3
749.208641E-3
748.922539E-3
748.816109E-3
748.635292E-3
748.520279E-3
748.172951E-3
748.127747E-3
747.966385E-3
747.819901E-3
747.641945E-3
747.001648E-3
746.767044E-3
746.485519E-3
746.017456E-3
745.834923E-3
745.484734E-3
745.341110E-3
745.360565E-3
745.662689E-3
746.578217E-3
748.595238E-3
752.017021E-3
756.290817E-3
760.810089E-3
765.530205E-3
769.522476E-3
772.675323E-3
774.564171E-3
775.438499E-3
775.182724E-3
774.051476E-3
772.854996E-3
770.975876E-3
769.234085E-3
767.729759E-3
766.341019E-3
765.435219E-3
764.476776E-3
764.334869E-3
764.286232E-3
764.472771E-3
764.936829E-3
765.233231E-3
765.360260E-3
765.475845E-3
765.042686E-3
764.192963E-3
763.044548E-3
761.845779E-3
761.135674E-3
760.657883E-3
760.810089E-3
760.931969E-3
761.366844E-3
762.024879E-3
762.220001E-3
762.685776E-3
762.922668E-3
762.844276E-3
762.836266E-3
762.452316E-3
761.995125E-3
761.517906E-3
760.712814E-3
760.154915E-3
759.446526E-3
758.839417E-3
758.205986E-3
757.577133E-3
757.009506E-3
756.425285E-3
756.353760E-3
755.887985E-3
755.448532E-3
755.304909E-3
754.910660E-3
754.737282E-3
754.449463E-3
754.204559E-3
754.208565E-3
753.755379E-3
753.899574E-3
753.714180E-3
753.486443E-3
753.365707E-3
753.079033E-3
753.104782E-3
752.889061E-3
752.729988E-3
752.531433E-3
752.347755E-3
752.321434E-3
752.298546E-3
752.156639E-3
751.966095E-3
751.691437E-3
751.493454E-3
751.266861E-3
750.971603E-3
750.846291E-3
750.551605E-3
750.350761E-3
750.137329E-3
749.856377E-3
749.652100E-3
749.403191E-3
749.174881E-3
748.940277E-3
748.794937E-3
748.639870E-3
748.350334E-3
748.271942E-3
748.039627E-3
747.896004E-3
747.908592E-3
747.484016E-3
747.338104E-3
747.003365E-3
746.601105E-3
746.349335E-3
745.895576E-3
745.642662E-3
745.495033E-3
745.341682E-3
745.376015E-3
745.508194E-3
745.873260E-3
747.134972E-3
749.467278E-3
753.102493E-3
757.279015E-3
761.801720E-3
766.227150E-3
769.639206E-3
772.402382E-3
773.717308E-3
773.939896E-3
773.468971E-3
772.233582E-3
770.856285E-3
769.017220E-3
767.387009E-3
765.835190E-3
764.551735E-3
763.631630E-3
762.959290E-3
762.634850E-3
762.597084E-3
762.762451E-3
763.195038E-3
763.413048E-3
763.373566E-3
763.101768E-3
762.507820E-3
761.579704E-3
760.439873E-3
759.906578E-3
759.531212E-3
759.371567E-3
759.873962E-3
760.192680E-3
760.893059E-3
761.421776E-3
761.868095E-3
762.079239E-3
762.143326E-3
762.034035E-3
761.604309E-3
761.046982E-3
760.569191E-3
759.995270E-3
759.322929E-3
758.652306E-3
757.874680E-3
757.272148E-3
756.494522E-3
756.199265E-3
755.902290E-3
755.443954E-3
755.201340E-3
754.929543E-3
754.695511E-3
754.517555E-3
754.296112E-3
754.224586E-3
753.858948E-3
753.810883E-3
753.684425E-3
753.364563E-3
753.396606E-3
753.152275E-3
753.045273E-3
753.009796E-3
752.741432E-3
752.672195E-3
752.491951E-3
752.370071E-3
752.268791E-3
752.118874E-3
752.038765E-3
752.074814E-3
751.742935E-3
751.520348E-3
751.310349E-3
751.283455E-3
750.728416E-3
750.556755E-3
750.487518E-3
750.250626E-3
750.162506E-3
749.872971E-3
749.704742E-3
749.446678E-3
749.377441E-3
749.267578E-3
749.045563E-3
748.841858E-3
748.764038E-3
748.384094E-3
748.400688E-3
748.091125E-3
747.853088E-3
747.747231E-3
747.322083E-3
747.174454E-3
746.923256E-3
746.748734E-3
746.642303E-3
746.606255E-3
746.728134E-3
746.923256E-3
747.725487E-3
749.522209E-3
752.323151E-3
756.096268E-3
760.298538E-3
764.532280E-3
768.042755E-3
770.670891E-3
772.451019E-3
773.075294E-3
772.941971E-3
772.032738E-3
770.365334E-3
768.821526E-3
767.039108E-3
765.451241E-3
764.067650E-3
762.836838E-3
762.096405E-3
761.647224E-3
761.421776E-3
761.578560E-3
761.577415E-3
761.716461E-3
761.690712E-3
761.108208E-3
760.414696E-3
759.416771E-3
758.725548E-3
758.094406E-3
757.979965E-3
758.219147E-3
758.531570E-3
759.341240E-3
759.943771E-3
760.582924E-3
761.146545E-3
761.186600E-3
761.402893E-3
761.093903E-3
760.779190E-3
760.295105E-3
759.498024E-3
758.955002E-3
758.289528E-3
757.541656E-3
756.931686E-3
756.130600E-3
755.568695E-3
755.050850E-3
754.551888E-3
754.244614E-3
753.901863E-3
753.623199E-3
753.393173E-3
753.277588E-3
753.204346E-3
752.832413E-3
752.760887E-3
752.541161E-3
752.447891E-3
752.426147E-3
752.153778E-3
752.123451E-3
751.976395E-3
751.801300E-3
751.787567E-3
751.568985E-3
751.591301E-3
751.392174E-3
751.213074E-3
751.218224E-3
750.900650E-3
750.942421E-3
750.643730E-3
750.478363E-3
750.285530E-3
749.954224E-3
749.935913E-3
749.653244E-3
749.316788E-3
749.252129E-3
749.037552E-3
748.899651E-3
748.660469E-3
748.461914E-3
748.265648E-3
748.014450E-3
747.984123E-3
747.743797E-3
747.542953E-3
747.566986E-3
747.324944E-3
747.089767E-3
746.706390E-3
746.351624E-3
746.099854E-3
745.614624E-3
745.438385E-3
745.048141E-3
744.820404E-3
744.887352E-3
744.801521E-3
745.209503E-3
746.130180E-3
748.158073E-3
751.602173E-3
755.754089E-3
760.391808E-3
764.885330E-3
768.733978E-3
771.799850E-3
773.644638E-3
774.398232E-3
774.083519E-3
773.088455E-3
771.862793E-3
769.956779E-3
768.469620E-3
766.810226E-3
765.546227E-3
764.649010E-3
763.942909E-3
763.663101E-3
763.649940E-3
763.794136E-3
764.342308E-3
764.703369E-3
765.110779E-3
764.996910E-3
764.502525E-3
763.766670E-3
762.700081E-3
761.837769E-3
761.047554E-3
760.466766E-3
760.358620E-3
760.525703E-3
760.851288E-3
761.326218E-3
761.776543E-3
762.301826E-3
762.324715E-3
762.490654E-3
762.317276E-3
761.828613E-3
761.451530E-3
760.831833E-3
760.274506E-3
759.625626E-3
759.035683E-3
758.453751E-3
757.827187E-3
757.232094E-3
756.763458E-3
756.378365E-3
756.146622E-3
755.707169E-3
755.486298E-3
755.250549E-3
754.992485E-3
754.926109E-3
754.690361E-3
754.609108E-3
754.358482E-3
754.097557E-3
754.133034E-3
753.747368E-3
753.582001E-3
753.464127E-3
753.214073E-3
753.147125E-3
752.952576E-3
752.883339E-3
752.607536E-3
752.438164E-3
752.353477E-3
752.070808E-3
751.876831E-3
751.698875E-3
751.528931E-3
751.339531E-3
751.062012E-3
750.825691E-3
750.682068E-3
750.350189E-3
750.377655E-3
750.010872E-3
749.926186E-3
749.789429E-3
749.681854E-3
749.719048E-3
749.436951E-3
749.353981E-3
749.177742E-3
749.042702E-3
749.021530E-3
748.802948E-3
748.534584E-3
748.173523E-3
747.722054E-3
747.775841E-3
747.235107E-3
746.940994E-3
746.801949E-3
746.762466E-3
746.862602E-3
747.253418E-3
748.325157E-3
750.334740E-3
753.278732E-3
757.444382E-3
761.577988E-3
765.998268E-3
769.613457E-3
772.448158E-3
774.474907E-3
775.068855E-3
774.978447E-3
774.103546E-3
772.596359E-3
770.977020E-3
769.361115E-3
767.895126E-3
766.740990E-3
765.645790E-3
765.115929E-3
764.901352E-3
765.038681E-3
765.313911E-3
765.360832E-3
765.747070E-3
765.771675E-3
765.716743E-3
765.341377E-3
764.227295E-3
763.273430E-3
762.167358E-3
761.671257E-3
761.509895E-3
761.434937E-3
761.903572E-3
762.291527E-3
762.748146E-3
763.101768E-3
763.342094E-3
763.503456E-3
763.393593E-3
763.083458E-3
762.792206E-3
762.229729E-3
761.794281E-3
761.071014E-3
760.412407E-3
759.865379E-3
759.221649E-3
758.840561E-3
758.259201E-3
757.866669E-3
757.589149E-3
757.228088E-3
757.130241E-3
756.710815E-3
756.546593E-3
756.306839E-3
756.012726E-3
755.902290E-3
755.631065E-3
755.431366E-3
755.403900E-3
755.200768E-3
755.005074E-3
754.940987E-3
754.816818E-3
754.535294E-3
754.345322E-3
754.301262E-3
753.909302E-3
753.814316E-3
753.651810E-3
753.462982E-3
753.341103E-3
753.043556E-3
752.927399E-3
752.758026E-3
752.439880E-3
752.245331E-3
752.079391E-3
751.902008E-3
751.610184E-3
751.483154E-3
751.306343E-3
751.090050E-3
750.932693E-3
750.887489E-3
750.563049E-3
750.696945E-3
750.315857E-3
750.125885E-3
749.941635E-3
749.609756E-3
749.327087E-3
748.971176E-3
748.824692E-3
748.663330E-3
748.385811E-3
748.294258E-3
748.241043E-3
748.386955E-3
748.651886E-3
748.938560E-3
750.368500E-3
752.643585E-3
755.756950E-3
759.777260E-3
763.837051E-3
767.906570E-3
770.996475E-3
773.353958E-3
774.679184E-3
774.794197E-3
774.211693E-3
773.056412E-3
771.596718E-3
770.005989E-3
768.379211E-3
767.080307E-3
765.900421E-3
764.957428E-3
764.413261E-3
764.186668E-3
764.174080E-3
764.305115E-3
764.582062E-3
764.564323E-3
764.062500E-3
763.462830E-3
762.443733E-3
761.413765E-3
760.798073E-3
760.482788E-3
760.707092E-3
761.157417E-3
761.852646E-3
762.652588E-3
763.397026E-3
764.034462E-3
764.218140E-3
764.310837E-3
764.214706E-3
763.719749E-3
763.303757E-3
762.589645E-3
761.812019E-3
761.112785E-3
760.246468E-3
759.685707E-3
758.989334E-3
758.581352E-3
757.937050E-3
757.418060E-3
757.085037E-3
756.736565E-3
756.466484E-3
756.219292E-3
755.874252E-3
755.874825E-3
755.684853E-3
755.498886E-3
755.446243E-3
755.136108E-3
755.121231E-3
754.802513E-3
