Notes :


2023-11-13 ¿ÀÀü 12:57:00
Volts
Ch : LED 2,
937.678528E-3
937.481117E-3
937.106895E-3
936.966705E-3
936.561584E-3
936.380768E-3
936.087227E-3
935.796547E-3
935.659790E-3
935.306168E-3
935.344505E-3
935.038948E-3
934.875870E-3
934.839821E-3
934.656143E-3
934.597206E-3
934.412384E-3
934.285355E-3
934.348869E-3
934.197807E-3
934.126854E-3
934.090233E-3
934.014130E-3
934.223557E-3
934.119987E-3
934.148598E-3
934.180069E-3
934.063339E-3
934.173203E-3
933.964920E-3
934.038162E-3
934.021568E-3
933.951759E-3
934.012985E-3
933.843040E-3
933.905983E-3
933.742905E-3
933.596992E-3
933.712578E-3
933.351517E-3
933.285713E-3
933.195877E-3
932.803345E-3
932.679749E-3
932.470894E-3
932.247734E-3
932.163048E-3
932.120132E-3
932.172203E-3
932.141876E-3
932.619095E-3
933.396721E-3
934.632111E-3
936.439133E-3
937.985229E-3
939.520454E-3
940.447426E-3
941.148376E-3
941.558647E-3
941.559792E-3
941.725159E-3
941.548347E-3
941.291428E-3
941.127777E-3
940.748978E-3
940.421677E-3
940.091515E-3
939.757919E-3
939.716721E-3
939.448357E-3
939.354515E-3
939.226341E-3
939.238930E-3
939.355659E-3
939.141083E-3
939.080429E-3
938.777733E-3
938.307381E-3
937.950897E-3
937.439919E-3
937.174416E-3
936.966705E-3
936.803055E-3
936.985016E-3
936.849976E-3
937.108612E-3
937.322044E-3
937.300873E-3
937.461090E-3
937.271118E-3
937.317467E-3
937.346077E-3
937.004471E-3
936.995316E-3
936.650276E-3
936.414528E-3
936.300087E-3
935.969925E-3
935.894966E-3
935.461807E-3
935.274124E-3
935.184860E-3
934.965706E-3
934.849548E-3
934.580040E-3
934.646988E-3
934.477043E-3
934.264183E-3
934.254456E-3
934.167480E-3
934.079933E-3
934.030151E-3
933.825874E-3
933.819580E-3
933.562088E-3
933.475113E-3
933.516312E-3
933.351517E-3
933.316612E-3
933.191872E-3
933.257103E-3
933.152962E-3
933.037376E-3
932.944107E-3
932.827377E-3
932.866287E-3
932.992172E-3
932.770157E-3
932.869720E-3
932.601929E-3
932.566452E-3
932.472610E-3
932.299232E-3
932.173347E-3
931.935310E-3
931.793976E-3
931.681252E-3
931.258392E-3
931.190872E-3
931.000328E-3
930.968285E-3
931.069565E-3
931.244659E-3
931.942749E-3
932.848549E-3
934.493065E-3
936.391068E-3
938.039589E-3
939.605141E-3
940.446854E-3
941.079140E-3
941.503143E-3
941.543770E-3
941.502571E-3
941.266823E-3
941.035080E-3
940.759850E-3
940.312386E-3
940.057755E-3
939.664650E-3
939.563942E-3
939.595985E-3
939.489555E-3
939.556503E-3
939.423180E-3
939.672661E-3
939.755630E-3
939.601135E-3
939.658356E-3
939.612579E-3
939.329910E-3
938.925362E-3
938.325119E-3
938.281631E-3
937.975502E-3
937.897110E-3
937.913704E-3
937.804985E-3
937.980080E-3
937.966919E-3
938.268471E-3
938.453865E-3
938.238716E-3
938.524818E-3
938.318825E-3
938.277054E-3
938.145447E-3
937.834167E-3
937.672234E-3
937.373543E-3
937.226486E-3
937.144661E-3
936.724663E-3
936.768723E-3
936.531258E-3
936.348152E-3
936.261177E-3
936.037445E-3
936.055183E-3
935.972786E-3
935.909271E-3
935.979080E-3
935.685539E-3
935.663223E-3
935.461235E-3
935.496140E-3
935.504150E-3
935.321045E-3
935.330772E-3
935.135078E-3
935.167694E-3
935.276413E-3
935.101891E-3
935.208321E-3
935.148811E-3
935.029793E-3
935.135078E-3
934.993172E-3
935.127640E-3
934.968567E-3
935.090446E-3
935.106468E-3
934.843826E-3
934.860992E-3
934.723663E-3
934.542847E-3
934.620094E-3
934.400940E-3
934.292793E-3
934.028435E-3
933.822441E-3
933.704567E-3
933.411598E-3
933.448792E-3
933.285141E-3
933.475113E-3
934.172630E-3
934.751701E-3
936.297798E-3
937.869072E-3
939.673805E-3
941.410446E-3
942.577171E-3
943.534470E-3
944.019699E-3
944.325256E-3
944.321823E-3
943.973351E-3
943.753624E-3
943.232918E-3
942.848969E-3
942.627525E-3
942.066193E-3
942.017555E-3
941.900253E-3
941.667938E-3
941.790962E-3
941.586685E-3
941.825867E-3
941.941452E-3
942.121696E-3
942.101097E-3
941.632462E-3
941.503143E-3
941.008186E-3
940.688324E-3
940.504074E-3
940.280342E-3
940.355873E-3
940.437126E-3
940.504646E-3
940.669441E-3
940.807915E-3
941.011047E-3
941.035652E-3
941.154671E-3
941.089439E-3
940.819359E-3
940.814781E-3
940.618515E-3
940.506363E-3
940.302086E-3
939.929008E-3
939.923859E-3
939.654350E-3
939.430618E-3
939.292717E-3
939.048958E-3
938.957405E-3
938.946533E-3
938.800049E-3
938.660431E-3
938.492775E-3
938.632393E-3
938.521957E-3
938.409805E-3
938.404083E-3
938.129997E-3
938.309669E-3
938.162041E-3
938.067627E-3
938.099098E-3
937.860489E-3
938.054466E-3
937.981796E-3
937.862778E-3
937.837029E-3
937.683678E-3
937.833595E-3
937.746048E-3
937.664795E-3
937.671661E-3
937.646484E-3
937.725449E-3
937.521744E-3
937.253952E-3
937.103462E-3
936.807632E-3
936.823654E-3
936.571312E-3
936.266899E-3
936.195374E-3
935.781670E-3
935.939598E-3
935.740471E-3
935.836601E-3
936.260605E-3
936.967278E-3
938.403511E-3
939.822578E-3
941.436195E-3
942.915344E-3
944.197655E-3
945.196152E-3
945.724869E-3
945.736313E-3
945.841026E-3
945.402718E-3
945.136642E-3
944.724083E-3
944.082642E-3
943.715286E-3
943.232346E-3
943.091583E-3
942.798042E-3
942.561150E-3
942.689323E-3
942.477608E-3
942.523384E-3
942.499924E-3
942.546272E-3
942.551422E-3
942.205811E-3
942.019844E-3
941.552353E-3
941.034508E-3
940.775871E-3
940.402222E-3
940.643120E-3
940.516663E-3
940.628242E-3
940.873718E-3
940.851974E-3
941.163254E-3
941.201591E-3
941.198730E-3
941.201019E-3
940.851974E-3
940.748405E-3
940.509796E-3
940.183640E-3
940.018272E-3
939.680099E-3
939.509010E-3
939.214325E-3
938.876152E-3
938.908195E-3
938.639259E-3
938.461876E-3
938.205528E-3
938.045311E-3
938.024712E-3
937.765503E-3
937.673378E-3
937.560081E-3
937.557220E-3
937.647629E-3
937.288284E-3
937.306595E-3
937.263680E-3
937.110329E-3
937.208176E-3
937.059402E-3
936.963272E-3
936.906624E-3
936.812210E-3
936.867142E-3
936.773872E-3
936.732101E-3
936.731529E-3
936.629677E-3
936.868286E-3
936.516953E-3
936.711502E-3
936.498642E-3
936.327553E-3
936.246300E-3
935.994530E-3
935.813713E-3
935.611153E-3
935.404587E-3
935.441780E-3
935.038948E-3
934.934807E-3
934.717941E-3
934.628105E-3
935.012054E-3
935.284424E-3
936.487770E-3
938.073349E-3
939.620018E-3
941.671944E-3
943.052673E-3
944.427681E-3
945.148659E-3
945.446777E-3
945.801544E-3
945.538330E-3
945.370674E-3
944.922638E-3
944.454002E-3
944.098663E-3
943.585968E-3
943.384552E-3
943.095589E-3
942.794037E-3
942.961121E-3
942.691612E-3
942.651558E-3
942.650986E-3
942.613792E-3
942.879868E-3
942.734528E-3
942.624664E-3
942.166328E-3
941.910553E-3
941.588974E-3
941.106606E-3
940.850830E-3
940.686035E-3
940.608788E-3
940.781593E-3
940.751839E-3
940.847397E-3
941.008759E-3
940.969849E-3
941.262817E-3
941.013908E-3
941.027641E-3
940.797615E-3
940.737534E-3
940.643120E-3
940.201950E-3
940.017128E-3
939.809990E-3
939.498138E-3
939.384270E-3
938.984871E-3
938.929367E-3
938.804626E-3
938.483047E-3
938.544846E-3
938.192368E-3
938.229561E-3
938.104820E-3
937.821007E-3
937.992096E-3
937.759781E-3
937.735748E-3
937.653351E-3
937.526894E-3
937.596130E-3
937.354660E-3
937.375259E-3
937.459373E-3
937.306595E-3
937.550354E-3
937.396431E-3
937.314606E-3
937.325478E-3
937.157249E-3
937.286568E-3
937.152672E-3
937.157249E-3
937.205315E-3
936.971855E-3
937.080574E-3
936.909485E-3
936.952400E-3
936.709785E-3
936.492348E-3
936.500931E-3
936.149025E-3
936.015701E-3
935.795403E-3
935.582542E-3
935.709572E-3
935.381699E-3
935.559082E-3
935.777092E-3
936.431122E-3
937.729454E-3
939.205170E-3
940.919495E-3
942.707634E-3
944.169617E-3
945.264244E-3
945.925713E-3
946.264458E-3
946.456146E-3
946.216393E-3
945.997238E-3
945.360947E-3
944.974709E-3
944.619370E-3
944.004250E-3
943.898392E-3
943.415451E-3
943.138504E-3
943.043518E-3
942.834663E-3
942.902184E-3
942.807770E-3
942.887878E-3
942.967987E-3
942.766571E-3
942.564011E-3
941.934586E-3
941.639328E-3
941.341209E-3
941.110611E-3
941.238785E-3
941.171837E-3
941.176987E-3
941.367531E-3
941.428757E-3
941.758919E-3
941.661072E-3
941.798973E-3
941.838455E-3
941.645622E-3
941.596413E-3
941.350365E-3
941.092873E-3
941.028214E-3
940.688896E-3
940.601921E-3
940.209389E-3
939.954185E-3
939.799690E-3
939.519310E-3
939.517021E-3
939.221764E-3
939.218330E-3
939.196587E-3
938.899040E-3
939.071846E-3
938.743401E-3
938.638115E-3
938.714790E-3
938.436127E-3
938.435555E-3
938.283920E-3
938.368607E-3
938.395500E-3
938.172913E-3
938.223839E-3
938.123131E-3
938.030434E-3
938.181496E-3
937.958908E-3
938.049316E-3
937.955475E-3
938.012695E-3
937.940598E-3
937.825584E-3
937.853622E-3
937.659645E-3
937.558937E-3
937.454224E-3
937.245941E-3
937.053108E-3
936.838531E-3
936.730957E-3
936.612511E-3
936.278915E-3
936.171341E-3
935.867500E-3
935.688972E-3
935.670090E-3
935.846329E-3
936.423683E-3
937.531471E-3
938.911629E-3
940.591049E-3
942.185783E-3
943.811989E-3
944.835091E-3
945.661926E-3
946.203232E-3
946.158028E-3
946.151733E-3
945.783234E-3
945.269966E-3
944.937515E-3
944.262314E-3
943.719292E-3
943.256950E-3
942.932510E-3
942.723656E-3
942.364883E-3
942.363739E-3
942.155457E-3
942.185211E-3
942.206955E-3
942.003250E-3
941.974640E-3
941.584396E-3
941.364098E-3
940.928650E-3
940.413094E-3
940.423393E-3
940.167618E-3
940.340996E-3
940.407372E-3
940.399933E-3
940.719223E-3
940.920639E-3
940.929222E-3
941.187286E-3
940.933800E-3
941.033936E-3
940.742111E-3
940.460014E-3
940.295219E-3
939.797401E-3
939.708138E-3
939.391136E-3
939.072418E-3
938.985443E-3
938.484764E-3
938.350296E-3
938.024712E-3
937.970924E-3
937.917137E-3
937.589836E-3
937.490273E-3
937.218475E-3
937.287140E-3
937.247086E-3
936.829376E-3
936.907768E-3
936.782455E-3
936.567879E-3
936.629105E-3
936.338425E-3
936.525536E-3
936.348152E-3
936.320686E-3
936.329269E-3
936.206818E-3
936.252594E-3
936.043167E-3
936.087227E-3
936.052895E-3
935.925865E-3
935.956192E-3
935.850906E-3
935.754776E-3
935.790825E-3
935.486984E-3
935.465240E-3
935.342216E-3
935.127640E-3
935.005760E-3
934.612656E-3
934.419823E-3
934.189796E-3
934.000397E-3
933.837318E-3
933.734894E-3
933.820724E-3
934.262466E-3
935.246658E-3
936.752129E-3
938.226700E-3
940.263176E-3
941.996384E-3
943.387413E-3
944.428253E-3
945.016479E-3
945.535469E-3
945.350647E-3
945.327759E-3
944.882011E-3
944.423676E-3
944.015121E-3
943.473244E-3
943.028069E-3
942.715645E-3
942.255592E-3
942.204094E-3
941.972923E-3
941.885948E-3
941.976929E-3
941.785240E-3
941.883087E-3
941.892815E-3
941.675377E-3
941.425323E-3
940.956116E-3
940.743828E-3
940.323830E-3
940.214539E-3
940.146446E-3
940.037727E-3
940.148163E-3
940.279770E-3
940.284348E-3
940.367317E-3
940.357018E-3
940.515518E-3
940.484047E-3
940.388489E-3
940.480614E-3
940.083504E-3
939.935303E-3
939.804840E-3
939.463234E-3
939.303017E-3
938.940811E-3
938.749123E-3
938.422966E-3
938.316536E-3
938.059044E-3
937.763214E-3
937.653351E-3
937.643623E-3
937.348938E-3
937.249374E-3
936.986160E-3
936.955833E-3
936.835098E-3
936.814499E-3
936.738968E-3
936.507225E-3
936.688614E-3
936.470604E-3
936.365318E-3
936.458588E-3
936.139297E-3
936.207390E-3
936.270332E-3
936.190796E-3
936.192513E-3
936.019707E-3
936.153030E-3
936.043167E-3
936.088371E-3
936.123848E-3
935.976791E-3
936.059189E-3
935.856056E-3
935.857201E-3
935.774803E-3
935.542488E-3
935.715294E-3
935.446358E-3
935.304451E-3
935.078430E-3
934.889603E-3
934.748268E-3
934.480476E-3
934.293938E-3
934.176636E-3
934.166336E-3
934.394646E-3
934.965134E-3
935.850334E-3
937.418175E-3
939.157104E-3
941.106033E-3
942.773437E-3
944.103813E-3
945.158386E-3
945.605850E-3
945.911407E-3
945.939445E-3
945.642471E-3
945.370674E-3
944.653130E-3
944.401360E-3
943.713570E-3
943.290138E-3
942.945671E-3
942.474747E-3
942.465591E-3
942.341423E-3
942.240715E-3
942.455292E-3
942.154884E-3
942.321396E-3
942.189789E-3
941.926003E-3
941.704559E-3
941.174126E-3
940.987587E-3
940.672302E-3
940.540123E-3
940.598488E-3
940.600204E-3
940.750694E-3
940.964699E-3
941.128922E-3
941.373825E-3
941.230202E-3
941.348076E-3
941.377258E-3
941.080284E-3
941.159821E-3
940.887451E-3
940.676308E-3
940.502930E-3
940.035439E-3
940.009117E-3
939.570236E-3
939.593124E-3
939.276123E-3
939.141655E-3
939.082146E-3
938.690758E-3
938.657570E-3
938.338852E-3
938.323402E-3
938.341713E-3
938.033295E-3
937.962914E-3
937.816429E-3
937.637329E-3
937.708855E-3
937.508011E-3
937.509155E-3
937.427330E-3
937.355232E-3
937.524605E-3
937.290573E-3
937.321472E-3
937.300873E-3
937.146378E-3
937.283134E-3
937.169266E-3
937.235641E-3
937.208176E-3
937.092590E-3
937.234497E-3
936.972427E-3
936.898613E-3
936.814499E-3
936.567879E-3
936.597061E-3
936.436844E-3
936.227989E-3
936.056328E-3
935.656357E-3
935.564804E-3
935.422897E-3
935.215759E-3
935.121346E-3
934.945107E-3
935.268402E-3
935.584259E-3
936.610222E-3
937.910843E-3
939.474678E-3
941.404724E-3
942.739677E-3
944.254303E-3
945.015907E-3
945.506287E-3
945.794678E-3
945.751190E-3
945.467949E-3
944.970131E-3
944.472313E-3
944.074059E-3
943.395996E-3
943.046951E-3
942.702484E-3
942.323112E-3
942.169762E-3
941.901970E-3
941.783524E-3
941.671371E-3
941.661644E-3
941.622162E-3
941.364670E-3
941.033936E-3
940.723228E-3
940.172195E-3
940.072632E-3
939.815712E-3
939.819145E-3
939.809990E-3
939.892387E-3
940.252876E-3
940.284920E-3
940.538406E-3
940.682602E-3
940.644264E-3
940.885735E-3
940.492630E-3
940.346146E-3
940.275192E-3
939.965630E-3
939.724159E-3
939.234352E-3
939.012337E-3
938.720512E-3
938.457870E-3
938.246155E-3
937.829590E-3
937.712860E-3
937.577820E-3
937.340355E-3
937.298584E-3
937.023354E-3
937.064552E-3
936.971855E-3
936.624527E-3
936.796188E-3
936.555862E-3
936.444855E-3
936.486053E-3
936.345863E-3
936.273766E-3
936.207390E-3
936.138725E-3
936.155319E-3
935.975647E-3
936.070633E-3
935.909271E-3
935.793686E-3
935.771370E-3
935.585976E-3
935.686684E-3
935.615730E-3
935.619736E-3
935.544205E-3
935.370827E-3
935.560226E-3
935.254669E-3
935.182571E-3
935.027504E-3
934.837532E-3
934.749413E-3
934.473610E-3
934.365463E-3
934.182358E-3
933.926010E-3
933.686829E-3
933.408165E-3
933.468819E-3
933.509445E-3
933.705711E-3
934.657860E-3
935.836029E-3
937.486839E-3
939.472389E-3
941.240501E-3
942.994308E-3
943.931580E-3
944.675446E-3
945.165253E-3
945.237923E-3
945.162392E-3
944.828796E-3
944.359016E-3
943.959618E-3
943.383980E-3
942.966843E-3
942.608643E-3
942.255020E-3
942.115974E-3
941.883659E-3
941.822433E-3
941.638756E-3
941.874504E-3
941.887665E-3
941.824150E-3
941.708565E-3
941.444778E-3
941.102600E-3
940.859985E-3
940.336418E-3
940.129280E-3
939.882088E-3
939.985085E-3
940.334702E-3
940.192223E-3
940.389061E-3
940.363312E-3
940.518379E-3
940.513229E-3
940.477753E-3
940.564728E-3
940.296364E-3
940.293503E-3
940.138435E-3
939.692116E-3
939.577675E-3
939.178276E-3
938.955116E-3
938.829231E-3
938.374329E-3
