Notes :


2023-11-02 ¿ÀÈÄ 6:33:19
Volts
Ch : LED 2,
797.491837E-3
797.193718E-3
796.667290E-3
797.047806E-3
796.371460E-3
796.335983E-3
795.886230E-3
795.051956E-3
795.149231E-3
794.426537E-3
794.544983E-3
794.452858E-3
793.745613E-3
794.058609E-3
793.076134E-3
792.989731E-3
792.656136E-3
791.982651E-3
792.525101E-3
792.633247E-3
794.402504E-3
796.321678E-3
798.760414E-3
802.785301E-3
805.042648E-3
808.214951E-3
810.263443E-3
810.980415E-3
812.043571E-3
810.883141E-3
810.120964E-3
808.924484E-3
806.632805E-3
805.916977E-3
803.985786E-3
803.011894E-3
802.056885E-3
800.134277E-3
800.846100E-3
800.121117E-3
800.355721E-3
800.315666E-3
799.425888E-3
799.554062E-3
798.275185E-3
797.506714E-3
797.258377E-3
796.699905E-3
797.478104E-3
797.213745E-3
798.147011E-3
799.030495E-3
799.298859E-3
800.452423E-3
799.830437E-3
800.020981E-3
800.436401E-3
799.546051E-3
799.875641E-3
798.727226E-3
798.278618E-3
797.827148E-3
796.255302E-3
796.755981E-3
795.544624E-3
795.092010E-3
794.730377E-3
793.783951E-3
793.990517E-3
792.634392E-3
792.181778E-3
792.056465E-3
791.413307E-3
791.804695E-3
790.952110E-3
790.984154E-3
791.243362E-3
790.793037E-3
791.533470E-3
790.759850E-3
790.897179E-3
790.830803E-3
790.309525E-3
790.769577E-3
789.559364E-3
789.537621E-3
789.562798E-3
788.441277E-3
789.667511E-3
788.976860E-3
789.157104E-3
789.308739E-3
788.728523E-3
788.871574E-3
787.808990E-3
787.368393E-3
787.122345E-3
786.373901E-3
786.750984E-3
785.660934E-3
785.241508E-3
784.876442E-3
784.364891E-3
785.115051E-3
784.105110E-3
784.821510E-3
786.237144E-3
787.218475E-3
790.906334E-3
793.173981E-3
796.525383E-3
799.659348E-3
801.953316E-3
804.330826E-3
804.293060E-3
804.339409E-3
803.944016E-3
802.429390E-3
801.880646E-3
799.767494E-3
798.815346E-3
797.863197E-3
795.476532E-3
795.958328E-3
794.898605E-3
794.874573E-3
794.708061E-3
793.324471E-3
793.892097E-3
792.961121E-3
792.653275E-3
791.976929E-3
791.155243E-3
791.984367E-3
791.394424E-3
791.924286E-3
792.672157E-3
792.711067E-3
793.624878E-3
793.491554E-3
793.860054E-3
794.098091E-3
793.976784E-3
794.907188E-3
794.116402E-3
793.862915E-3
793.714714E-3
792.769432E-3
793.234634E-3
792.300224E-3
792.180634E-3
792.107964E-3
791.040802E-3
791.304588E-3
790.207100E-3
789.652061E-3
789.532471E-3
788.877296E-3
789.358521E-3
788.613510E-3
788.525963E-3
788.663292E-3
788.124847E-3
788.731956E-3
788.163185E-3
788.183212E-3
788.216400E-3
787.725449E-3
788.270760E-3
787.808418E-3
787.872505E-3
787.877655E-3
787.098312E-3
787.830734E-3
787.315750E-3
787.446785E-3
787.489128E-3
785.747337E-3
787.058258E-3
786.722374E-3
786.571884E-3
786.737251E-3
785.963631E-3
786.100960E-3
785.443497E-3
785.083580E-3
785.179138E-3
784.087944E-3
784.528542E-3
783.722305E-3
783.485985E-3
783.530045E-3
782.132721E-3
783.405876E-3
784.300232E-3
786.191368E-3
789.130783E-3
790.934944E-3
795.263100E-3
798.423386E-3
801.212883E-3
803.417015E-3
803.746605E-3
804.557419E-3
803.759766E-3
802.673721E-3
801.700974E-3
799.774933E-3
799.254799E-3
797.607994E-3
796.780014E-3
796.574593E-3
795.334053E-3
795.854759E-3
795.547485E-3
795.085144E-3
795.133209E-3
794.438553E-3
794.732666E-3
793.877220E-3
793.357086E-3
793.065834E-3
792.091942E-3
792.934799E-3
793.111038E-3
793.114471E-3
793.848610E-3
793.777657E-3
795.169830E-3
795.170403E-3
795.451355E-3
795.997810E-3
795.486259E-3
796.055603E-3
795.516014E-3
794.942665E-3
795.027351E-3
793.815422E-3
794.165611E-3
793.496132E-3
793.030357E-3
792.839241E-3
792.146301E-3
792.720795E-3
792.338562E-3
791.795540E-3
791.773796E-3
790.945816E-3
791.409302E-3
791.043663E-3
790.785599E-3
791.321754E-3
790.762711E-3
791.805840E-3
791.570663E-3
791.669083E-3
792.196655E-3
791.508293E-3
792.371750E-3
791.875076E-3
791.493416E-3
791.709709E-3
791.106033E-3
791.717720E-3
791.326332E-3
791.217041E-3
791.670227E-3
791.175842E-3
791.968918E-3
791.769218E-3
791.251945E-3
791.479111E-3
790.682030E-3
790.629959E-3
790.203094E-3
789.467239E-3
789.264107E-3
788.608360E-3
789.200020E-3
788.995171E-3
788.360596E-3
789.198303E-3
789.717865E-3
791.958618E-3
793.896675E-3
796.670151E-3
800.059891E-3
802.554703E-3
805.844307E-3
807.670784E-3
808.014107E-3
808.791161E-3
807.928848E-3
807.651901E-3
806.320953E-3
804.701614E-3
803.691101E-3
801.729012E-3
801.048088E-3
799.704552E-3
798.681450E-3
798.577309E-3
797.712135E-3
798.288918E-3
797.875786E-3
797.373962E-3
797.237778E-3
796.199799E-3
796.164322E-3
795.473099E-3
795.360374E-3
795.883942E-3
795.746613E-3
796.889877E-3
797.309875E-3
797.635460E-3
798.320961E-3
798.169899E-3
798.818779E-3
798.682022E-3
798.259163E-3
798.200226E-3
797.174263E-3
797.131920E-3
796.274757E-3
795.112038E-3
794.898033E-3
793.808556E-3
793.702698E-3
793.026924E-3
792.357445E-3
792.079353E-3
791.479111E-3
791.967773E-3
791.707420E-3
791.096878E-3
791.346931E-3
790.558434E-3
790.897179E-3
790.709496E-3
790.135002E-3
790.694046E-3
790.369034E-3
790.777016E-3
790.623093E-3
790.160179E-3
790.773582E-3
790.072060E-3
790.311813E-3
790.112114E-3
789.604568E-3
789.998245E-3
789.150238E-3
789.431190E-3
789.183998E-3
788.589478E-3
788.870430E-3
788.040161E-3
788.401794E-3
788.120270E-3
787.261391E-3
787.608719E-3
786.659431E-3
786.775589E-3
786.844254E-3
786.779022E-3
788.723373E-3
790.351868E-3
793.719292E-3
797.187996E-3
800.081062E-3
803.736877E-3
805.390549E-3
807.025909E-3
807.431030E-3
805.791664E-3
806.071472E-3
804.553413E-3
803.674507E-3
802.369308E-3
800.667000E-3
800.150299E-3
798.284912E-3
798.021126E-3
797.618866E-3
796.678734E-3
797.177124E-3
796.187782E-3
796.172905E-3
795.608139E-3
794.269180E-3
794.237709E-3
793.035507E-3
792.923927E-3
793.200302E-3
793.284416E-3
794.459724E-3
794.408798E-3
795.209312E-3
796.021271E-3
795.669365E-3
796.177483E-3
795.497704E-3
795.507431E-3
795.252228E-3
794.114113E-3
794.660568E-3
793.653488E-3
793.485260E-3
793.219757E-3
792.165184E-3
792.350006E-3
791.047668E-3
790.659142E-3
790.413666E-3
789.356232E-3
789.871788E-3
788.737106E-3
788.493347E-3
788.697052E-3
788.212967E-3
789.207458E-3
788.473892E-3
788.778877E-3
789.155388E-3
788.132858E-3
789.058685E-3
788.319969E-3
788.392067E-3
788.392639E-3
788.059044E-3
788.753128E-3
788.083649E-3
788.365746E-3
788.592911E-3
787.468529E-3
788.827515E-3
788.079071E-3
788.104820E-3
788.135719E-3
787.498856E-3
787.709999E-3
786.547279E-3
786.496925E-3
786.383629E-3
785.367393E-3
786.026001E-3
785.067558E-3
784.871864E-3
785.104179E-3
785.023499E-3
786.311531E-3
786.862564E-3
789.014626E-3
792.044449E-3
794.964981E-3
798.871422E-3
800.981140E-3
803.529739E-3
805.135345E-3
805.384827E-3
806.077194E-3
804.374313E-3
803.195000E-3
802.019691E-3
800.476456E-3
799.916840E-3
798.007965E-3
797.523880E-3
796.892738E-3
796.147728E-3
796.747398E-3
795.802689E-3
795.793533E-3
796.009827E-3
795.292282E-3
795.653343E-3
794.201088E-3
793.927574E-3
793.666649E-3
793.087578E-3
794.120407E-3
793.616867E-3
794.353867E-3
794.793320E-3
794.874001E-3
795.936584E-3
795.479393E-3
795.663643E-3
795.640755E-3
795.168114E-3
795.583534E-3
794.692612E-3
794.384766E-3
794.076920E-3
793.266106E-3
793.623161E-3
792.473030E-3
792.079926E-3
791.926575E-3
791.186142E-3
791.437912E-3
790.641975E-3
790.561867E-3
790.638542E-3
790.195656E-3
790.728378E-3
790.212250E-3
790.423393E-3
790.817070E-3
790.553856E-3
791.415024E-3
790.957832E-3
791.379547E-3
791.636467E-3
791.356087E-3
792.020416E-3
791.570663E-3
791.603851E-3
792.030716E-3
791.760063E-3
792.489624E-3
791.766930E-3
791.715431E-3
791.852188E-3
791.111755E-3
791.600418E-3
790.907478E-3
790.644836E-3
790.666580E-3
789.796829E-3
790.200233E-3
789.229202E-3
789.026642E-3
789.106750E-3
788.403511E-3
788.786888E-3
788.240433E-3
788.723373E-3
789.762497E-3
791.503716E-3
794.858551E-3
797.713852E-3
801.078415E-3
804.578590E-3
805.905533E-3
808.771706E-3
809.260368E-3
808.947372E-3
808.517647E-3
807.013321E-3
806.354141E-3
804.433250E-3
803.045654E-3
802.175903E-3
800.689888E-3
800.550270E-3
799.648476E-3
799.103737E-3
799.270821E-3
798.648834E-3
799.060822E-3
798.395920E-3
797.749329E-3
797.523880E-3
796.555710E-3
796.691322E-3
796.582603E-3
796.661568E-3
797.684097E-3
797.697830E-3
799.001312E-3
799.231911E-3
799.574661E-3
799.990654E-3
799.245071E-3
799.913979E-3
799.104881E-3
798.431969E-3
798.331261E-3
797.159386E-3
797.138786E-3
796.226692E-3
795.767212E-3
795.533180E-3
794.431114E-3
794.565582E-3
793.709564E-3
793.377686E-3
793.385124E-3
792.518234E-3
792.942238E-3
792.519951E-3
792.319679E-3
792.509651E-3
791.875076E-3
792.213821E-3
792.125702E-3
792.114830E-3
792.223549E-3
791.940308E-3
792.591476E-3
792.107391E-3
792.069054E-3
792.214394E-3
791.515160E-3
791.969490E-3
791.667366E-3
791.373825E-3
791.615295E-3
791.059113E-3
791.362381E-3
790.831947E-3
790.319252E-3
790.356445E-3
789.400291E-3
789.535904E-3
788.905907E-3
788.265610E-3
788.230133E-3
787.087440E-3
788.163185E-3
788.494492E-3
789.843178E-3
792.444992E-3
794.835663E-3
798.640251E-3
801.464081E-3
804.047012E-3
806.366730E-3
806.603050E-3
807.710838E-3
806.945801E-3
805.888367E-3
804.916763E-3
802.991295E-3
802.437401E-3
800.841522E-3
799.480820E-3
799.080849E-3
797.748184E-3
798.119545E-3
797.468948E-3
796.972847E-3
796.991158E-3
796.030998E-3
796.321106E-3
795.169830E-3
794.290352E-3
794.169044E-3
793.517876E-3
794.539833E-3
794.899178E-3
795.188141E-3
796.180916E-3
796.126556E-3
797.357368E-3
797.106743E-3
797.095871E-3
797.395134E-3
796.872139E-3
797.260094E-3
796.409225E-3
795.597267E-3
795.465660E-3
794.487762E-3
794.655418E-3
793.891525E-3
793.132782E-3
793.087578E-3
792.253876E-3
792.337418E-3
792.086220E-3
791.239357E-3
791.449356E-3
790.776443E-3
791.432762E-3
791.362953E-3
790.952682E-3
791.155243E-3
790.722084E-3
791.380692E-3
791.209602E-3
790.818214E-3
790.784454E-3
790.647125E-3
791.211319E-3
790.907478E-3
790.527534E-3
790.896034E-3
790.066910E-3
790.474319E-3
790.096092E-3
789.436340E-3
789.797401E-3
789.172554E-3
789.779663E-3
789.373398E-3
788.594055E-3
788.324547E-3
787.588692E-3
787.778664E-3
787.078857E-3
786.195946E-3
786.337280E-3
785.508156E-3
786.110687E-3
786.278915E-3
786.577606E-3
788.121414E-3
790.183067E-3
793.850327E-3
797.028923E-3
799.849892E-3
803.139496E-3
804.670143E-3
806.552696E-3
806.942368E-3
806.138992E-3
805.638313E-3
803.876495E-3
803.053093E-3
801.832581E-3
800.404358E-3
799.576378E-3
798.121834E-3
798.032570E-3
797.546196E-3
797.022057E-3
797.426033E-3
796.839523E-3
797.217178E-3
796.942520E-3
796.011543E-3
795.929718E-3
794.954109E-3
795.182991E-3
794.744110E-3
794.514084E-3
795.204163E-3
795.060539E-3
795.854187E-3
796.342850E-3
796.434975E-3
797.163391E-3
796.833801E-3
797.341347E-3
797.219467E-3
796.572876E-3
796.719933E-3
795.962906E-3
796.014977E-3
795.479965E-3
794.588470E-3
794.666862E-3
793.559074E-3
793.627167E-3
793.460655E-3
792.689323E-3
792.766571E-3
792.054176E-3
792.317963E-3
792.194366E-3
791.900826E-3
792.430115E-3
791.683388E-3
792.230415E-3
792.034721E-3
791.713142E-3
792.422104E-3
791.920280E-3
792.411804E-3
792.201805E-3
791.740036E-3
792.488480E-3
791.900253E-3
792.327690E-3
792.214966E-3
791.674232E-3
792.251015E-3
791.683960E-3
791.798401E-3
791.675949E-3
790.974426E-3
791.610146E-3
790.905762E-3
791.041374E-3
790.568733E-3
789.783096E-3
790.063477E-3
789.050102E-3
789.066124E-3
788.702202E-3
788.136292E-3
788.682175E-3
787.976074E-3
788.424110E-3
789.411163E-3
790.158463E-3
793.861198E-3
796.382904E-3
799.849892E-3
803.407860E-3
805.885506E-3
808.447266E-3
809.246063E-3
809.885216E-3
809.703255E-3
808.265305E-3
807.789803E-3
805.968475E-3
804.841232E-3
803.463936E-3
801.959038E-3
801.829720E-3
800.347710E-3
800.387764E-3
800.396347E-3
798.988724E-3
800.108528E-3
799.673080E-3
799.526024E-3
799.329758E-3
798.479462E-3
798.826218E-3
797.750473E-3
797.964478E-3
798.636246E-3
798.750687E-3
800.024986E-3
799.740601E-3
800.337410E-3
800.830078E-3
800.676155E-3
801.438332E-3
800.300217E-3
800.228691E-3
800.011253E-3
798.936081E-3
799.089432E-3
797.780228E-3
797.471237E-3
797.067261E-3
796.202660E-3
796.482468E-3
795.479965E-3
795.350075E-3
795.079994E-3
794.361305E-3
795.071411E-3
794.125557E-3
794.227409E-3
794.159317E-3
792.718506E-3
794.004822E-3
793.319321E-3
793.636322E-3
793.951035E-3
793.445778E-3
794.361305E-3
793.573952E-3
793.792534E-3
793.593407E-3
793.038940E-3
793.679810E-3
792.786598E-3
792.827225E-3
792.897606E-3
792.371750E-3
792.985153E-3
792.101097E-3
792.123985E-3
791.879082E-3
790.799332E-3
791.503143E-3
790.350723E-3
789.831161E-3
789.656067E-3
788.893318E-3
789.087868E-3
788.278770E-3
788.161469E-3
788.774300E-3
789.435768E-3
791.804123E-3
793.693542E-3
796.909904E-3
799.980927E-3
802.536964E-3
805.820274E-3
806.809616E-3
807.736015E-3
807.955170E-3
806.797028E-3
806.323814E-3
804.320526E-3
803.039360E-3
801.836014E-3
800.247002E-3
799.785233E-3
798.097229E-3
797.380257E-3
797.006035E-3
796.428680E-3
797.067261E-3
796.230125E-3
795.985222E-3
795.144081E-3
794.387054E-3
794.811630E-3
793.883514E-3
793.872643E-3
794.315529E-3
794.433403E-3
795.561790E-3
795.551491E-3
796.060753E-3
796.449280E-3
795.764351E-3
796.918488E-3
796.114540E-3
795.834732E-3
795.633316E-3
794.709778E-3
794.776154E-3
793.499565E-3
793.016052E-3
792.750549E-3
791.831589E-3
791.913986E-3
790.966415E-3
790.532112E-3
790.389061E-3
789.091873E-3
789.771080E-3
788.982582E-3
789.050102E-3
789.080429E-3
788.473892E-3
789.096451E-3
788.558006E-3
788.550568E-3
788.772583E-3
788.396072E-3
789.109612E-3
788.358879E-3
788.100815E-3
788.198662E-3
787.668800E-3
788.467026E-3
787.811852E-3
787.736893E-3
787.916565E-3
787.327766E-3
788.193512E-3
787.467957E-3
787.393570E-3
787.452507E-3
786.854553E-3
787.167549E-3
786.318398E-3
786.024284E-3
785.947037E-3
784.972572E-3
785.501862E-3
784.550858E-3
784.463310E-3
784.504509E-3
783.912849E-3
784.825516E-3
785.092735E-3
786.738968E-3
789.420319E-3
791.060257E-3
795.808411E-3
798.517227E-3
801.592255E-3
804.164886E-3
804.871559E-3
805.775070E-3
804.895592E-3
803.784370E-3
802.686310E-3
800.653839E-3
799.584389E-3
798.011398E-3
797.147369E-3
796.417236E-3
795.334053E-3
795.765495E-3
795.286560E-3
794.927788E-3
795.223618E-3
794.441414E-3
794.759560E-3
793.914413E-3
793.072128E-3
792.756271E-3
791.627312E-3
792.220688E-3
791.992378E-3
792.091942E-3
793.093872E-3
792.790604E-3
793.687820E-3
793.924141E-3
794.164467E-3
794.532394E-3
794.128418E-3
794.542694E-3
793.715286E-3
793.117332E-3
792.919922E-3
791.760635E-3
792.156029E-3
791.561508E-3
790.946960E-3
790.916634E-3
790.264320E-3
790.570450E-3
790.028000E-3
789.539909E-3
789.592552E-3
788.688469E-3
