Notes :


2023-10-28 ¿ÀÈÄ 9:11:46
Volts
Ch : LED 2,Ch : LED 3,
348.583603E-3,369.893646E-3
347.788239E-3,369.259071E-3
347.595406E-3,369.274521E-3
347.161102E-3,368.896866E-3
346.924210E-3,368.696022E-3
346.844101E-3,368.809891E-3
346.635246E-3,368.463135E-3
346.916771E-3,368.877411E-3
346.798897E-3,368.637657E-3
346.957970E-3,368.818474E-3
347.008324E-3,368.847656E-3
346.737099E-3,368.542671E-3
346.555710E-3,368.504906E-3
345.982361E-3,368.219376E-3
345.717430E-3,367.977333E-3
345.689392E-3,368.015099E-3
345.325470E-3,367.821693E-3
345.495987E-3,367.863464E-3
345.322609E-3,367.798233E-3
345.411873E-3,367.751884E-3
345.872498E-3,368.075180E-3
345.816994E-3,368.004227E-3
346.171188E-3,368.379021E-3
346.065331E-3,368.235397E-3
346.158600E-3,368.347549E-3
346.314812E-3,368.585014E-3
345.986366E-3,368.194771E-3
346.169472E-3,368.410492E-3
345.808983E-3,368.110085E-3
345.584679E-3,367.698669E-3
345.504570E-3,367.861748E-3
344.951248E-3,367.384529E-3
344.907188E-3,367.387390E-3
344.483185E-3,367.153358E-3
344.226837E-3,367.085838E-3
344.202805E-3,367.085838E-3
343.870926E-3,366.858673E-3
343.923569E-3,366.887283E-3
343.599701E-3,366.565704E-3
343.424606E-3,366.513634E-3
343.412590E-3,366.582870E-3
343.087006E-3,366.376877E-3
343.146515E-3,366.475868E-3
342.851257E-3,366.379738E-3
342.751122E-3,366.325378E-3
342.846680E-3,366.217804E-3
342.479897E-3,366.047859E-3
342.693901E-3,366.354561E-3
342.538261E-3,366.148567E-3
342.541695E-3,366.118240E-3
342.564011E-3,366.200066E-3
342.261314E-3,365.936279E-3
342.412949E-3,366.098213E-3
342.286491E-3,366.001511E-3
342.163467E-3,365.764618E-3
342.359734E-3,366.107368E-3
342.107964E-3,365.856743E-3
342.314529E-3,366.113091E-3
342.145157E-3,365.889931E-3
342.026138E-3,365.893936E-3
342.062759E-3,365.996933E-3
341.851616E-3,365.775490E-3
342.031860E-3,365.943718E-3
341.965485E-3,365.550613E-3
341.797829E-3,365.549469E-3
341.895103E-3,365.843010E-3
341.590118E-3,365.547180E-3
341.734314E-3,365.765190E-3
341.562653E-3,365.595245E-3
341.493416E-3,365.464211E-3
341.776085E-3,365.598106E-3
341.369820E-3,365.321159E-3
341.463089E-3,365.297127E-3
341.290855E-3,365.273094E-3
341.235924E-3,365.334320E-3
341.236496E-3,365.507698E-3
340.767288E-3,365.050507E-3
340.912628E-3,365.213585E-3
340.732956E-3,365.057945E-3
340.372467E-3,364.738083E-3
340.568161E-3,364.965820E-3
340.242577E-3,364.631081E-3
340.460014E-3,364.996147E-3
340.286636E-3,364.845085E-3
340.205956E-3,364.652824E-3
340.557289E-3,364.978981E-3
340.964127E-3,365.125465E-3
342.490196E-3,366.075325E-3
343.865204E-3,366.775131E-3
345.724297E-3,367.992783E-3
347.873497E-3,369.314575E-3
349.264526E-3,370.066452E-3
350.860405E-3,370.989418E-3
351.726723E-3,371.360207E-3
352.199936E-3,371.657181E-3
352.470016E-3,371.899223E-3
351.903534E-3,371.388245E-3
351.670647E-3,371.335602E-3
350.929642E-3,370.932198E-3
350.152016E-3,370.315361E-3
349.693108E-3,370.111084E-3
348.775291E-3,369.295120E-3
348.398209E-3,369.110298E-3
347.862625E-3,368.880844E-3
347.460938E-3,368.540382E-3
347.547913E-3,368.603897E-3
347.087860E-3,368.164444E-3
347.319603E-3,368.394470E-3
347.303009E-3,368.352127E-3
347.312737E-3,368.300056E-3
347.503281E-3,368.623352E-3
347.042656E-3,368.146133E-3
346.988297E-3,368.205643E-3
346.559715E-3,367.847443E-3
346.212959E-3,367.600822E-3
346.190071E-3,367.852592E-3
345.861626E-3,367.354202E-3
346.177483E-3,367.624855E-3
346.117973E-3,367.548752E-3
346.266174E-3,367.748451E-3
346.608925E-3,367.988777E-3
346.522522E-3,367.842293E-3
346.896172E-3,368.127251E-3
346.911049E-3,368.182755E-3
346.911049E-3,368.043137E-3
347.185135E-3,368.328667E-3
346.835518E-3,367.983627E-3
346.956253E-3,368.084908E-3
346.665001E-3,367.900085E-3
346.452141E-3,367.785645E-3
346.436119E-3,367.795944E-3
345.941734E-3,367.369652E-3
345.870781E-3,367.533302E-3
345.518875E-3,367.346764E-3
345.233917E-3,367.208290E-3
345.234489E-3,367.225456E-3
344.713211E-3,366.898727E-3
344.772720E-3,366.913033E-3
344.562149E-3,366.844368E-3
344.355011E-3,366.583443E-3
344.344139E-3,366.731644E-3
343.867493E-3,366.269875E-3
344.000816E-3,366.481018E-3
343.848610E-3,366.300774E-3
343.678093E-3,366.205788E-3
343.769073E-3,366.285324E-3
343.431473E-3,366.119385E-3
343.627739E-3,366.285324E-3
343.447495E-3,366.154289E-3
343.191719E-3,365.852737E-3
343.363380E-3,366.088486E-3
343.041229E-3,365.880203E-3
343.208313E-3,366.036415E-3
343.037224E-3,365.964890E-3
342.918777E-3,365.781212E-3
343.103600E-3,365.967178E-3
342.756271E-3,365.663338E-3
342.906761E-3,365.881920E-3
342.741966E-3,365.951729E-3
342.632103E-3,365.706825E-3
342.752266E-3,365.762329E-3
342.391205E-3,365.613556E-3
342.509079E-3,365.790939E-3
342.383194E-3,365.606117E-3
342.196083E-3,365.400696E-3
342.294502E-3,365.602684E-3
341.960335E-3,365.298271E-3
342.138863E-3,365.516853E-3
341.982079E-3,365.508842E-3
341.681099E-3,365.187263E-3
341.851616E-3,365.269661E-3
341.503143E-3,365.159798E-3
341.501427E-3,365.289116E-3
341.303444E-3,365.019035E-3
341.067123E-3,364.776993E-3
341.084862E-3,364.887428E-3
340.684891E-3,364.875984E-3
340.679741E-3,364.760971E-3
340.525818E-3,364.776993E-3
340.225410E-3,364.567566E-3
340.300369E-3,364.697456E-3
340.133286E-3,364.488029E-3
340.623665E-3,364.849663E-3
341.428185E-3,365.262794E-3
342.391205E-3,365.858459E-3
344.146729E-3,366.886139E-3
345.658493E-3,367.627144E-3
347.591400E-3,368.823624E-3
348.985291E-3,369.792938E-3
349.990654E-3,370.311928E-3
351.034927E-3,371.059227E-3
351.255226E-3,371.124458E-3
351.385117E-3,371.277237E-3
351.145363E-3,371.170807E-3
350.468445E-3,370.754814E-3
350.162315E-3,370.488739E-3
349.201584E-3,369.743729E-3
348.612213E-3,369.347763E-3
347.933006E-3,369.004440E-3
347.213173E-3,368.400192E-3
346.985435E-3,368.350410E-3
346.393204E-3,367.910385E-3
346.297073E-3,367.892647E-3
346.240425E-3,367.924690E-3
345.991516E-3,367.716408E-3
346.198654E-3,367.972183E-3
345.950317E-3,367.737579E-3
346.053314E-3,367.949867E-3
345.798683E-3,367.690659E-3
345.180130E-3,367.250061E-3
344.930649E-3,367.164230E-3
344.541550E-3,366.893005E-3
344.593620E-3,367.088699E-3
344.575882E-3,366.979408E-3
344.526100E-3,366.889000E-3
345.010185E-3,367.314720E-3
344.876862E-3,367.085266E-3
345.254517E-3,367.502403E-3
345.314598E-3,367.529297E-3
345.433044E-3,367.555046E-3
345.754051E-3,367.861748E-3
345.590401E-3,367.685509E-3
345.711136E-3,367.697525E-3
345.692253E-3,367.683220E-3
345.395851E-3,367.440033E-3
345.502853E-3,367.577362E-3
345.043373E-3,367.248344E-3
344.888306E-3,367.125893E-3
344.518089E-3,366.986847E-3
344.049454E-3,366.689873E-3
344.092941E-3,366.902161E-3
343.723297E-3,366.486168E-3
343.658066E-3,366.395187E-3
343.393707E-3,366.399765E-3
342.955971E-3,366.083336E-3
343.076134E-3,366.216087E-3
342.610359E-3,365.806389E-3
342.600060E-3,365.811539E-3
342.458153E-3,365.846443E-3
342.199516E-3,365.574646E-3
342.393494E-3,365.926552E-3
342.056465E-3,365.588951E-3
342.183495E-3,365.770340E-3
342.168045E-3,365.677071E-3
341.856766E-3,365.415001E-3
342.038155E-3,365.614700E-3
341.672516E-3,365.443611E-3
341.649628E-3,365.362930E-3
341.647339E-3,365.464211E-3
341.405296E-3,365.196419E-3
341.768074E-3,365.638161E-3
341.469383E-3,365.420151E-3
341.507149E-3,365.499115E-3
341.468811E-3,365.530586E-3
341.172981E-3,365.266800E-3
341.397858E-3,365.440750E-3
341.075706E-3,365.060806E-3
341.082001E-3,365.120316E-3
341.012192E-3,365.238762E-3
340.751839E-3,364.904022E-3
340.986443E-3,365.213013E-3
340.664864E-3,365.045929E-3
340.571594E-3,364.952087E-3
340.596771E-3,365.007019E-3
340.325546E-3,364.747238E-3
340.572739E-3,365.104294E-3
340.312958E-3,364.942932E-3
340.330124E-3,364.872551E-3
340.327835E-3,364.866829E-3
340.034866E-3,364.703751E-3
340.242004E-3,364.898872E-3
339.979935E-3,364.670563E-3
339.967918E-3,364.799881E-3
339.918137E-3,364.650536E-3
339.617157E-3,364.506340E-3
339.743042E-3,364.627647E-3
339.294434E-3,364.395332E-3
339.251518E-3,364.327812E-3
339.168549E-3,364.419937E-3
338.840103E-3,364.116669E-3
339.050102E-3,364.473724E-3
338.741684E-3,364.141273E-3
338.906479E-3,364.272881E-3
339.305878E-3,364.513779E-3
339.981651E-3,364.721489E-3
341.681671E-3,365.766335E-3
343.143082E-3,366.589737E-3
345.046234E-3,367.830849E-3
346.876144E-3,369.114304E-3
348.307228E-3,369.751740E-3
350.002670E-3,370.965958E-3
350.685310E-3,371.190834E-3
351.106453E-3,371.475792E-3
351.176262E-3,371.487236E-3
350.646400E-3,371.039772E-3
350.507355E-3,370.932770E-3
349.678230E-3,370.452118E-3
348.980713E-3,369.958305E-3
348.418808E-3,369.614410E-3
347.615433E-3,369.090271E-3
347.412872E-3,369.002151E-3
346.718788E-3,368.447685E-3
346.552277E-3,368.315506E-3
346.548843E-3,368.516350E-3
346.216965E-3,368.092346E-3
346.561432E-3,368.246841E-3
346.413231E-3,368.120384E-3
346.483040E-3,368.319511E-3
346.608925E-3,368.365860E-3
346.279907E-3,368.106079E-3
346.366882E-3,368.170166E-3
345.812416E-3,367.873192E-3
345.412445E-3,367.568207E-3
345.335197E-3,367.547607E-3
345.027924E-3,367.251205E-3
345.121193E-3,367.502403E-3
344.955254E-3,367.364502E-3
344.990730E-3,367.428017E-3
345.228767E-3,367.555046E-3
345.132637E-3,367.403984E-3
345.443916E-3,367.619705E-3
345.421600E-3,367.587090E-3
345.521164E-3,367.561913E-3
345.808983E-3,367.918396E-3
345.512009E-3,367.776489E-3
345.751762E-3,367.885780E-3
345.461082E-3,367.670631E-3
345.270538E-3,367.516136E-3
345.226479E-3,367.442894E-3
344.685173E-3,367.051506E-3
344.744110E-3,367.284966E-3
344.225693E-3,366.792297E-3
343.916702E-3,366.643524E-3
343.842888E-3,366.742516E-3
343.418312E-3,366.313362E-3
343.513870E-3,366.532516E-3
343.102455E-3,366.222382E-3
342.917633E-3,366.103935E-3
343.043518E-3,366.223526E-3
342.738533E-3,366.164589E-3
342.641830E-3,366.153717E-3
342.253876E-3,365.832710E-3
342.127991E-3,365.674782E-3
342.217827E-3,365.754318E-3
341.908264E-3,365.471077E-3
341.973495E-3,365.673065E-3
341.759491E-3,365.567207E-3
341.659927E-3,365.443039E-3
341.738319E-3,365.452766E-3
341.495705E-3,365.332603E-3
341.736603E-3,365.556335E-3
341.563797E-3,365.521431E-3
341.432190E-3,365.321732E-3
341.441917E-3,365.388107E-3
341.213036E-3,365.166092E-3
341.370392E-3,365.460205E-3
341.202736E-3,365.247345E-3
341.146660E-3,365.260506E-3
341.329193E-3,365.397263E-3
341.038513E-3,365.165520E-3
341.162682E-3,365.401840E-3
340.851402E-3,365.162659E-3
340.840530E-3,365.121460E-3
340.983582E-3,365.162086E-3
340.647125E-3,364.887428E-3
340.762711E-3,364.964104E-3
340.438271E-3,364.814758E-3
340.415955E-3,364.811897E-3
340.516090E-3,364.995003E-3
340.223694E-3,364.691162E-3
340.360451E-3,364.863968E-3
340.165329E-3,364.697456E-3
340.082932E-3,364.666557E-3
340.251732E-3,364.745522E-3
339.866638E-3,364.493752E-3
340.077209E-3,364.813042E-3
339.766502E-3,364.524078E-3
339.577103E-3,364.394188E-3
339.648628E-3,364.563560E-3
339.249229E-3,364.042854E-3
339.344215E-3,364.340401E-3
339.044952E-3,364.142418E-3
339.054680E-3,364.157295E-3
339.110756E-3,364.218521E-3
338.875580E-3,364.053154E-3
339.542198E-3,364.485741E-3
340.284920E-3,364.867973E-3
341.714859E-3,365.631294E-3
343.590546E-3,366.826057E-3
345.084572E-3,367.514420E-3
347.051811E-3,368.801880E-3
348.592758E-3,369.708824E-3
349.797821E-3,370.360565E-3
350.868988E-3,371.072388E-3
350.971985E-3,371.019173E-3
351.165962E-3,371.131325E-3
350.859261E-3,370.917320E-3
350.292778E-3,370.481300E-3
349.828720E-3,370.238113E-3
348.977852E-3,369.608116E-3
348.688316E-3,369.325447E-3
347.894669E-3,368.786430E-3
347.291565E-3,368.433952E-3
347.170830E-3,368.401909E-3
346.539116E-3,367.898369E-3
346.539688E-3,367.992783E-3
346.441269E-3,367.842293E-3
346.390343E-3,367.820549E-3
346.707344E-3,368.057442E-3
346.500206E-3,367.904663E-3
346.660995E-3,368.056297E-3
346.429253E-3,367.921829E-3
346.202660E-3,367.781067E-3
346.049309E-3,367.775917E-3
345.502853E-3,367.281532E-3
345.483398E-3,367.496109E-3
345.204735E-3,367.177391E-3
345.165253E-3,367.236328E-3
345.433044E-3,367.318153E-3
345.269394E-3,367.173386E-3
345.593834E-3,367.482948E-3
345.582962E-3,367.528152E-3
345.758629E-3,367.592812E-3
346.089363E-3,367.964172E-3
345.903969E-3,367.549896E-3
346.310234E-3,367.925835E-3
346.160316E-3,367.765617E-3
346.003532E-3,367.564201E-3
346.042442E-3,367.782211E-3
345.528030E-3,367.260933E-3
345.564651E-3,367.263794E-3
345.347786E-3,367.061806E-3
344.975853E-3,366.830635E-3
345.054817E-3,367.010880E-3
344.502068E-3,366.429520E-3
344.634247E-3,366.721344E-3
344.313812E-3,366.448402E-3
344.079208E-3,366.206360E-3
344.058609E-3,366.370583E-3
343.612289E-3,365.937424E-3
343.775368E-3,366.267586E-3
343.536758E-3,365.987206E-3
343.393135E-3,365.865326E-3
343.498421E-3,366.061592E-3
343.073845E-3,365.694809E-3
343.185425E-3,365.842438E-3
343.029785E-3,365.738869E-3
342.955971E-3,365.655327E-3
343.070984E-3,365.751457E-3
342.605782E-3,365.376663E-3
342.894745E-3,365.662766E-3
342.803192E-3,365.564919E-3
342.595482E-3,365.365791E-3
342.784309E-3,365.573502E-3
342.465019E-3,365.303421E-3
342.661858E-3,365.596962E-3
342.608070E-3,365.512276E-3
342.433548E-3,365.343475E-3
342.602348E-3,365.611267E-3
342.241859E-3,365.276527E-3
342.333412E-3,365.454483E-3
342.247009E-3,365.384674E-3
342.110825E-3,365.270805E-3
342.295647E-3,365.419579E-3
341.974640E-3,365.128899E-3
342.117691E-3,365.457916E-3
342.028427E-3,365.194130E-3
341.777229E-3,364.980698E-3
342.003250E-3,365.362358E-3
341.725731E-3,365.122032E-3
341.748619E-3,365.154648E-3
341.574669E-3,365.045357E-3
341.291428E-3,364.930344E-3
341.334343E-3,365.048790E-3
340.916061E-3,364.680862E-3
341.122627E-3,364.863396E-3
340.862274E-3,364.667130E-3
340.666580E-3,364.440536E-3
340.632248E-3,364.599609E-3
340.326691E-3,364.346123E-3
340.417099E-3,364.417076E-3
340.419388E-3,364.499474E-3
340.475464E-3,364.469719E-3
341.288567E-3,365.033913E-3
342.268181E-3,365.485382E-3
343.909836E-3,366.476440E-3
345.533180E-3,367.464638E-3
346.993446E-3,368.174744E-3
348.695183E-3,369.379807E-3
349.540329E-3,369.812965E-3
350.520515E-3,370.496750E-3
350.932503E-3,370.652390E-3
350.820351E-3,370.451546E-3
350.800896E-3,370.546532E-3
350.146294E-3,370.034409E-3
349.653625E-3,369.790077E-3
349.011040E-3,369.425011E-3
348.260307E-3,368.898582E-3
347.791100E-3,368.564987E-3
346.991730E-3,367.995644E-3
346.742249E-3,367.943001E-3
346.446991E-3,367.773628E-3
346.082497E-3,367.401123E-3
346.152878E-3,367.521858E-3
345.965195E-3,367.421150E-3
346.012115E-3,367.567062E-3
345.921707E-3,367.460632E-3
345.583534E-3,367.111588E-3
345.467377E-3,367.250061E-3
344.914055E-3,366.858673E-3
344.691467E-3,366.746521E-3
344.532967E-3,366.570854E-3
344.231987E-3,366.362000E-3
344.516373E-3,366.785431E-3
344.381332E-3,366.534233E-3
344.682884E-3,366.818047E-3
344.781876E-3,366.848373E-3
344.852829E-3,366.798019E-3
345.221329E-3,367.172813E-3
345.172691E-3,367.163658E-3
345.468521E-3,367.322731E-3
345.474243E-3,367.329025E-3
345.289421E-3,367.129326E-3
345.411873E-3,367.363358E-3
345.039940E-3,366.951942E-3
344.956398E-3,367.078972E-3
344.775009E-3,366.884422E-3
344.302368E-3,366.601181E-3
344.195366E-3,366.621780E-3
343.686676E-3,366.444969E-3
343.521309E-3,366.347122E-3
343.330765E-3,366.289330E-3
342.927361E-3,365.875626E-3
342.967415E-3,366.103935E-3
342.538261E-3,365.737152E-3
342.466164E-3,365.664482E-3
342.134285E-3,365.694809E-3
341.853333E-3,365.495110E-3
341.923714E-3,365.580368E-3
341.600990E-3,365.352631E-3
341.667366E-3,365.343475E-3
341.548920E-3,365.276527E-3
341.357803E-3,365.190125E-3
341.612434E-3,365.404701E-3
341.205597E-3,365.218163E-3
341.230202E-3,365.262222E-3
341.133499E-3,365.253067E-3
340.936089E-3,364.953232E-3
341.215897E-3,365.332603E-3
340.876579E-3,364.995575E-3
340.993881E-3,365.127182E-3
340.994453E-3,365.033340E-3
340.710068E-3,364.827919E-3
340.924072E-3,365.156364E-3
340.644836E-3,364.917183E-3
340.754700E-3,365.009880E-3
340.695190E-3,365.136909E-3
340.389633E-3,364.749527E-3
340.647697E-3,365.038490E-3
340.298080E-3,364.731789E-3
340.381622E-3,364.839363E-3
340.446281E-3,364.847374E-3
340.304375E-3,364.669991E-3
340.476036E-3,364.857101E-3
340.212822E-3,364.735794E-3
340.162468E-3,364.708900E-3
340.096664E-3,364.654541E-3
339.942741E-3,364.517212E-3
340.197372E-3,364.782143E-3
339.858627E-3,364.583588E-3
339.819717E-3,364.586449E-3
339.637184E-3,364.478302E-3
339.450073E-3,364.340973E-3
339.509583E-3,364.498901E-3
339.147949E-3,364.251137E-3
339.071274E-3,364.229965E-3
339.006615E-3,364.301491E-3
338.657570E-3,363.936996E-3
338.926506E-3,364.300346E-3
338.669586E-3,364.049149E-3
339.035225E-3,364.346123E-3
339.742470E-3,364.771271E-3
340.845680E-3,365.386391E-3
342.736816E-3,366.470718E-3
344.244003E-3,367.246628E-3
346.037292E-3,368.463135E-3
347.701263E-3,369.447327E-3
348.961258E-3,370.159721E-3
350.131989E-3,370.893288E-3
350.459862E-3,371.034622E-3
350.558853E-3,371.039200E-3
350.503349E-3,370.998573E-3
349.852753E-3,370.630646E-3
349.634743E-3,370.449257E-3
348.854256E-3,369.901085E-3
348.260307E-3,369.577217E-3
347.709274E-3,369.139481E-3
346.951675E-3,368.655396E-3
346.821213E-3,368.558693E-3
346.349144E-3,368.251991E-3
346.269608E-3,368.241119E-3
346.257591E-3,368.266296E-3
346.094513E-3,368.036842E-3
346.467590E-3,368.266296E-3
346.304512E-3,368.055153E-3
346.392632E-3,368.170166E-3
346.401787E-3,368.241119E-3
346.045303E-3,368.044853E-3
346.043015E-3,368.059731E-3
345.505142E-3,367.639160E-3
345.145798E-3,367.420578E-3
344.999313E-3,367.573929E-3
344.709206E-3,367.119026E-3
344.936943E-3,367.402267E-3
344.706345E-3,367.134476E-3
344.889450E-3,367.236900E-3
345.108604E-3,367.414856E-3
345.023918E-3,367.274094E-3
345.427322E-3,367.741013E-3
345.382118E-3,367.572784E-3
345.557785E-3,367.695808E-3
345.605850E-3,367.822838E-3
345.394707E-3,367.496109E-3
345.514870E-3,367.735863E-3
345.224190E-3,367.433167E-3
345.039368E-3,367.262077E-3
344.964981E-3,367.304993E-3
344.441414E-3,366.863251E-3
344.372177E-3,367.040634E-3
343.888092E-3,366.642380E-3
343.676949E-3,366.537666E-3
343.648911E-3,366.617203E-3
343.239212E-3,366.210937E-3
343.369675E-3,366.388893E-3
342.858124E-3,366.030121E-3
342.702484E-3,365.980339E-3
342.775154E-3,366.184616E-3
342.395210E-3,365.800095E-3
342.564583E-3,366.012955E-3
342.191505E-3,365.735435E-3
342.042732E-3,365.562630E-3
342.185783E-3,365.772629E-3
341.963196E-3,365.587807E-3
342.027855E-3,365.706825E-3
341.689110E-3,365.451622E-3
341.703415E-3,365.469933E-3
341.806984E-3,365.612411E-3
341.487122E-3,365.277100E-3
341.633034E-3,365.441895E-3
341.524315E-3,365.345192E-3
341.417313E-3,365.233612E-3
341.567230E-3,365.289116E-3
341.329765E-3,365.137482E-3
341.471672E-3,365.340614E-3
341.299438E-3,365.270233E-3
341.296577E-3,365.309143E-3
341.369820E-3,365.287971E-3
341.075134E-3,365.015602E-3
341.206169E-3,365.194702E-3
340.914345E-3,364.975548E-3
340.869141E-3,364.799881E-3
341.088295E-3,365.182686E-3
340.823364E-3,364.879417E-3
341.046524E-3,365.118027E-3
340.759850E-3,364.983559E-3
340.722084E-3,364.840508E-3
340.820503E-3,364.943504E-3
340.636253E-3,364.727211E-3
340.788460E-3,365.002441E-3
340.530396E-3,364.772415E-3
340.410233E-3,364.745522E-3
340.452003E-3,364.772987E-3
340.069199E-3,364.469147E-3
340.185928E-3,364.553833E-3
339.907837E-3,364.395905E-3
339.701843E-3,364.310074E-3
339.832306E-3,364.414787E-3
339.531326E-3,364.196205E-3
339.570236E-3,364.318657E-3
339.364243E-3,364.156151E-3
339.559937E-3,364.235687E-3
340.246582E-3,364.735222E-3
341.036224E-3,365.159225E-3
342.638397E-3,366.119957E-3
344.244576E-3,367.004585E-3
346.162033E-3,368.056870E-3
347.979355E-3,369.126892E-3
349.123764E-3,369.687653E-3
350.390053E-3,370.627213E-3
350.917053E-3,370.821190E-3
351.135063E-3,371.052933E-3
351.177979E-3,370.985413E-3
350.551414E-3,370.458412E-3
350.328827E-3,370.451546E-3
349.686813E-3,369.899368E-3
348.957253E-3,369.457626E-3
348.502350E-3,369.224739E-3
347.769356E-3,368.522072E-3
347.649765E-3,368.596458E-3
347.097015E-3,368.195343E-3
346.901321E-3,367.983627E-3
346.943665E-3,368.007660E-3
346.747398E-3,367.740440E-3
347.092438E-3,367.961311E-3
346.981430E-3,367.914391E-3
347.038078E-3,368.071175E-3
347.111320E-3,368.130112E-3
346.673012E-3,367.741013E-3
346.596909E-3,367.806816E-3
345.985794E-3,367.425728E-3
345.715141E-3,367.342186E-3
345.726585E-3,367.340469E-3
345.508575E-3,366.992569E-3
345.652199E-3,367.251778E-3
345.570946E-3,367.093849E-3
345.651627E-3,367.148209E-3
345.902824E-3,367.449188E-3
345.811844E-3,367.310715E-3
346.210670E-3,367.612839E-3
346.172333E-3,367.602539E-3
346.168900E-3,367.533302E-3
346.358871E-3,367.719269E-3
346.051025E-3,367.396545E-3
346.210670E-3,367.563057E-3
345.906830E-3,367.341614E-3
345.660782E-3,367.191696E-3
345.621872E-3,367.350197E-3
345.045662E-3,366.831207E-3
345.102310E-3,366.974831E-3
344.782448E-3,366.794014E-3
344.615364E-3,366.666412E-3
344.609070E-3,366.727638E-3
344.168472E-3,366.358566E-3
344.183350E-3,366.313934E-3
343.903542E-3,366.185760E-3
343.643188E-3,366.095352E-3
343.718147E-3,366.259575E-3
343.292999E-3,365.845299E-3
343.336487E-3,366.044426E-3
343.011475E-3,365.773201E-3
342.961121E-3,365.783501E-3
343.072128E-3,365.762901E-3
342.603493E-3,365.555763E-3
342.746544E-3,365.657043E-3
342.568016E-3,365.479660E-3
342.501068E-3,365.484238E-3
342.557716E-3,365.626717E-3
342.173767E-3,365.314865E-3
342.287064E-3,365.587807E-3
342.184639E-3,365.455627E-3
342.144012E-3,365.366364E-3
342.301369E-3,365.607834E-3
341.973495E-3,365.275383E-3
342.091942E-3,365.540314E-3
341.921425E-3,365.261078E-3
341.954613E-3,365.285683E-3
341.958046E-3,365.410423E-3
341.582680E-3,364.995003E-3
341.752625E-3,365.360069E-3
341.669083E-3,365.245628E-3
341.590691E-3,365.221024E-3
341.749191E-3,365.394974E-3
341.320610E-3,365.091705E-3
341.444778E-3,365.263367E-3
341.302872E-3,365.127754E-3
341.077423E-3,365.023613E-3
341.299438E-3,365.123177E-3
340.830803E-3,364.653969E-3
340.841675E-3,364.768410E-3
340.738678E-3,364.746094E-3
340.522957E-3,364.630508E-3
340.461731E-3,364.677429E-3
340.094948E-3,364.458275E-3
340.167046E-3,364.514923E-3
339.908981E-3,364.424515E-3
339.787674E-3,364.328957E-3
339.860344E-3,364.407921E-3
339.529610E-3,364.164734E-3
339.961624E-3,364.384460E-3
340.596199E-3,364.666557E-3
341.753769E-3,365.430450E-3
343.503571E-3,366.586876E-3
344.862556E-3,367.143631E-3
346.540260E-3,368.246269E-3
347.927856E-3,369.110870E-3
348.983002E-3,369.728851E-3
349.936295E-3,370.378304E-3
350.035858E-3,370.286179E-3
350.293350E-3,370.458984E-3
349.946022E-3,370.152283E-3
349.500847E-3,369.886208E-3
349.060249E-3,369.699669E-3
348.219109E-3,368.957520E-3
347.897530E-3,368.871117E-3
347.183418E-3,368.373871E-3
346.608353E-3,367.892647E-3
346.331406E-3,367.846870E-3
345.747757E-3,367.476654E-3
345.731163E-3,367.499542E-3
345.564651E-3,367.478371E-3
345.438766E-3,367.423439E-3
345.597267E-3,367.507553E-3
345.249367E-3,367.309570E-3
345.220757E-3,367.289543E-3
344.922638E-3,367.166519E-3
344.551849E-3,366.849518E-3
344.325829E-3,366.895866E-3
343.961906E-3,366.550827E-3
343.969917E-3,366.648674E-3
343.960190E-3,366.531372E-3
343.844032E-3,366.437531E-3
344.169044E-3,366.769409E-3
344.119835E-3,366.642380E-3
344.489479E-3,366.969681E-3
344.652557E-3,367.005730E-3
344.556427E-3,367.020607E-3
344.793892E-3,367.340469E-3
344.669724E-3,367.006874E-3
344.857979E-3,367.264938E-3
344.718361E-3,367.054367E-3
344.527245E-3,366.851234E-3
344.504356E-3,366.974258E-3
344.031715E-3,366.613197E-3
344.054031E-3,366.743660E-3
343.796539E-3,366.606903E-3
343.405151E-3,366.344833E-3
343.410873E-3,366.364288E-3
342.886734E-3,365.996933E-3
342.816925E-3,365.939713E-3
342.529678E-3,365.820122E-3
342.218971E-3,365.558624E-3
342.235565E-3,365.810394E-3
341.922569E-3,365.381813E-3
341.902542E-3,365.603828E-3
341.680527E-3,365.462494E-3
341.445923E-3,365.401268E-3
341.496277E-3,365.442467E-3
341.253090E-3,365.107155E-3
341.329193E-3,365.187263E-3
341.271400E-3,365.272522E-3
341.122627E-3,365.151215E-3
341.173553E-3,365.253067E-3
340.813637E-3,364.970970E-3
340.909767E-3,365.047646E-3
340.847969E-3,365.037918E-3
340.612793E-3,364.801025E-3
340.820503E-3,365.073395E-3
340.550423E-3,364.855957E-3
340.758705E-3,365.035629E-3
340.674019E-3,364.969254E-3
340.499496E-3,364.965820E-3
340.507507E-3,364.981842E-3
340.212250E-3,364.768410E-3
340.381622E-3,364.940071E-3
340.209961E-3,364.912605E-3
339.927292E-3,364.633942E-3
340.117264E-3,364.834785E-3
339.840317E-3,364.522362E-3
339.991379E-3,364.720917E-3
339.908981E-3,364.786148E-3
339.699554E-3,364.554977E-3
339.815140E-3,364.639091E-3
339.521599E-3,364.423370E-3
339.642334E-3,364.558983E-3
339.571953E-3,364.593887E-3
339.328766E-3,364.310074E-3
339.329338E-3,364.470291E-3
339.129639E-3,364.248848E-3
339.143944E-3,364.340973E-3
339.025497E-3,364.258003E-3
338.747978E-3,364.021111E-3
338.887596E-3,364.259148E-3
338.603210E-3,363.983345E-3
338.517380E-3,364.043999E-3
338.404083E-3,363.963318E-3
338.033867E-3,363.626862E-3
338.278198E-3,364.013100E-3
338.140297E-3,363.849449E-3
338.541985E-3,364.109802E-3
339.355087E-3,364.580154E-3
340.473747E-3,365.255928E-3
342.297935E-3,366.340828E-3
343.834305E-3,367.090988E-3
345.752907E-3,368.316078E-3
347.225761E-3,369.338036E-3
348.435974E-3,369.998932E-3
349.548340E-3,370.727348E-3
349.812698E-3,370.678139E-3
350.142860E-3,370.860672E-3
349.889374E-3,370.626640E-3
349.246788E-3,370.286751E-3
348.926353E-3,370.109940E-3
348.128128E-3,369.462204E-3
347.664642E-3,369.279099E-3
347.109032E-3,368.882561E-3
346.512794E-3,368.360138E-3
346.370316E-3,368.361855E-3
345.916557E-3,368.023682E-3
345.871353E-3,367.996788E-3
345.776939E-3,367.905235E-3
345.681381E-3,367.760468E-3
346.005249E-3,368.083763E-3
345.774651E-3,367.922974E-3
346.093369E-3,368.065453E-3
345.952606E-3,368.149567E-3
345.656204E-3,367.857742E-3
345.572090E-3,367.973900E-3
344.974709E-3,367.541885E-3
344.773865E-3,367.341614E-3
344.578171E-3,367.146492E-3
344.214821E-3,366.965103E-3
344.508362E-3,367.105865E-3
344.278336E-3,366.827774E-3
344.425964E-3,366.996002E-3
344.623947E-3,367.185402E-3
344.526100E-3,367.056656E-3
344.995880E-3,367.577362E-3
344.813919E-3,367.306137E-3
344.966125E-3,367.356491E-3
345.070267E-3,367.436028E-3
344.803619E-3,367.169380E-3
344.958687E-3,367.534447E-3
344.520378E-3,367.078972E-3
344.363594E-3,366.962814E-3
344.013977E-3,366.858673E-3
343.632317E-3,366.426659E-3
343.674088E-3,366.633797E-3
343.301010E-3,366.181183E-3
343.070984E-3,366.131973E-3
342.945671E-3,366.162300E-3
342.543983E-3,365.945435E-3
342.713928E-3,366.125679E-3
342.254448E-3,365.750313E-3
342.201805E-3,365.616989E-3
342.089081E-3,365.543747E-3
341.847610E-3,365.463638E-3
341.958618E-3,365.633583E-3
341.671371E-3,365.328026E-3
341.665077E-3,365.428162E-3
341.631889E-3,365.438461E-3
341.291428E-3,365.099716E-3
341.537476E-3,365.381241E-3
341.261673E-3,365.107727E-3
341.265678E-3,365.270805E-3
341.259384E-3,365.304565E-3
341.038513E-3,365.000725E-3
341.261673E-3,365.365219E-3
340.973854E-3,365.213013E-3
340.995598E-3,365.137482E-3
340.958405E-3,365.226746E-3
340.715218E-3,364.916039E-3
341.048241E-3,365.251350E-3
340.722656E-3,364.946365E-3
340.715218E-3,365.051079E-3
340.692329E-3,365.024185E-3
340.422821E-3,364.799881E-3
340.655708E-3,364.985847E-3
340.386200E-3,364.760399E-3
340.464020E-3,364.872551E-3
340.440559E-3,364.882851E-3
340.132713E-3,364.680290E-3
340.340424E-3,364.958382E-3
340.102386E-3,364.769554E-3
340.116692E-3,364.763260E-3
340.017700E-3,364.643669E-3
339.826584E-3,364.433670E-3
340.119553E-3,364.744377E-3
339.836311E-3,364.636230E-3
339.823151E-3,364.482307E-3
339.752197E-3,364.439392E-3
339.431190E-3,364.291191E-3
339.604568E-3,364.566994E-3
339.248085E-3,364.157295E-3
339.233208E-3,364.198494E-3
339.157104E-3,364.045143E-3
338.784027E-3,363.811111E-3
338.892746E-3,364.136696E-3
338.786888E-3,363.910675E-3
338.868141E-3,363.936996E-3
339.250374E-3,364.171028E-3
339.909554E-3,364.443970E-3
341.504288E-3,365.470505E-3
342.909050E-3,366.169167E-3
344.649124E-3,367.180824E-3
346.403503E-3,368.429375E-3
347.724724E-3,369.023895E-3
349.205589E-3,369.936562E-3
349.865341E-3,370.407486E-3
350.330544E-3,370.580864E-3
350.402641E-3,370.623207E-3
349.875069E-3,370.204353E-3
349.808121E-3,370.130539E-3
349.018478E-3,369.618416E-3
348.425102E-3,369.213295E-3
347.943306E-3,368.984413E-3
347.196579E-3,368.377304E-3
347.039795E-3,368.349266E-3
346.501923E-3,367.921257E-3
346.286201E-3,367.804527E-3
346.173477E-3,367.881203E-3
345.945740E-3,367.514992E-3
346.196938E-3,367.727280E-3
346.059608E-3,367.581367E-3
346.115112E-3,367.625999E-3
346.263313E-3,367.756462E-3
345.980644E-3,367.447472E-3
345.977211E-3,367.583084E-3
345.284843E-3,367.125893E-3
345.051956E-3,366.951942E-3
344.932365E-3,367.018318E-3
344.645119E-3,366.759109E-3
344.828224E-3,367.102432E-3
344.670296E-3,366.810036E-3
344.832802E-3,366.943359E-3
345.172691E-3,367.220879E-3
345.039368E-3,367.036057E-3
345.446205E-3,367.445183E-3
345.313454E-3,367.166519E-3
345.355797E-3,367.285538E-3
345.512009E-3,367.385674E-3
345.272827E-3,367.153931E-3
345.372391E-3,367.258644E-3
345.016479E-3,366.897583E-3
344.848251E-3,366.897583E-3
