Notes :


2023-11-13 ¿ÀÀü 12:15:18
Volts
Ch : LED 2,
996.461678E-3
996.506310E-3
996.568680E-3
996.702576E-3
996.291161E-3
996.129799E-3
995.760727E-3
995.408249E-3
994.969940E-3
994.590569E-3
994.413757E-3
994.017792E-3
994.250679E-3
993.832970E-3
993.597794E-3
993.464470E-3
993.229294E-3
993.098259E-3
993.072510E-3
992.414474E-3
992.391014E-3
992.033958E-3
991.764450E-3
991.457748E-3
991.296959E-3
991.195107E-3
991.057205E-3
990.980530E-3
990.923309E-3
990.776253E-3
990.715599E-3
990.469551E-3
990.335083E-3
990.108490E-3
989.870453E-3
989.788628E-3
989.719963E-3
989.717102E-3
989.681053E-3
989.680481E-3
989.741707E-3
989.663315E-3
989.470482E-3
989.304543E-3
989.059639E-3
989.039040E-3
988.079453E-3
988.439941E-3
988.434219E-3
988.235092E-3
988.203621E-3
987.953568E-3
987.680626E-3
987.486649E-3
987.078094E-3
986.329079E-3
986.541367E-3
986.680412E-3
986.959648E-3
987.844276E-3
989.702797E-3
991.925240E-3
994.603157E-3
997.332573E-3
999.458885E-3
1.001855E+0
1.003302E+0
1.004117E+0
1.004374E+0
1.004293E+0
1.004038E+0
1.003290E+0
1.002694E+0
1.002361E+0
1.001709E+0
1.001285E+0
1.000974E+0
1.000758E+0
1.000883E+0
1.000879E+0
1.000019E+0
1.000553E+0
1.000919E+0
1.001117E+0
1.001115E+0
1.001006E+0
1.000659E+0
999.949837E-3
999.547005E-3
998.855209E-3
998.261833E-3
997.693634E-3
997.518539E-3
997.490501E-3
997.280502E-3
997.547150E-3
997.649574E-3
997.864723E-3
997.418976E-3
997.793198E-3
997.816658E-3
997.826958E-3
997.755432E-3
997.459602E-3
997.194672E-3
996.912003E-3
996.597862E-3
996.866226E-3
996.360397E-3
996.104622E-3
995.920944E-3
995.755005E-3
995.770454E-3
995.588493E-3
995.114136E-3
994.906425E-3
994.572258E-3
994.429779E-3
994.200325E-3
994.018364E-3
993.787766E-3
993.720245E-3
993.289948E-3
993.171501E-3
992.719460E-3
992.533493E-3
992.215347E-3
991.886330E-3
991.782761E-3
991.707230E-3
991.631126E-3
991.442871E-3
991.440582E-3
991.398811E-3
991.244888E-3
991.351318E-3
991.203117E-3
991.079521E-3
990.944481E-3
991.176224E-3
990.970802E-3
990.839195E-3
990.675545E-3
990.707588E-3
990.669250E-3
990.594292E-3
990.470695E-3
990.199471E-3
990.148544E-3
989.667892E-3
989.380646E-3
988.958359E-3
988.572693E-3
988.450241E-3
988.229942E-3
988.417625E-3
988.530350E-3
988.141251E-3
990.380859E-3
992.563248E-3
995.088959E-3
997.636986E-3
999.908066E-3
1.001833E+0
1.003372E+0
1.004098E+0
1.004350E+0
1.004106E+0
1.003774E+0
1.003226E+0
1.002710E+0
1.001584E+0
1.001382E+0
1.000944E+0
1.000412E+0
1.000187E+0
999.932671E-3
999.843407E-3
1.000122E+0
1.000080E+0
1.000596E+0
1.000385E+0
1.000054E+0
999.774170E-3
999.109268E-3
998.365974E-3
997.492790E-3
996.790695E-3
996.415329E-3
996.017647E-3
996.296883E-3
996.612167E-3
996.945763E-3
997.319984E-3
997.713089E-3
997.960854E-3
997.899055E-3
997.956276E-3
997.838974E-3
997.366905E-3
997.164345E-3
996.935463E-3
996.648216E-3
995.835114E-3
995.985031E-3
995.999908E-3
996.076012E-3
995.887184E-3
995.848846E-3
995.434570E-3
995.262337E-3
995.046616E-3
995.252609E-3
994.607162E-3
994.193459E-3
994.019508E-3
993.758011E-3
993.576622E-3
993.445587E-3
993.212700E-3
993.134880E-3
993.241310E-3
992.636490E-3
992.360115E-3
992.047691E-3
991.979027E-3
991.851425E-3
991.708946E-3
991.800499E-3
991.703796E-3
991.464043E-3
991.623116E-3
991.689491E-3
991.657448E-3
991.478920E-3
991.415405E-3
991.291237E-3
990.962791E-3
990.859222E-3
990.594864E-3
990.570831E-3
990.384865E-3
990.316772E-3
990.137672E-3
989.941978E-3
989.865875E-3
988.818169E-3
989.080811E-3
989.469910E-3
989.585495E-3
990.498161E-3
991.901779E-3
993.862724E-3
996.185875E-3
998.757935E-3
1.001879E+0
1.003609E+0
1.005026E+0
1.006184E+0
1.006499E+0
1.006829E+0
1.006174E+0
1.005563E+0
1.004906E+0
1.004475E+0
1.003762E+0
1.003116E+0
1.002823E+0
1.002709E+0
1.002581E+0
1.002700E+0
1.002729E+0
1.002845E+0
1.003349E+0
1.002991E+0
1.002590E+0
1.002497E+0
1.001844E+0
1.001250E+0
1.000378E+0
999.753571E-3
999.125862E-3
998.777390E-3
998.626328E-3
998.808289E-3
998.906136E-3
999.120712E-3
999.239159E-3
999.243736E-3
999.314117E-3
999.282074E-3
1.000112E+0
999.417114E-3
999.074364E-3
998.962212E-3
998.712730E-3
998.410606E-3
998.170853E-3
998.354530E-3
997.790337E-3
997.447586E-3
997.281647E-3
996.991539E-3
997.054482E-3
996.820450E-3
996.723747E-3
996.423912E-3
996.743774E-3
996.248817E-3
995.939255E-3
995.631409E-3
995.273209E-3
994.932747E-3
994.730759E-3
994.591141E-3
994.437790E-3
994.500160E-3
994.242096E-3
994.244957E-3
994.105911E-3
993.910789E-3
993.776894E-3
993.691635E-3
993.647003E-3
993.390656E-3
992.966080E-3
992.987823E-3
992.958069E-3
992.865944E-3
992.625618E-3
992.683983E-3
992.513466E-3
992.440796E-3
992.441368E-3
992.570114E-3
992.381859E-3
992.245674E-3
991.916084E-3
991.815948E-3
991.516685E-3
991.335869E-3
991.030884E-3
990.708160E-3
991.069221E-3
990.333939E-3
990.037537E-3
990.006065E-3
989.940262E-3
990.232658E-3
990.830612E-3
992.231369E-3
994.251251E-3
997.292519E-3
999.591637E-3
1.001996E+0
1.004064E+0
1.005708E+0
1.006513E+0
1.006922E+0
1.007561E+0
1.006912E+0
1.006376E+0
1.005715E+0
1.005257E+0
1.004615E+0
1.004281E+0
1.004099E+0
1.003948E+0
1.003864E+0
1.003860E+0
1.004021E+0
1.004128E+0
1.004070E+0
1.004432E+0
1.004200E+0
1.004089E+0
1.003710E+0
1.002600E+0
1.002291E+0
1.001325E+0
1.000833E+0
1.000374E+0
999.998474E-3
999.937820E-3
999.888039E-3
1.000144E+0
1.000674E+0
1.000706E+0
1.000792E+0
1.000627E+0
1.000455E+0
1.000464E+0
1.000145E+0
999.915504E-3
999.770164E-3
998.771667E-3
998.907852E-3
998.910141E-3
998.850060E-3
998.575401E-3
998.330498E-3
998.155975E-3
998.117638E-3
997.959709E-3
997.327423E-3
997.134590E-3
996.726036E-3
996.328926E-3
996.252823E-3
995.938110E-3
995.948410E-3
994.947052E-3
995.240593E-3
995.401382E-3
995.216560E-3
995.012856E-3
994.610596E-3
994.452095E-3
994.436073E-3
994.232941E-3
993.947411E-3
993.934822E-3
993.703651E-3
993.628120E-3
993.562889E-3
993.387222E-3
993.313408E-3
993.174934E-3
993.224144E-3
992.984962E-3
992.885971E-3
992.695427E-3
992.651367E-3
992.591858E-3
992.467690E-3
992.261124E-3
992.289162E-3
991.961861E-3
992.322350E-3
991.759300E-3
991.452599E-3
991.239166E-3
990.863228E-3
990.447807E-3
990.268135E-3
989.880753E-3
989.651299E-3
990.171432E-3
990.008926E-3
989.944839E-3
990.537071E-3
992.001915E-3
993.851852E-3
996.424484E-3
998.943901E-3
1.001428E+0
1.003461E+0
1.004838E+0
1.005737E+0
1.005765E+0
1.005683E+0
1.005291E+0
1.004675E+0
1.003528E+0
1.003214E+0
1.002797E+0
1.002393E+0
1.002031E+0
1.001999E+0
1.001691E+0
1.001707E+0
1.001863E+0
1.002149E+0
1.002123E+0
1.001983E+0
1.001827E+0
1.001583E+0
1.001047E+0
1.000499E+0
999.580765E-3
999.066925E-3
999.135590E-3
998.539352E-3
998.253822E-3
998.490715E-3
998.715019E-3
999.057198E-3
999.382782E-3
999.692345E-3
999.736404E-3
1.000167E+0
1.000044E+0
999.683762E-3
999.430847E-3
999.184227E-3
998.844337E-3
998.653221E-3
998.253822E-3
998.044395E-3
997.656441E-3
997.441864E-3
997.151756E-3
996.950340E-3
996.764374E-3
996.614456E-3
996.414185E-3
995.623398E-3
995.839119E-3
995.960999E-3
995.643425E-3
995.578766E-3
995.248604E-3
994.930458E-3
994.790268E-3
994.460678E-3
994.503021E-3
994.297028E-3
994.147682E-3
994.009781E-3
993.855858E-3
993.832397E-3
993.585777E-3
993.240738E-3
993.173218E-3
993.208694E-3
992.985535E-3
992.963219E-3
992.868233E-3
992.855644E-3
992.717743E-3
992.629051E-3
992.598152E-3
992.478561E-3
992.082596E-3
992.021370E-3
991.875458E-3
991.576767E-3
991.322136E-3
991.058350E-3
990.780258E-3
990.653801E-3
990.318489E-3
989.481354E-3
990.023232E-3
989.953423E-3
990.204620E-3
990.732193E-3
991.829681E-3
993.653297E-3
995.855141E-3
998.416328E-3
1.001501E+0
1.003463E+0
1.005133E+0
1.006360E+0
1.007126E+0
1.007332E+0
1.007053E+0
1.006352E+0
1.006034E+0
1.005537E+0
1.005070E+0
1.004455E+0
1.004113E+0
1.003873E+0
1.003655E+0
1.003780E+0
1.003476E+0
1.003928E+0
1.004131E+0
1.004274E+0
1.004397E+0
1.004140E+0
1.004034E+0
1.003316E+0
1.002611E+0
1.001711E+0
1.000865E+0
1.000211E+0
999.695206E-3
999.691200E-3
999.755859E-3
999.723244E-3
999.997330E-3
1.000310E+0
1.000421E+0
1.000499E+0
1.000378E+0
1.000352E+0
1.000024E+0
999.821663E-3
999.512672E-3
999.076653E-3
998.917007E-3
998.054123E-3
998.139954E-3
997.920227E-3
997.818375E-3
997.602654E-3
997.479057E-3
997.215843E-3
996.983528E-3
996.659088E-3
996.358109E-3
996.015358E-3
995.780754E-3
995.518684E-3
995.284081E-3
995.128441E-3
994.876671E-3
994.911003E-3
994.840050E-3
994.448662E-3
994.364548E-3
994.187737E-3
993.895912E-3
993.886185E-3
993.551445E-3
993.529701E-3
993.292809E-3
993.215561E-3
993.207550E-3
992.919159E-3
992.919731E-3
992.876244E-3
992.680550E-3
992.688560E-3
992.527199E-3
992.614174E-3
992.292595E-3
992.173004E-3
992.016220E-3
991.750717E-3
991.859436E-3
991.593933E-3
991.501808E-3
991.337013E-3
991.577911E-3
991.124725E-3
990.814590E-3
990.401459E-3
990.165710E-3
989.711380E-3
989.515114E-3
989.214706E-3
989.047050E-3
988.867950E-3
989.187241E-3
989.933968E-3
990.827179E-3
993.148041E-3
995.822525E-3
998.526764E-3
1.001198E+0
1.004012E+0
1.005583E+0
1.006441E+0
1.006671E+0
1.006939E+0
1.006722E+0
1.006184E+0
1.005596E+0
1.004930E+0
1.004486E+0
1.004026E+0
1.003877E+0
1.003503E+0
1.004318E+0
1.003839E+0
1.003709E+0
1.003725E+0
1.003884E+0
1.003525E+0
1.003720E+0
1.003784E+0
1.003575E+0
1.003095E+0
1.002221E+0
1.001468E+0
1.000837E+0
1.000349E+0
999.974442E-3
999.747276E-3
999.754143E-3
999.990463E-3
999.996185E-3
1.000117E+0
1.000051E+0
1.000147E+0
1.000013E+0
999.890900E-3
999.817657E-3
999.541283E-3
999.354172E-3
999.004555E-3
998.759651E-3
998.577690E-3
998.236656E-3
998.014641E-3
997.622108E-3
997.501373E-3
997.207832E-3
996.887398E-3
996.712875E-3
996.621323E-3
995.870018E-3
996.095467E-3
995.832253E-3
995.607376E-3
995.305252E-3
995.005417E-3
994.802284E-3
994.505310E-3
994.371414E-3
993.813515E-3
993.985748E-3
993.814659E-3
993.693352E-3
993.735123E-3
993.650436E-3
993.385506E-3
993.317986E-3
993.119431E-3
993.279648E-3
993.022728E-3
992.831612E-3
992.897987E-3
992.575836E-3
992.713737E-3
992.591858E-3
993.650436E-3
992.786407E-3
992.341805E-3
991.969872E-3
991.732979E-3
990.491867E-3
991.010857E-3
990.974236E-3
990.887833E-3
990.670395E-3
990.390587E-3
990.295029E-3
990.059280E-3
991.295242E-3
990.096474E-3
989.695358E-3
989.397812E-3
989.257622E-3
989.626694E-3
990.258408E-3
991.995621E-3
994.264412E-3
996.784973E-3
999.355888E-3
1.001603E+0
1.003159E+0
1.004518E+0
1.005060E+0
1.005341E+0
1.004980E+0
1.004281E+0
1.003913E+0
1.003118E+0
1.003606E+0
1.002564E+0
1.001908E+0
1.001818E+0
1.001693E+0
1.001794E+0
1.001906E+0
1.001908E+0
1.002041E+0
1.001886E+0
1.001827E+0
1.001510E+0
1.000990E+0
1.000341E+0
999.521828E-3
998.927307E-3
998.302460E-3
997.913361E-3
997.912788E-3
998.034096E-3
998.071861E-3
998.315048E-3
998.491287E-3
998.676682E-3
998.540497E-3
998.744774E-3
998.616600E-3
998.423195E-3
998.562241E-3
998.248672E-3
998.079300E-3
997.873878E-3
997.533417E-3
997.368622E-3
996.841621E-3
996.640205E-3
996.330070E-3
996.304893E-3
996.066856E-3
995.409966E-3
995.523834E-3
995.442009E-3
995.383072E-3
995.360184E-3
994.791412E-3
994.752502E-3
994.533348E-3
994.191742E-3
994.134521E-3
993.865013E-3
993.980026E-3
993.884468E-3
993.550873E-3
993.666458E-3
993.415260E-3
993.335152E-3
993.147469E-3
992.909431E-3
992.798996E-3
992.748070E-3
992.855072E-3
992.804718E-3
992.733765E-3
993.453598E-3
992.862511E-3
992.631340E-3
991.266632E-3
991.881752E-3
992.179298E-3
992.104912E-3
991.931534E-3
991.604233E-3
991.205406E-3
991.151047E-3
990.732765E-3
990.574265E-3
990.506744E-3
990.380859E-3
990.444374E-3
990.590286E-3
991.289520E-3
992.052841E-3
993.679047E-3
995.942688E-3
998.404884E-3
1.001034E+0
1.003310E+0
1.005128E+0
1.006565E+0
1.007240E+0
1.007381E+0
1.007027E+0
1.006456E+0
1.005964E+0
1.005052E+0
1.004526E+0
1.003850E+0
1.003230E+0
1.003067E+0
1.002908E+0
1.002999E+0
1.003174E+0
1.003237E+0
1.003587E+0
1.003714E+0
1.003711E+0
1.003530E+0
1.003304E+0
1.002826E+0
1.001892E+0
1.000994E+0
1.000327E+0
999.656296E-3
999.446297E-3
999.338722E-3
999.446869E-3
999.679756E-3
999.765587E-3
999.920082E-3
999.977875E-3
1.000034E+0
999.930382E-3
999.757004E-3
999.243164E-3
999.299240E-3
999.143600E-3
999.055481E-3
998.843193E-3
998.717308E-3
998.458672E-3
998.097610E-3
997.797203E-3
997.200966E-3
997.211266E-3
996.926880E-3
996.783257E-3
996.490288E-3
996.153831E-3
996.012497E-3
995.665169E-3
995.407104E-3
995.288658E-3
995.046043E-3
994.885826E-3
994.569397E-3
994.457245E-3
994.363403E-3
993.978882E-3
993.802071E-3
993.513107E-3
993.797493E-3
993.346596E-3
993.231583E-3
992.978668E-3
992.814445E-3
992.810440E-3
992.724609E-3
993.414688E-3
992.792702E-3
992.273712E-3
991.972733E-3
991.843987E-3
991.629982E-3
991.650581E-3
991.512108E-3
991.247749E-3
991.323280E-3
991.312408E-3
991.217422E-3
991.082382E-3
990.974808E-3
990.542793E-3
990.140533E-3
989.959145E-3
989.587784E-3
989.402390E-3
989.264488E-3
989.225006E-3
989.371490E-3
989.495087E-3
989.991188E-3
991.349602E-3
993.097687E-3
995.593643E-3
998.343086E-3
1.001080E+0
1.003533E+0
1.005245E+0
1.006598E+0
1.007041E+0
1.007469E+0
1.007229E+0
1.006591E+0
1.006698E+0
1.005513E+0
1.004800E+0
1.004252E+0
1.003849E+0
1.003559E+0
1.003229E+0
1.003174E+0
1.003259E+0
1.003386E+0
1.003607E+0
1.003618E+0
1.003675E+0
1.003558E+0
1.003313E+0
1.002686E+0
1.002292E+0
1.001301E+0
1.000391E+0
999.453163E-3
999.115562E-3
998.964500E-3
998.943901E-3
999.238586E-3
999.315262E-3
999.611092E-3
999.775314E-3
999.810791E-3
999.753571E-3
999.507523E-3
999.283218E-3
999.024010E-3
998.659515E-3
998.447227E-3
998.055267E-3
997.838402E-3
997.515678E-3
997.547722E-3
997.165489E-3
996.780396E-3
996.636200E-3
996.331215E-3
995.553589E-3
995.468330E-3
995.417404E-3
994.543076E-3
994.847488E-3
994.825745E-3
994.828033E-3
994.710159E-3
994.703865E-3
994.413757E-3
994.318199E-3
994.190598E-3
993.843842E-3
993.795204E-3
993.492508E-3
993.198395E-3
993.217278E-3
993.156624E-3
993.091393E-3
992.849350E-3
992.781258E-3
992.801857E-3
992.634773E-3
992.623901E-3
992.458534E-3
992.337227E-3
