Notes :


2023-11-04 ¿ÀÈÄ 6:48:00
Volts
Ch : LED 2,
291.576004E-3
293.918610E-3
296.449471E-3
298.804665E-3
300.973892E-3
302.526283E-3
303.226662E-3
303.349686E-3
302.898216E-3
302.021027E-3
301.113510E-3
299.993706E-3
299.153137E-3
298.419571E-3
297.890854E-3
297.457695E-3
297.316360E-3
297.478294E-3
297.575569E-3
297.791862E-3
297.989845E-3
298.019600E-3
297.948074E-3
297.590446E-3
297.037125E-3
296.184540E-3
295.466423E-3
294.972038E-3
294.768333E-3
294.705963E-3
294.822121E-3
295.361137E-3
295.515633E-3
295.761681E-3
295.939064E-3
295.944786E-3
295.858383E-3
295.741653E-3
295.307350E-3
294.908524E-3
294.404984E-3
294.073677E-3
293.695450E-3
293.241692E-3
292.802811E-3
292.500114E-3
292.196274E-3
291.943932E-3
291.738510E-3
291.557121E-3
291.289902E-3
291.259575E-3
291.247559E-3
291.111374E-3
291.146278E-3
290.986633E-3
290.856171E-3
290.868759E-3
290.706825E-3
290.520287E-3
290.571785E-3
290.496254E-3
290.523148E-3
290.215874E-3
290.254211E-3
290.335464E-3
290.262222E-3
290.206718E-3
290.136909E-3
290.159798E-3
289.956093E-3
289.885139E-3
290.328026E-3
289.873123E-3
289.601326E-3
289.405060E-3
289.228821E-3
289.181328E-3
288.999939E-3
288.924980E-3
288.666916E-3
288.455200E-3
288.355637E-3
288.005447E-3
287.816048E-3
287.718773E-3
287.603188E-3
287.662125E-3
287.654686E-3
287.787437E-3
288.083839E-3
288.927269E-3
290.514565E-3
292.473793E-3
294.814682E-3
297.333527E-3
299.637222E-3
301.642227E-3
302.772331E-3
303.024101E-3
303.007507E-3
302.283669E-3
301.471138E-3
300.312424E-3
299.273300E-3
298.410416E-3
297.823334E-3
297.242546E-3
296.942139E-3
296.789360E-3
296.862030E-3
296.861458E-3
296.978188E-3
297.005081E-3
296.835709E-3
296.761894E-3
295.987701E-3
295.267868E-3
294.665337E-3
294.261360E-3
294.112587E-3
294.154930E-3
294.459915E-3
294.910240E-3
295.547676E-3
295.801735E-3
295.946503E-3
296.099854E-3
295.991707E-3
295.637512E-3
295.209503E-3
294.802094E-3
294.245911E-3
293.702316E-3
293.318367E-3
292.860031E-3
292.373085E-3
292.012024E-3
291.591454E-3
291.212082E-3
291.007805E-3
290.707397E-3
290.468216E-3
290.397835E-3
290.193558E-3
290.234756E-3
290.072250E-3
290.068817E-3
289.849663E-3
289.396477E-3
289.663124E-3
289.548683E-3
289.696884E-3
289.827919E-3
289.828491E-3
289.816475E-3
289.675713E-3
289.663124E-3
289.595604E-3
289.451981E-3
289.374733E-3
289.273453E-3
289.212799E-3
288.977051E-3
289.031410E-3
288.969612E-3
288.764763E-3
288.649750E-3
288.510132E-3
288.379097E-3
288.340759E-3
288.125610E-3
287.874985E-3
287.525940E-3
287.310791E-3
287.016106E-3
286.695099E-3
286.605835E-3
286.510849E-3
286.625862E-3
286.799812E-3
287.050438E-3
287.715340E-3
288.838577E-3
290.604401E-3
292.859459E-3
295.325089E-3
298.062515E-3
300.445747E-3
302.387238E-3
303.520775E-3
303.850365E-3
303.725624E-3
303.064728E-3
302.082253E-3
301.007652E-3
299.989128E-3
298.980904E-3
298.130608E-3
297.555542E-3
297.232246E-3
297.049141E-3
297.112656E-3
297.238541E-3
297.536087E-3
297.783852E-3
297.721481E-3
297.806168E-3
297.469139E-3
296.842575E-3
296.178246E-3
295.545387E-3
295.107651E-3
294.790077E-3
294.768333E-3
294.874763E-3
295.105362E-3
295.361137E-3
295.781708E-3
295.968819E-3
296.102142E-3
295.934486E-3
295.842361E-3
295.578575E-3
295.265579E-3
294.676781E-3
294.068527E-3
293.615913E-3
293.166161E-3
292.682076E-3
292.170525E-3
291.798592E-3
291.620064E-3
291.369438E-3
291.046715E-3
291.086769E-3
290.956306E-3
290.833855E-3
290.727425E-3
290.570641E-3
290.548325E-3
290.446472E-3
290.517426E-3
290.350914E-3
290.238190E-3
290.332031E-3
290.190125E-3
290.281677E-3
290.290260E-3
290.220451E-3
290.214729E-3
290.528870E-3
290.187263E-3
289.936638E-3
289.751244E-3
289.581299E-3
289.529228E-3
289.414215E-3
289.283180E-3
289.161301E-3
289.558411E-3
289.284897E-3
289.032555E-3
288.879204E-3
288.750458E-3
288.656616E-3
288.459206E-3
288.217735E-3
287.853241E-3
287.662125E-3
287.353134E-3
287.087631E-3
286.961746E-3
286.975479E-3
286.813545E-3
286.968040E-3
287.472153E-3
287.860107E-3
288.954735E-3
290.710258E-3
293.000221E-3
295.393753E-3
297.993279E-3
300.216293E-3
302.134895E-3
302.882195E-3
303.620338E-3
303.628922E-3
303.015518E-3
302.154350E-3
301.068878E-3
300.030327E-3
299.181175E-3
298.387527E-3
297.764397E-3
297.613335E-3
297.462273E-3
297.421646E-3
297.427940E-3
297.604752E-3
297.746086E-3
297.764397E-3
297.641945E-3
297.466278E-3
296.754456E-3
296.119881E-3
295.459557E-3
294.958305E-3
294.765472E-3
294.796371E-3
294.953728E-3
295.289040E-3
295.714188E-3
295.939064E-3
295.998573E-3
296.174812E-3
295.929337E-3
295.644379E-3
295.226669E-3
294.807243E-3
294.316292E-3
293.662834E-3
293.432236E-3
293.122101E-3
292.752457E-3
292.482948E-3
292.069817E-3
291.784286E-3
291.647530E-3
291.398048E-3
291.452408E-3
291.139984E-3
290.939713E-3
290.877342E-3
290.730858E-3
290.624428E-3
290.453911E-3
290.575218E-3
290.410423E-3
290.347481E-3
290.360069E-3
290.398407E-3
290.435028E-3
290.459061E-3
290.378380E-3
290.372086E-3
290.415573E-3
290.046501E-3
289.985275E-3
289.795303E-3
289.683151E-3
289.623642E-3
289.504623E-3
289.495468E-3
289.426231E-3
289.377022E-3
289.189339E-3
288.985634E-3
288.921547E-3
288.812256E-3
288.622284E-3
288.584518E-3
288.348770E-3
288.042068E-3
287.797165E-3
287.580872E-3
287.249565E-3
287.104225E-3
287.006378E-3
286.923981E-3
286.992645E-3
287.000656E-3
287.210655E-3
288.010025E-3
288.847733E-3
290.518570E-3
292.755318E-3
295.185471E-3
297.663116E-3
299.898148E-3
301.686287E-3
302.783775E-3
303.111076E-3
302.915955E-3
302.187538E-3
301.313782E-3
300.178528E-3
299.092484E-3
298.078537E-3
297.158432E-3
296.557045E-3
296.209717E-3
296.039200E-3
295.953369E-3
296.083832E-3
296.269226E-3
296.341896E-3
296.304703E-3
296.354485E-3
295.769691E-3
295.221519E-3
294.724274E-3
294.334030E-3
294.165230E-3
294.113731E-3
294.424438E-3
294.705963E-3
295.224953E-3
295.565987E-3
295.791435E-3
295.912170E-3
295.929909E-3
295.633507E-3
295.363426E-3
294.823837E-3
294.421005E-3
293.626785E-3
293.494034E-3
293.218231E-3
292.793655E-3
292.325592E-3
291.727638E-3
291.368866E-3
291.058731E-3
290.875053E-3
290.802383E-3
290.769196E-3
290.642738E-3
290.678215E-3
290.685654E-3
290.587234E-3
290.397835E-3
290.293694E-3
290.289116E-3
290.257645E-3
290.255928E-3
290.225601E-3
290.147209E-3
290.233040E-3
290.093994E-3
290.047073E-3
289.658546E-3
289.789581E-3
289.944649E-3
289.877129E-3
289.875412E-3
289.812469E-3
289.701462E-3
289.566422E-3
289.470291E-3
289.433670E-3
289.232254E-3
289.010239E-3
288.821411E-3
288.547897E-3
288.359642E-3
288.076973E-3
287.735367E-3
287.563705E-3
287.171745E-3
287.114525E-3
287.042427E-3
286.991501E-3
287.001801E-3
287.143135E-3
287.571144E-3
288.458061E-3
289.961243E-3
291.708183E-3
294.229889E-3
296.753311E-3
299.264717E-3
301.312637E-3
302.865028E-3
303.527641E-3
303.610039E-3
303.098488E-3
301.821899E-3
300.909805E-3
299.879837E-3
298.825836E-3
297.980118E-3
297.279739E-3
296.945000E-3
296.732140E-3
296.764755E-3
296.687508E-3
296.785355E-3
296.985626E-3
297.128677E-3
297.199631E-3
296.972466E-3
296.495819E-3
295.927048E-3
295.386887E-3
294.942856E-3
294.653320E-3
294.580078E-3
294.687653E-3
294.970894E-3
295.306206E-3
295.545959E-3
295.447540E-3
295.713615E-3
295.779991E-3
295.608902E-3
295.315361E-3
294.977188E-3
294.622421E-3
294.257927E-3
293.840218E-3
293.453979E-3
293.015671E-3
292.508125E-3
291.990852E-3
291.701889E-3
291.448975E-3
291.269875E-3
291.095924E-3
291.054153E-3
290.872765E-3
290.899086E-3
290.691376E-3
290.652466E-3
290.552330E-3
290.461922E-3
290.476227E-3
290.344048E-3
290.349197E-3
290.203285E-3
290.232468E-3
290.141487E-3
290.145493E-3
290.096283E-3
289.919472E-3
289.870262E-3
289.753532E-3
289.767265E-3
289.774704E-3
289.528656E-3
289.423943E-3
289.274597E-3
289.136696E-3
289.114380E-3
288.996506E-3
288.953590E-3
288.758469E-3
288.551331E-3
288.565636E-3
288.454628E-3
288.278961E-3
288.118172E-3
287.874985E-3
287.594032E-3
287.410927E-3
287.183762E-3
286.990929E-3
286.837006E-3
286.929703E-3
287.063599E-3
287.263298E-3
287.841225E-3
288.848877E-3
290.568352E-3
292.726707E-3
295.247841E-3
297.820473E-3
300.074387E-3
302.027893E-3
303.170586E-3
303.700447E-3
303.576851E-3
303.207207E-3
302.132034E-3
300.929832E-3
299.940491E-3
298.921967E-3
298.195839E-3
297.568130E-3
297.185898E-3
296.971893E-3
296.899796E-3
297.068596E-3
297.221947E-3
297.530365E-3
297.675133E-3
297.672272E-3
297.297478E-3
296.742439E-3
296.159935E-3
295.578575E-3
295.186615E-3
294.885635E-3
294.808388E-3
294.934845E-3
295.372581E-3
295.525932E-3
295.818901E-3
295.988846E-3
296.055222E-3
295.931625E-3
295.710754E-3
295.593452E-3
295.172882E-3
294.753456E-3
294.368935E-3
293.927765E-3
293.429947E-3
293.108940E-3
292.726135E-3
292.279243E-3
292.035484E-3
291.645241E-3
291.462708E-3
291.355705E-3
291.225815E-3
291.254997E-3
291.115952E-3
291.043854E-3
290.994072E-3
291.223526E-3
290.986061E-3
290.844727E-3
290.814972E-3
290.809250E-3
290.765762E-3
290.688515E-3
290.931129E-3
290.699959E-3
290.608406E-3
290.487099E-3
290.448189E-3
290.346909E-3
290.198135E-3
290.136909E-3
289.963531E-3
289.997292E-3
289.858818E-3
289.806175E-3
289.719200E-3
289.506340E-3
289.356995E-3
289.243698E-3
289.073181E-3
288.858032E-3
288.805962E-3
288.666916E-3
288.341331E-3
288.111877E-3
287.979698E-3
287.881851E-3
287.571716E-3
287.335968E-3
287.396049E-3
287.685585E-3
287.796021E-3
287.976837E-3
288.360786E-3
289.358711E-3
291.019821E-3
293.324661E-3
295.739365E-3
298.015022E-3
300.389099E-3
302.145195E-3
303.133965E-3
303.535652E-3
303.119659E-3
302.436447E-3
301.529503E-3
300.363350E-3
299.324226E-3
298.600388E-3
297.703743E-3
296.884918E-3
296.546745E-3
296.386528E-3
296.123886E-3
296.130753E-3
296.294403E-3
296.500969E-3
296.466064E-3
296.292686E-3
296.031761E-3
295.411491E-3
294.930267E-3
294.620132E-3
294.471931E-3
294.836426E-3
294.904518E-3
295.295334E-3
295.798302E-3
296.131325E-3
296.438599E-3
296.583366E-3
296.542168E-3
296.316719E-3
296.042061E-3
295.711899E-3
295.221519E-3
294.772339E-3
294.375229E-3
293.861389E-3
293.507767E-3
293.037415E-3
292.627716E-3
292.002296E-3
291.889000E-3
291.829491E-3
291.760254E-3
291.569138E-3
291.545105E-3
291.390610E-3
291.276169E-3
291.245842E-3
290.820122E-3
290.905952E-3
290.851021E-3
290.903664E-3
290.831566E-3
290.793800E-3
290.880775E-3
290.818977E-3
290.873337E-3
290.597534E-3
290.614128E-3
290.629578E-3
290.547752E-3
290.535164E-3
290.794373E-3
290.667343E-3
290.501404E-3
290.440178E-3
290.247345E-3
290.106583E-3
290.018463E-3
289.869118E-3
289.567566E-3
289.120674E-3
289.044571E-3
288.841438E-3
288.530159E-3
288.254356E-3
288.108444E-3
287.970543E-3
287.866974E-3
287.968826E-3
287.833214E-3
288.436890E-3
289.338684E-3
290.967178E-3
293.078613E-3
295.358849E-3
297.834206E-3
300.262070E-3
302.023315E-3
303.163719E-3
303.647232E-3
303.487587E-3
302.897644E-3
301.989555E-3
300.978470E-3
299.997711E-3
299.194336E-3
298.384094E-3
297.786140E-3
297.565269E-3
297.271729E-3
297.209358E-3
297.264862E-3
297.453117E-3
297.638512E-3
297.655678E-3
297.532654E-3
297.130966E-3
296.642876E-3
296.178246E-3
295.624352E-3
295.285606E-3
295.263863E-3
295.314789E-3
295.530510E-3
295.744514E-3
296.071243E-3
296.416855E-3
296.571922E-3
296.553040E-3
296.328735E-3
296.549606E-3
296.065521E-3
295.448112E-3
295.067596E-3
294.630432E-3
294.323730E-3
294.093132E-3
293.673706E-3
293.324661E-3
292.782784E-3
292.418861E-3
292.149353E-3
291.820335E-3
291.679573E-3
291.433525E-3
291.474724E-3
291.580582E-3
291.487312E-3
291.454124E-3
291.436386E-3
291.360855E-3
291.398048E-3
291.396904E-3
291.178894E-3
291.311646E-3
291.276169E-3
291.252136E-3
291.268158E-3
291.070175E-3
290.998650E-3
290.882492E-3
290.847015E-3
290.802956E-3
290.802383E-3
290.699959E-3
290.596962E-3
290.424728E-3
290.362930E-3
289.598465E-3
289.789581E-3
289.827347E-3
289.839935E-3
289.638519E-3
290.072823E-3
289.526939E-3
289.180183E-3
288.876343E-3
288.614273E-3
288.993645E-3
288.452339E-3
288.224030E-3
288.103867E-3
288.108444E-3
288.233185E-3
288.377380E-3
289.018250E-3
290.154076E-3
291.458702E-3
293.956375E-3
296.558762E-3
299.083328E-3
300.984764E-3
302.915955E-3
304.131317E-3
304.710960E-3
304.620552E-3
303.907013E-3
303.017807E-3
301.990700E-3
300.973892E-3
300.380516E-3
299.414635E-3
298.828125E-3
298.582649E-3
298.507118E-3
298.431015E-3
298.625565E-3
298.837280E-3
299.113083E-3
299.551392E-3
299.237823E-3
298.809242E-3
298.312569E-3
297.629356E-3
296.941566E-3
296.553040E-3
296.312714E-3
296.229172E-3
296.373367E-3
296.617699E-3
296.888351E-3
297.232246E-3
297.261429E-3
297.262573E-3
297.120094E-3
296.894646E-3
296.890068E-3
296.395111E-3
296.067238E-3
295.632935E-3
295.271873E-3
294.090271E-3
294.079399E-3
293.763542E-3
293.397331E-3
293.167305E-3
292.901802E-3
292.714119E-3
292.610550E-3
292.590523E-3
292.547607E-3
292.512131E-3
292.470360E-3
291.934204E-3
292.057800E-3
292.307854E-3
292.303276E-3
292.189980E-3
292.124748E-3
292.209435E-3
292.046356E-3
292.084694E-3
292.009735E-3
291.930199E-3
291.915321E-3
291.859818E-3
291.804314E-3
291.625786E-3
291.620064E-3
291.638374E-3
291.544533E-3
291.376877E-3
291.292763E-3
291.183472E-3
291.091347E-3
290.837288E-3
290.678787E-3
290.460205E-3
290.287971E-3
290.007019E-3
289.875412E-3
289.756966E-3
289.552116E-3
289.246559E-3
289.151573E-3
289.051437E-3
289.126396E-3
289.400482E-3
289.417076E-3
289.746094E-3
290.396118E-3
291.947365E-3
293.906021E-3
296.225166E-3
298.630714E-3
300.957870E-3
302.651596E-3
303.967094E-3
304.705238E-3
304.711533E-3
304.003143E-3
303.084755E-3
302.010155E-3
301.038551E-3
299.948502E-3
298.719406E-3
298.346901E-3
297.984695E-3
297.865105E-3
297.797012E-3
297.888565E-3
298.092842E-3
298.057365E-3
298.224449E-3
298.150635E-3
297.577858E-3
297.068596E-3
296.463776E-3
296.084404E-3
295.872116E-3
295.792580E-3
296.061516E-3
296.626282E-3
297.253990E-3
297.660255E-3
298.135185E-3
298.362350E-3
298.408127E-3
298.159218E-3
297.878838E-3
297.257423E-3
296.666908E-3
296.503258E-3
295.845795E-3
295.319939E-3
294.885635E-3
294.525146E-3
294.210434E-3
293.978119E-3
293.613052E-3
293.463135E-3
293.471146E-3
293.130112E-3
292.964172E-3
292.869186E-3
292.692375E-3
292.628860E-3
292.452621E-3
291.994286E-3
292.206001E-3
292.254639E-3
292.395973E-3
292.439461E-3
292.553902E-3
292.646027E-3
292.670631E-3
292.687798E-3
292.470360E-3
292.545319E-3
292.497826E-3
292.351341E-3
292.254066E-3
292.146492E-3
292.129898E-3
291.915321E-3
291.791153E-3
291.660690E-3
291.464996E-3
291.385460E-3
291.204643E-3
291.030121E-3
290.770340E-3
290.485954E-3
290.303993E-3
290.207291E-3
289.600182E-3
