Notes :


2023-11-10 ¿ÀÈÄ 11:23:53
Volts
Ch : LED 2,
84.877968E-3
84.817314E-3
84.769821E-3
84.499168E-3
84.052849E-3
83.694077E-3
83.248329E-3
82.862091E-3
82.559395E-3
82.291603E-3
82.147980E-3
81.994057E-3
81.986046E-3
82.126236E-3
82.052994E-3
82.268143E-3
82.363129E-3
82.352829E-3
82.284737E-3
82.016945E-3
81.878471E-3
81.552887E-3
81.363487E-3
81.290245E-3
81.152344E-3
81.125450E-3
81.213570E-3
81.314278E-3
81.443024E-3
81.433296E-3
81.605530E-3
81.586075E-3
81.522560E-3
81.647301E-3
81.364632E-3
81.394386E-3
81.287384E-3
81.159210E-3
81.061363E-3
80.787849E-3
80.677986E-3
80.520630E-3
80.364990E-3
80.176163E-3
80.019951E-3
79.970741E-3
79.816246E-3
79.765892E-3
79.759026E-3
79.496384E-3
79.510117E-3
79.429436E-3
79.365921E-3
79.379654E-3
79.199982E-3
79.277802E-3
79.227448E-3
79.167938E-3
79.186249E-3
79.036903E-3
79.046059E-3
79.015160E-3
78.963089E-3
79.048347E-3
78.947067E-3
78.963661E-3
78.921318E-3
78.911018E-3
78.925896E-3
78.768539E-3
78.895569E-3
78.773689E-3
78.725052E-3
78.693581E-3
78.610039E-3
78.713608E-3
78.643799E-3
78.520203E-3
78.510475E-3
78.420639E-3
78.458405E-3
78.380013E-3
78.274727E-3
78.278732E-3
78.175735E-3
78.113365E-3
77.993202E-3
77.941704E-3
78.045273E-3
77.814102E-3
77.778053E-3
77.663612E-3
77.572632E-3
77.619553E-3
77.504539E-3
77.823257E-3
78.010941E-3
78.659821E-3
79.631424E-3
80.670547E-3
81.901360E-3
83.036041E-3
83.856583E-3
84.554100E-3
84.926605E-3
85.038757E-3
84.887123E-3
84.682274E-3
84.334946E-3
83.849716E-3
83.472061E-3
83.131599E-3
82.728195E-3
82.504463E-3
82.194328E-3
82.203484E-3
82.110214E-3
82.133102E-3
82.202911E-3
82.177162E-3
82.263565E-3
82.228088E-3
82.139397E-3
81.963158E-3
81.701660E-3
81.514549E-3
81.351471E-3
81.235313E-3
81.325150E-3
81.213570E-3
81.459618E-3
81.421280E-3
81.567192E-3
81.738853E-3
81.765175E-3
81.820679E-3
81.722832E-3
81.689072E-3
81.654739E-3
81.447029E-3
81.421280E-3
81.312561E-3
81.111717E-3
81.025887E-3
80.779839E-3
80.706024E-3
80.636787E-3
80.519485E-3
80.425644E-3
80.266571E-3
80.207062E-3
80.160713E-3
80.025673E-3
80.070877E-3
79.939270E-3
79.870605E-3
79.983902E-3
79.766464E-3
79.835129E-3
79.670906E-3
79.653168E-3
79.644012E-3
79.456329E-3
79.517555E-3
79.446030E-3
79.467773E-3
79.376221E-3
79.288673E-3
79.362488E-3
79.211998E-3
79.161644E-3
79.088974E-3
79.032898E-3
79.059219E-3
78.822899E-3
78.844643E-3
78.802872E-3
78.833771E-3
78.947067E-3
78.753090E-3
78.741074E-3
78.681564E-3
78.572273E-3
78.607178E-3
78.425217E-3
78.324509E-3
78.246117E-3
78.133965E-3
78.060722E-3
77.927399E-3
77.972603E-3
77.780914E-3
77.707100E-3
77.807808E-3
77.898216E-3
78.307343E-3
78.987694E-3
79.796219E-3
81.017303E-3
81.994629E-3
83.063507E-3
83.980751E-3
84.472847E-3
84.885979E-3
84.872818E-3
84.780121E-3
84.476852E-3
84.156418E-3
83.810806E-3
83.287811E-3
83.110428E-3
82.668686E-3
82.359695E-3
82.269859E-3
82.101059E-3
82.110786E-3
82.176018E-3
82.102776E-3
82.224655E-3
82.249260E-3
82.183456E-3
81.981468E-3
81.761169E-3
81.565475E-3
81.218147E-3
81.097412E-3
80.978966E-3
81.031036E-3
81.221008E-3
81.196404E-3
81.401253E-3
81.516266E-3
81.520844E-3
81.725693E-3
81.640434E-3
81.711960E-3
81.602669E-3
81.431007E-3
81.394386E-3
81.220436E-3
81.077957E-3
80.914879E-3
80.688286E-3
80.618477E-3
80.446815E-3
80.275726E-3
80.237389E-3
80.020523E-3
80.079460E-3
79.885483E-3
79.832268E-3
79.784775E-3
79.705811E-3
79.567337E-3
79.496384E-3
79.484940E-3
79.498100E-3
79.409981E-3
79.417992E-3
79.326439E-3
79.297829E-3
79.290390E-3
79.197121E-3
79.297256E-3
79.171371E-3
79.179382E-3
79.191399E-3
79.056931E-3
79.123306E-3
78.968811E-3
78.884125E-3
78.853226E-3
78.777122E-3
78.873253E-3
78.723907E-3
78.660393E-3
78.655815E-3
78.588867E-3
78.637505E-3
78.440666E-3
78.544807E-3
78.461838E-3
78.373718E-3
78.362274E-3
78.288460E-3
78.198051E-3
78.189468E-3
78.066444E-3
78.095627E-3
77.854729E-3
77.845001E-3
77.784348E-3
77.664757E-3
77.550888E-3
77.477646E-3
77.474785E-3
77.767181E-3
78.002357E-3
78.655815E-3
79.409409E-3
80.552101E-3
81.778336E-3
82.841492E-3
83.908653E-3
84.554672E-3
84.849930E-3
85.098267E-3
85.036469E-3
84.930611E-3
84.584999E-3
84.144974E-3
83.828545E-3
83.334160E-3
83.008575E-3
82.703018E-3
82.541656E-3
82.496452E-3
82.485008E-3
82.565689E-3
82.642937E-3
82.692146E-3
82.838631E-3
82.787704E-3
82.694435E-3
82.614899E-3
82.410049E-3
82.075882E-3
81.760597E-3
81.640434E-3
81.535149E-3
81.584358E-3
81.656456E-3
81.606674E-3
81.807518E-3
81.879044E-3
81.964874E-3
81.995773E-3
81.945419E-3
82.041550E-3
81.964874E-3
81.908798E-3
81.802940E-3
81.614113E-3
81.573486E-3
81.349182E-3
81.171799E-3
81.089401E-3
80.875397E-3
80.786133E-3
80.601883E-3
80.665970E-3
80.564690E-3
80.374146E-3
80.350113E-3
80.326653E-3
80.299759E-3
80.263710E-3
80.120659E-3
80.104065E-3
80.062866E-3
79.930115E-3
79.801941E-3
79.730988E-3
79.793358E-3
79.725266E-3
79.770470E-3
79.839134E-3
79.643440E-3
79.689217E-3
79.643440E-3
79.601097E-3
79.581642E-3
79.506683E-3
79.470634E-3
79.353333E-3
79.316711E-3
79.343605E-3
79.184532E-3
79.240036E-3
79.241180E-3
79.204559E-3
79.185677E-3
79.028893E-3
79.018593E-3
78.955650E-3
78.979111E-3
78.951073E-3
78.796005E-3
78.897858E-3
78.857231E-3
78.714752E-3
78.779411E-3
78.584862E-3
78.442383E-3
78.472710E-3
78.303909E-3
78.277016E-3
78.113937E-3
78.143120E-3
78.052139E-3
78.060150E-3
78.108788E-3
78.127670E-3
78.539085E-3
79.169655E-3
80.075455E-3
81.139183E-3
82.226944E-3
83.310127E-3
84.310341E-3
84.906006E-3
85.267639E-3
85.383797E-3
85.328293E-3
85.073090E-3
84.738922E-3
84.396744E-3
83.942413E-3
83.605957E-3
83.292389E-3
83.024025E-3
82.938766E-3
82.726479E-3
82.790565E-3
82.839775E-3
82.890129E-3
83.005142E-3
83.029175E-3
83.026314E-3
83.057213E-3
82.673836E-3
82.458687E-3
82.129669E-3
82.089043E-3
81.926537E-3
81.877327E-3
82.002640E-3
81.979752E-3
82.177162E-3
82.345963E-3
82.360268E-3
82.482719E-3
82.430649E-3
82.474709E-3
82.390594E-3
82.149124E-3
82.095909E-3
81.944275E-3
81.852150E-3
81.749153E-3
81.529427E-3
81.465912E-3
81.281662E-3
81.262207E-3
81.040192E-3
80.904007E-3
80.986977E-3
80.804443E-3
80.847931E-3
80.724335E-3
80.570984E-3
80.667114E-3
80.494881E-3
80.423927E-3
80.420494E-3
80.318069E-3
80.355263E-3
80.217361E-3
80.207062E-3
80.126953E-3
79.977036E-3
80.031967E-3
80.045128E-3
80.080605E-3
79.957581E-3
79.861450E-3
79.976463E-3
79.800224E-3
79.845428E-3
79.703522E-3
79.674339E-3
79.728127E-3
79.531288E-3
79.594231E-3
79.483795E-3
79.392242E-3
79.430008E-3
79.361916E-3
79.411125E-3
79.431152E-3
79.176521E-3
79.231453E-3
79.114151E-3
79.064369E-3
78.978539E-3
78.816605E-3
78.781700E-3
78.636932E-3
78.605461E-3
78.655815E-3
78.405762E-3
78.385735E-3
78.240967E-3
78.357124E-3
78.584290E-3
78.971100E-3
79.831123E-3
80.757523E-3
81.859016E-3
82.960510E-3
83.870316E-3
84.659386E-3
85.141754E-3
85.406685E-3
85.350037E-3
85.170937E-3
84.899139E-3
84.443665E-3
84.108925E-3
83.737564E-3
83.338737E-3
83.173943E-3
82.901573E-3
82.887840E-3
82.917595E-3
82.776260E-3
82.886696E-3
82.940483E-3
83.001709E-3
82.991409E-3
82.871819E-3
82.747078E-3
82.344246E-3
81.979179E-3
81.892204E-3
81.650162E-3
81.753159E-3
81.722832E-3
81.817818E-3
81.908226E-3
81.954575E-3
82.141685E-3
81.923103E-3
82.171440E-3
82.194901E-3
82.189751E-3
82.176018E-3
82.008362E-3
81.889915E-3
81.855011E-3
81.587219E-3
81.543732E-3
81.227875E-3
81.095123E-3
80.924034E-3
80.804443E-3
80.790710E-3
80.610466E-3
80.601311E-3
80.414772E-3
80.440521E-3
80.427933E-3
80.206490E-3
80.148125E-3
80.108070E-3
79.965019E-3
80.072594E-3
79.825974E-3
79.771614E-3
79.734993E-3
79.674339E-3
79.707527E-3
79.641724E-3
79.594231E-3
79.567909E-3
79.428291E-3
79.431725E-3
79.269218E-3
79.301262E-3
79.344177E-3
79.248047E-3
79.295540E-3
79.168510E-3
79.076385E-3
79.040909E-3
78.915024E-3
78.975677E-3
78.795433E-3
78.941345E-3
78.842354E-3
78.718185E-3
78.826904E-3
78.699875E-3
78.631783E-3
78.693008E-3
78.597450E-3
78.560257E-3
78.422928E-3
78.374863E-3
78.395462E-3
78.232384E-3
78.236961E-3
78.097343E-3
78.097916E-3
77.901077E-3
77.854729E-3
77.842712E-3
77.730560E-3
77.751160E-3
77.891922E-3
78.064728E-3
78.549385E-3
79.363060E-3
80.478287E-3
81.623840E-3
82.725906E-3
83.828545E-3
84.570694E-3
85.000420E-3
85.263634E-3
85.213852E-3
85.105705E-3
84.810448E-3
84.424782E-3
84.150124E-3
83.669472E-3
83.382797E-3
83.081818E-3
82.949638E-3
82.962799E-3
82.980537E-3
83.105850E-3
83.028603E-3
83.106995E-3
83.325577E-3
83.298111E-3
83.324432E-3
83.111572E-3
82.847214E-3
82.594299E-3
82.349968E-3
82.169151E-3
81.991768E-3
82.012939E-3
82.034683E-3
81.977463E-3
82.125664E-3
82.159424E-3
82.185173E-3
82.295036E-3
82.304192E-3
82.424927E-3
82.347679E-3
82.330513E-3
82.266998E-3
82.081604E-3
81.923103E-3
81.724548E-3
81.667900E-3
81.555748E-3
81.298828E-3
81.269646E-3
81.047058E-3
81.009865E-3
81.008148E-3
80.867386E-3
80.875969E-3
80.735779E-3
80.665970E-3
80.612755E-3
80.524063E-3
80.578995E-3
80.426788E-3
80.355835E-3
80.407906E-3
80.232239E-3
80.267143E-3
80.125237E-3
80.154991E-3
80.158997E-3
80.081749E-3
80.061150E-3
79.864311E-3
79.947853E-3
79.924965E-3
79.847717E-3
79.876900E-3
79.788780E-3
79.714966E-3
79.722977E-3
79.625130E-3
79.622269E-3
79.541016E-3
79.553604E-3
79.577065E-3
79.377937E-3
79.372787E-3
79.319000E-3
79.207420E-3
79.222870E-3
78.958511E-3
79.131889E-3
79.061508E-3
79.050636E-3
79.030037E-3
78.885269E-3
79.019165E-3
78.891563E-3
78.824043E-3
78.977966E-3
78.660965E-3
78.626633E-3
78.480148E-3
78.460121E-3
78.463554E-3
78.325081E-3
78.352547E-3
78.500748E-3
78.804016E-3
79.415131E-3
80.214500E-3
81.379509E-3
82.442093E-3
83.516121E-3
84.467697E-3
84.860802E-3
85.348320E-3
85.383224E-3
85.338020E-3
85.189247E-3
84.782410E-3
84.365845E-3
83.969307E-3
83.581924E-3
83.464622E-3
83.073235E-3
82.946777E-3
82.823181E-3
82.775688E-3
82.934761E-3
82.914162E-3
83.004570E-3
82.981682E-3
83.057785E-3
82.862663E-3
82.559967E-3
82.405472E-3
82.164574E-3
81.992912E-3
81.967735E-3
81.905365E-3
81.939125E-3
82.047272E-3
82.142830E-3
82.347107E-3
82.372856E-3
82.416344E-3
82.383156E-3
82.406044E-3
82.341957E-3
82.142830E-3
82.149696E-3
82.020950E-3
81.770325E-3
81.663322E-3
81.384087E-3
81.320572E-3
81.197548E-3
81.081963E-3
81.048203E-3
80.830193E-3
80.843925E-3
80.707741E-3
80.619621E-3
80.515480E-3
80.341530E-3
80.336380E-3
80.249977E-3
80.137825E-3
80.216217E-3
80.063438E-3
80.034256E-3
79.970169E-3
79.921532E-3
79.914093E-3
79.740143E-3
79.738426E-3
79.708672E-3
79.650879E-3
79.641724E-3
79.558754E-3
79.567337E-3
79.435730E-3
79.364204E-3
79.321289E-3
79.095840E-3
79.227448E-3
79.091835E-3
79.088402E-3
79.154205E-3
79.033470E-3
79.061508E-3
78.992271E-3
78.948784E-3
78.883553E-3
78.751945E-3
78.755379E-3
78.777122E-3
78.660965E-3
78.790855E-3
78.668404E-3
78.625488E-3
78.475571E-3
78.420639E-3
78.379440E-3
78.066444E-3
78.111076E-3
77.978897E-3
77.924538E-3
77.901649E-3
77.869606E-3
78.166580E-3
78.481293E-3
79.326439E-3
80.374146E-3
81.477928E-3
82.716179E-3
83.628273E-3
84.379005E-3
84.863663E-3
85.057640E-3
85.090828E-3
84.964371E-3
84.617615E-3
84.386444E-3
83.898926E-3
83.544731E-3
83.224869E-3
82.930183E-3
82.887840E-3
82.762527E-3
82.745361E-3
82.729912E-3
82.748795E-3
82.909584E-3
82.847786E-3
82.983971E-3
82.927322E-3
82.745934E-3
82.620621E-3
82.272148E-3
82.020950E-3
81.810951E-3
81.599808E-3
81.611824E-3
81.650162E-3
81.956863E-3
81.873322E-3
81.846428E-3
82.036400E-3
82.038116E-3
81.995773E-3
82.033539E-3
81.948853E-3
81.982040E-3
81.830406E-3
81.754875E-3
81.604385E-3
81.421852E-3
81.297112E-3
81.044769E-3
81.013870E-3
80.849648E-3
80.698013E-3
80.546951E-3
80.431938E-3
80.482292E-3
80.474281E-3
80.276299E-3
80.330086E-3
80.124092E-3
80.085754E-3
80.025673E-3
80.025673E-3
79.951286E-3
79.807091E-3
79.772758E-3
79.701805E-3
79.619408E-3
79.678345E-3
79.515839E-3
79.527855E-3
79.495239E-3
79.440308E-3
79.476357E-3
79.375648E-3
79.356194E-3
79.285812E-3
79.225159E-3
79.238319E-3
79.129028E-3
79.219437E-3
79.086685E-3
78.959656E-3
78.944206E-3
78.828621E-3
78.850937E-3
78.770256E-3
78.655815E-3
78.638649E-3
78.557396E-3
78.528214E-3
78.574562E-3
78.519630E-3
78.532791E-3
78.472710E-3
78.456116E-3
78.422356E-3
78.247833E-3
78.341675E-3
78.060150E-3
78.064728E-3
78.050995E-3
77.883911E-3
77.911949E-3
77.701950E-3
77.842140E-3
77.870178E-3
77.831268E-3
78.151703E-3
78.551102E-3
79.417419E-3
80.482292E-3
81.650734E-3
82.840919E-3
83.751297E-3
84.547806E-3
84.939766E-3
85.082817E-3
85.175514E-3
84.974670E-3
84.727478E-3
84.346390E-3
83.923531E-3
83.578491E-3
83.268356E-3
83.055496E-3
82.828903E-3
82.705879E-3
82.826042E-3
82.771111E-3
82.867813E-3
83.013153E-3
83.044624E-3
83.132744E-3
83.009148E-3
82.948494E-3
82.696724E-3
82.323647E-3
82.228088E-3
81.953430E-3
81.894493E-3
81.813812E-3
81.793213E-3
81.921387E-3
81.913948E-3
82.052422E-3
82.201195E-3
82.097626E-3
82.247543E-3
82.214928E-3
82.259560E-3
82.099342E-3
81.937981E-3
81.904793E-3
81.709671E-3
81.622696E-3
81.509399E-3
81.198120E-3
81.213570E-3
81.055641E-3
81.038475E-3
80.961227E-3
80.825043E-3
80.779839E-3
80.635071E-3
80.588722E-3
80.411339E-3
80.420494E-3
80.432510E-3
80.323792E-3
80.320358E-3
80.261421E-3
80.216789E-3
80.309486E-3
80.147552E-3
80.088043E-3
80.041122E-3
79.926109E-3
80.129814E-3
79.853439E-3
79.991913E-3
79.879761E-3
79.787636E-3
79.829407E-3
79.738998E-3
79.680061E-3
79.698944E-3
79.646873E-3
79.633713E-3
79.539871E-3
79.523277E-3
79.415131E-3
79.381371E-3
79.399681E-3
79.273796E-3
79.246330E-3
79.217720E-3
79.175949E-3
79.191399E-3
79.068375E-3
79.060936E-3
79.051781E-3
78.934479E-3
