Notes :


2023-11-10 ¿ÀÈÄ 11:15:04
Volts
Ch : LED 2,
61.911392E-3
62.781143E-3
63.449478E-3
63.904953E-3
64.237976E-3
64.271164E-3
64.105225E-3
63.966751E-3
63.629150E-3
63.206863E-3
63.055801E-3
62.703896E-3
62.569427E-3
62.191772E-3
62.184906E-3
62.306213E-3
62.322807E-3
62.400055E-3
62.391472E-3
62.345695E-3
62.463570E-3
62.239265E-3
62.131691E-3
61.859894E-3
61.588669E-3
61.567497E-3
61.438179E-3
61.445045E-3
61.435890E-3
61.488533E-3
61.633873E-3
61.583519E-3
61.705971E-3
61.734009E-3
61.637878E-3
61.767769E-3
61.525154E-3
61.505127E-3
61.519432E-3
61.190987E-3
61.138344E-3
60.876274E-3
60.827637E-3
60.663986E-3
60.495758E-3
60.477448E-3
60.329819E-3
60.332680E-3
60.201645E-3
60.033989E-3
60.139847E-3
60.018539E-3
60.003090E-3
60.031700E-3
59.878349E-3
59.918404E-3
59.961319E-3
59.861183E-3
59.845161E-3
59.785652E-3
59.759331E-3
59.666061E-3
59.728432E-3
59.766197E-3
59.656906E-3
59.583664E-3
59.565926E-3
59.639740E-3
59.571075E-3
59.501839E-3
59.529305E-3
59.361076E-3
59.406853E-3
59.381104E-3
59.163666E-3
59.274101E-3
59.109879E-3
59.123039E-3
59.114456E-3
59.004021E-3
59.095001E-3
59.036064E-3
59.017181E-3
59.036064E-3
58.860970E-3
58.945656E-3
58.786011E-3
58.756828E-3
58.777428E-3
58.605194E-3
58.592606E-3
58.469582E-3
58.428383E-3
58.415222E-3
58.361435E-3
58.349419E-3
58.256721E-3
58.396339E-3
58.557701E-3
58.798599E-3
59.432030E-3
60.038567E-3
61.035347E-3
62.049294E-3
62.781715E-3
63.525581E-3
63.868904E-3
64.135551E-3
64.168739E-3
63.913536E-3
63.768768E-3
63.403702E-3
63.098145E-3
62.821198E-3
62.493324E-3
62.412643E-3
62.234116E-3
62.068748E-3
62.100220E-3
62.074471E-3
62.133408E-3
62.174606E-3
62.158585E-3
62.124252E-3
61.900520E-3
61.853027E-3
61.535454E-3
61.407852E-3
61.331177E-3
61.208153E-3
61.348915E-3
61.359787E-3
61.509705E-3
61.637306E-3
61.708260E-3
61.679649E-3
61.727715E-3
61.791229E-3
61.791229E-3
61.660194E-3
61.581230E-3
61.447334E-3
61.353493E-3
61.102867E-3
60.805893E-3
60.823631E-3
60.599899E-3
60.543251E-3
60.451698E-3
60.315514E-3
60.314369E-3
60.212517E-3
60.132980E-3
60.147858E-3
60.090065E-3
60.136986E-3
60.001373E-3
59.995079E-3
59.951591E-3
59.879494E-3
59.965897E-3
59.826279E-3
59.802246E-3
59.873199E-3
59.715843E-3
59.769058E-3
59.678650E-3
59.668922E-3
59.715843E-3
59.578514E-3
59.626579E-3
59.549904E-3
59.550476E-3
59.557915E-3
59.338188E-3
59.390259E-3
59.270096E-3
59.275818E-3
59.276390E-3
59.119606E-3
59.149933E-3
59.050941E-3
59.004593E-3
58.987999E-3
58.902740E-3
58.814621E-3
58.760834E-3
58.667564E-3
58.710480E-3
58.678436E-3
58.714485E-3
58.514214E-3
58.407784E-3
58.405495E-3
58.309364E-3
58.358574E-3
58.349419E-3
58.396339E-3
58.768272E-3
59.210014E-3
60.042572E-3
60.829353E-3
61.710548E-3
62.535667E-3
63.151360E-3
63.796806E-3
63.876915E-3
63.846016E-3
63.854599E-3
63.563347E-3
63.433456E-3
63.006592E-3
62.713623E-3
62.501335E-3
62.184334E-3
62.062454E-3
62.051010E-3
61.897659E-3
61.901093E-3
61.851311E-3
61.922836E-3
61.944008E-3
61.824989E-3
61.817551E-3
61.501122E-3
61.335754E-3
61.172104E-3
61.096573E-3
61.065102E-3
60.946083E-3
61.128044E-3
61.151505E-3
61.162949E-3
61.396408E-3
61.446762E-3
61.529732E-3
61.540604E-3
61.424446E-3
61.347771E-3
61.213303E-3
61.113167E-3
60.971260E-3
60.725212E-3
60.796165E-3
60.480881E-3
60.338974E-3
60.260010E-3
60.055733E-3
60.048866E-3
59.877777E-3
59.911537E-3
59.823990E-3
59.696960E-3
59.743881E-3
59.716415E-3
59.677505E-3
59.549904E-3
59.548187E-3
59.695816E-3
59.615135E-3
59.690094E-3
59.506416E-3
59.461212E-3
59.440041E-3
59.353065E-3
59.376526E-3
59.280396E-3
59.258080E-3
59.344482E-3
59.145927E-3
59.130478E-3
59.108734E-3
59.016609E-3
59.064102E-3
58.901596E-3
58.965683E-3
58.859253E-3
58.773422E-3
58.762550E-3
58.683586E-3
58.674431E-3
58.590889E-3
58.586884E-3
58.638382E-3
58.465576E-3
58.530807E-3
58.419800E-3
58.397484E-3
58.341408E-3
58.228111E-3
58.233833E-3
58.169746E-3
58.114815E-3
58.062744E-3
57.901955E-3
57.948303E-3
57.878494E-3
57.937431E-3
58.107376E-3
58.499336E-3
59.148216E-3
59.952736E-3
60.831070E-3
61.815262E-3
62.618065E-3
63.353348E-3
63.755608E-3
63.969612E-3
63.981628E-3
63.799667E-3
63.678932E-3
63.404274E-3
63.084984E-3
62.753105E-3
62.453842E-3
62.343979E-3
62.300491E-3
62.284470E-3
62.267303E-3
62.178612E-3
62.244987E-3
62.428665E-3
62.317085E-3
62.324524E-3
62.085915E-3
62.076759E-3
61.902809E-3
61.666489E-3
61.487389E-3
61.483955E-3
61.447334E-3
61.455917E-3
61.433029E-3
61.544037E-3
61.541748E-3
61.688232E-3
61.674500E-3
61.612701E-3
61.568642E-3
61.465645E-3
61.520004E-3
61.367798E-3
61.205864E-3
61.030769E-3
60.854530E-3
60.797882E-3
60.610771E-3
60.397911E-3
60.349846E-3
60.200500E-3
60.184479E-3
60.108376E-3
60.006523E-3
59.980774E-3
59.806824E-3
59.949875E-3
59.904099E-3
59.788513E-3
59.880066E-3
59.758186E-3
59.806252E-3
59.801674E-3
59.687805E-3
59.753036E-3
59.674072E-3
59.821129E-3
59.733582E-3
59.588814E-3
59.656906E-3
59.527588E-3
59.568787E-3
59.560776E-3
59.403419E-3
59.412575E-3
59.473228E-3
59.391403E-3
59.334183E-3
59.216309E-3
59.189415E-3
59.155083E-3
59.152222E-3
59.044075E-3
58.926201E-3
59.090996E-3
58.907890E-3
58.898163E-3
58.815765E-3
58.813477E-3
58.806610E-3
58.642387E-3
58.629227E-3
58.581734E-3
58.456421E-3
58.428955E-3
58.319664E-3
58.371162E-3
58.310509E-3
58.176613E-3
58.213806E-3
58.213806E-3
58.577728E-3
58.875275E-3
59.573936E-3
60.488892E-3
61.281395E-3
62.231255E-3
62.930489E-3
63.466644E-3
63.931847E-3
63.963318E-3
63.819122E-3
63.697243E-3
63.435745E-3
63.194847E-3
62.809753E-3
62.546539E-3
62.297058E-3
62.111664E-3
62.047005E-3
62.004089E-3
61.972618E-3
61.991501E-3
61.938858E-3
62.086487E-3
61.958885E-3
61.918831E-3
61.687660E-3
61.466789E-3
61.442757E-3
61.242485E-3
61.181259E-3
61.287117E-3
61.213875E-3
61.384392E-3
61.387825E-3
61.553192E-3
61.632729E-3
61.572647E-3
61.713982E-3
61.578941E-3
61.632156E-3
61.486816E-3
61.292267E-3
61.219025E-3
61.089706E-3
60.923767E-3
60.740662E-3
60.490036E-3
60.498619E-3
60.324669E-3
60.211372E-3
60.129547E-3
59.963608E-3
60.039711E-3
59.882355E-3
59.893799E-3
59.906960E-3
59.782219E-3
59.926414E-3
59.747314E-3
59.743881E-3
59.750748E-3
59.793091E-3
59.716415E-3
59.559059E-3
59.576797E-3
59.619713E-3
59.595680E-3
59.580803E-3
59.490967E-3
59.528732E-3
59.512138E-3
59.358215E-3
59.412003E-3
59.327888E-3
59.292984E-3
59.250641E-3
59.131622E-3
59.152222E-3
59.034920E-3
59.009743E-3
58.947945E-3
58.890152E-3
58.986282E-3
58.842659E-3
58.823776E-3
58.706474E-3
58.574867E-3
58.743668E-3
58.458710E-3
58.438683E-3
58.501625E-3
58.275604E-3
58.313942E-3
58.148575E-3
58.180618E-3
58.213806E-3
58.114243E-3
58.440399E-3
58.714485E-3
59.380531E-3
60.080910E-3
60.947800E-3
61.850739E-3
62.496758E-3
63.210869E-3
63.573647E-3
63.873482E-3
63.808250E-3
63.553047E-3
63.375092E-3
63.101006E-3
62.730789E-3
62.548256E-3
62.214088E-3
62.071609E-3
62.051582E-3
61.837578E-3
61.836433E-3
61.759186E-3
61.818123E-3
61.854172E-3
61.784935E-3
61.802673E-3
61.666489E-3
61.371803E-3
61.239624E-3
61.086845E-3
61.124039E-3
60.956955E-3
61.036491E-3
61.106873E-3
61.118317E-3
61.309433E-3
61.297989E-3
61.364937E-3
61.475945E-3
61.379242E-3
61.366081E-3
61.228752E-3
61.099434E-3
60.954094E-3
60.879135E-3
60.780716E-3
60.533524E-3
60.426521E-3
60.274887E-3
60.124969E-3
60.172462E-3
60.017967E-3
59.821129E-3
59.797096E-3
59.733582E-3
59.745598E-3
59.630585E-3
59.561348E-3
59.653473E-3
59.608841E-3
59.543610E-3
59.487534E-3
59.488678E-3
59.470367E-3
59.435463E-3
59.397125E-3
59.299850E-3
59.299850E-3
59.395981E-3
59.230614E-3
59.294701E-3
59.206009E-3
59.171104E-3
59.112167E-3
59.091568E-3
59.089279E-3
59.009171E-3
58.864975E-3
58.934784E-3
58.778000E-3
58.811760E-3
58.739662E-3
58.701897E-3
58.690453E-3
58.569145E-3
58.626366E-3
58.534241E-3
58.504486E-3
58.580017E-3
58.410645E-3
58.390617E-3
58.310509E-3
58.216667E-3
58.201218E-3
58.143425E-3
58.143425E-3
58.013535E-3
57.927704E-3
57.974052E-3
57.929420E-3
57.999229E-3
58.058739E-3
58.430672E-3
59.012604E-3
59.696960E-3
60.655975E-3
61.609268E-3
62.422371E-3
63.149071E-3
63.565636E-3
63.932991E-3
63.927841E-3
63.819122E-3
63.793373E-3
63.349342E-3
63.067818E-3
62.887001E-3
62.598038E-3
62.439537E-3
62.248993E-3
62.246132E-3
62.162590E-3
62.135124E-3
62.211227E-3
62.368011E-3
62.399483E-3
62.379456E-3
62.277031E-3
62.167740E-3
61.883354E-3
61.738014E-3
61.522293E-3
61.368370E-3
61.501694E-3
61.316299E-3
61.388969E-3
61.443329E-3
61.506844E-3
61.625290E-3
61.548615E-3
61.647606E-3
61.626434E-3
61.660194E-3
61.606979E-3
61.343765E-3
61.299133E-3
61.066246E-3
60.915756E-3
60.864830E-3
60.581017E-3
60.606766E-3
60.439110E-3
60.332108E-3
60.332108E-3
60.186768E-3
60.193062E-3
60.063744E-3
60.014534E-3
60.181046E-3
59.957886E-3
59.934998E-3
59.855461E-3
59.794807E-3
59.850311E-3
59.762764E-3
59.844017E-3
59.747314E-3
59.850883E-3
59.760475E-3
59.674644E-3
59.647179E-3
59.667206E-3
59.564209E-3
59.607124E-3
59.483528E-3
59.619141E-3
59.426880E-3
59.370804E-3
59.375954E-3
59.208298E-3
59.246063E-3
59.188271E-3
59.139633E-3
59.157372E-3
58.941650E-3
59.120750E-3
58.985710E-3
58.906746E-3
58.973122E-3
58.903313E-3
58.868408E-3
58.725929E-3
58.704758E-3
58.744240E-3
58.492470E-3
58.587456E-3
58.450127E-3
58.406639E-3
58.368874E-3
58.230972E-3
58.216667E-3
58.146286E-3
58.177757E-3
58.324242E-3
58.366013E-3
58.840370E-3
59.491539E-3
60.235977E-3
61.160088E-3
62.007523E-3
62.892723E-3
63.417435E-3
63.777351E-3
63.985634E-3
63.858604E-3
63.796806E-3
63.549614E-3
63.175964E-3
62.924767E-3
62.571144E-3
62.444115E-3
62.321663E-3
62.114525E-3
62.079048E-3
62.017822E-3
62.108803E-3
62.134552E-3
62.100220E-3
62.120247E-3
61.977196E-3
61.884499E-3
61.691666E-3
61.502266E-3
61.344910E-3
61.155510E-3
61.215591E-3
61.265945E-3
61.355209E-3
61.401558E-3
61.430168E-3
61.625290E-3
61.647606E-3
61.623001E-3
61.652184E-3
61.548615E-3
61.544609E-3
61.401558E-3
61.267090E-3
61.183548E-3
60.940933E-3
60.935211E-3
60.686874E-3
60.589027E-3
60.560989E-3
60.332680E-3
60.396194E-3
60.284042E-3
60.144997E-3
60.096931E-3
60.024834E-3
60.046005E-3
59.992218E-3
59.818840E-3
59.892082E-3
59.754181E-3
59.830856E-3
59.817696E-3
59.751892E-3
59.803963E-3
59.703827E-3
59.745598E-3
59.723854E-3
59.569359E-3
59.695816E-3
59.481239E-3
59.576225E-3
59.485245E-3
59.480667E-3
59.450340E-3
59.306717E-3
59.351349E-3
59.215736E-3
59.137917E-3
59.159088E-3
59.074402E-3
59.053230E-3
59.006882E-3
58.894730E-3
58.856392E-3
58.821487E-3
58.879852E-3
58.839798E-3
58.745384E-3
58.662415E-3
58.512497E-3
58.620644E-3
58.550262E-3
58.356857E-3
58.337975E-3
58.223534E-3
58.250427E-3
58.230400E-3
58.148003E-3
58.415222E-3
58.670425E-3
59.247208E-3
60.048866E-3
60.859108E-3
61.684227E-3
62.286186E-3
63.068390E-3
63.595963E-3
63.678932E-3
63.741302E-3
63.621712E-3
63.398552E-3
63.145638E-3
62.800598E-3
62.583733E-3
62.180328E-3
62.056160E-3
61.945724E-3
61.720848E-3
61.830139E-3
61.738586E-3
61.810684E-3
61.848450E-3
61.697960E-3
61.762619E-3
61.508560E-3
61.473083E-3
61.259079E-3
61.049080E-3
61.083984E-3
60.918617E-3
61.057663E-3
61.223030E-3
61.191559E-3
61.333466E-3
61.285973E-3
61.406136E-3
61.381531E-3
61.347198E-3
61.437607E-3
61.275101E-3
61.215591E-3
61.090851E-3
60.892868E-3
60.772133E-3
60.568428E-3
60.469437E-3
60.331535E-3
59.999657E-3
60.081482E-3
59.882355E-3
59.908104E-3
59.897804E-3
59.730148E-3
59.824562E-3
59.668350E-3
59.661484E-3
59.604263E-3
59.509277E-3
59.638596E-3
59.537888E-3
59.591103E-3
59.503555E-3
59.400558E-3
59.453201E-3
59.329605E-3
59.286118E-3
59.290123E-3
59.196281E-3
59.306145E-3
59.206581E-3
59.162521E-3
59.192848E-3
59.044075E-3
59.093857E-3
59.043503E-3
59.020042E-3
59.029770E-3
58.803749E-3
58.842659E-3
58.725357E-3
58.700752E-3
58.661842E-3
58.606911E-3
58.669281E-3
58.535957E-3
58.547974E-3
58.541679E-3
58.409500E-3
58.480453E-3
58.366013E-3
58.268166E-3
58.237839E-3
58.185768E-3
58.219528E-3
58.023834E-3
58.014107E-3
58.010101E-3
57.929420E-3
58.038139E-3
58.121681E-3
58.531952E-3
59.270668E-3
60.019684E-3
60.917473E-3
61.819267E-3
62.638092E-3
63.223457E-3
63.601685E-3
63.829994E-3
63.778496E-3
63.854027E-3
63.545609E-3
63.224602E-3
62.933922E-3
62.645531E-3
62.471008E-3
62.321091E-3
62.116814E-3
62.129402E-3
62.126541E-3
62.155724E-3
62.224960E-3
62.223816E-3
62.362289E-3
62.326813E-3
62.257004E-3
62.066460E-3
61.782074E-3
61.591530E-3
61.376953E-3
61.350060E-3
61.355782E-3
61.276817E-3
61.451340E-3
61.489677E-3
61.483955E-3
61.655045E-3
61.680794E-3
61.628723E-3
61.625290E-3
61.538315E-3
61.482239E-3
61.344910E-3
61.287117E-3
61.308861E-3
61.005020E-3
60.812187E-3
60.584450E-3
60.534668E-3
60.343552E-3
60.243988E-3
60.240555E-3
60.134697E-3
60.282326E-3
60.098648E-3
60.022545E-3
59.950447E-3
59.830284E-3
59.888077E-3
59.834862E-3
59.727859E-3
59.821129E-3
59.826851E-3
59.811974E-3
59.667206E-3
59.674644E-3
59.739876E-3
59.604263E-3
59.687233E-3
59.523010E-3
59.576797E-3
59.658623E-3
59.480095E-3
59.464073E-3
59.311295E-3
59.241486E-3
59.250069E-3
59.182549E-3
59.216881E-3
59.116173E-3
59.103584E-3
59.099579E-3
58.941650E-3
58.993149E-3
58.983994E-3
58.855247E-3
58.886147E-3
58.742523E-3
58.780861E-3
58.620071E-3
58.644676E-3
58.672142E-3
58.538818E-3
58.540535E-3
58.427811E-3
58.415794E-3
58.398056E-3
58.253860E-3
58.362579E-3
58.240128E-3
58.250999E-3
58.366013E-3
58.465576E-3
58.859825E-3
59.462357E-3
60.221100E-3
61.115456E-3
61.982918E-3
62.680435E-3
63.214874E-3
63.709831E-3
63.903236E-3
63.814545E-3
63.807678E-3
63.485527E-3
63.230324E-3
63.026619E-3
62.596321E-3
62.426376E-3
62.136841E-3
61.963463E-3
