Notes :


2023-11-10 ¿ÀÈÄ 10:27:08
Volts
Ch : LED 2,
238.889694E-3
237.789917E-3
236.557388E-3
235.327721E-3
234.171867E-3
233.142471E-3
232.367706E-3
231.946564E-3
231.714249E-3
231.799507E-3
231.875038E-3
232.039261E-3
232.148552E-3
232.241249E-3
232.089615E-3
231.702805E-3
231.221581E-3
230.529213E-3
230.037117E-3
229.587364E-3
229.268646E-3
229.281807E-3
229.331589E-3
229.478073E-3
229.836845E-3
229.996490E-3
230.112076E-3
230.131531E-3
230.046272E-3
229.886055E-3
229.496384E-3
229.217148E-3
228.828621E-3
228.484154E-3
228.250694E-3
227.838135E-3
227.616119E-3
227.345467E-3
227.099991E-3
226.954079E-3
226.607895E-3
226.364708E-3
226.084900E-3
225.947571E-3
225.824547E-3
225.710106E-3
225.752449E-3
225.572777E-3
225.623131E-3
225.660324E-3
225.567055E-3
225.577927E-3
225.350189E-3
225.341606E-3
225.265503E-3
225.173950E-3
225.271797E-3
225.226593E-3
225.220871E-3
225.397110E-3
225.345612E-3
225.497246E-3
225.430298E-3
225.573921E-3
225.561905E-3
225.469780E-3
225.483513E-3
225.381660E-3
225.312996E-3
225.222015E-3
224.961090E-3
224.967384E-3
224.738503E-3
224.605179E-3
224.456406E-3
224.332809E-3
224.474716E-3
224.382019E-3
224.567413E-3
224.915314E-3
225.717545E-3
227.341461E-3
229.369354E-3
232.036400E-3
234.826469E-3
237.212563E-3
239.363480E-3
240.589142E-3
241.077805E-3
240.811729E-3
239.884186E-3
238.771248E-3
237.425995E-3
236.178589E-3
235.161209E-3
234.116364E-3
233.567619E-3
233.133316E-3
233.038902E-3
233.109856E-3
233.185959E-3
233.496094E-3
233.568764E-3
233.518982E-3
233.299828E-3
232.839203E-3
232.395172E-3
231.859016E-3
231.670189E-3
231.739998E-3
231.891060E-3
232.281876E-3
232.590294E-3
233.000565E-3
233.357620E-3
233.510971E-3
233.654594E-3
233.398247E-3
233.264923E-3
233.119011E-3
232.751083E-3
232.521629E-3
232.118225E-3
231.798935E-3
231.418991E-3
231.025887E-3
230.819893E-3
230.549812E-3
230.350113E-3
230.300903E-3
230.115509E-3
230.090904E-3
229.925537E-3
229.876328E-3
229.848289E-3
229.764748E-3
229.753304E-3
229.615974E-3
229.559326E-3
229.559326E-3
229.426003E-3
229.445457E-3
229.384804E-3
229.350471E-3
229.345322E-3
229.209709E-3
229.308701E-3
229.276085E-3
229.215431E-3
229.203987E-3
229.074669E-3
229.127312E-3
228.973389E-3
228.870392E-3
228.841782E-3
228.699303E-3
228.644943E-3
228.418350E-3
228.180885E-3
228.017807E-3
227.747726E-3
227.581787E-3
227.335167E-3
227.424431E-3
227.500534E-3
227.540016E-3
228.167725E-3
229.232025E-3
231.057358E-3
233.441734E-3
236.049271E-3
238.892555E-3
241.292953E-3
243.158913E-3
244.189453E-3
244.329643E-3
243.958282E-3
242.982674E-3
241.698647E-3
240.380859E-3
239.101982E-3
238.120651E-3
237.250328E-3
236.725616E-3
236.452103E-3
236.232948E-3
236.285591E-3
236.346245E-3
236.532784E-3
236.806870E-3
236.603737E-3
236.474991E-3
235.899925E-3
235.263634E-3
234.568977E-3
233.993912E-3
233.728409E-3
233.561325E-3
233.430290E-3
233.660316E-3
233.771324E-3
233.968735E-3
234.130096E-3
234.263420E-3
234.203339E-3
233.968163E-3
233.826828E-3
233.537865E-3
233.232307E-3
232.935905E-3
232.365417E-3
231.988335E-3
231.614685E-3
231.171799E-3
231.006432E-3
230.577278E-3
230.413628E-3
230.150414E-3
230.003929E-3
229.974747E-3
229.680061E-3
229.593086E-3
229.458618E-3
229.268074E-3
229.333878E-3
229.061508E-3
229.047775E-3
228.848648E-3
228.759384E-3
228.753662E-3
228.689575E-3
228.759384E-3
228.767395E-3
228.690720E-3
228.729057E-3
228.516197E-3
228.489304E-3
228.356552E-3
228.338814E-3
228.369141E-3
228.265572E-3
228.207779E-3
228.164291E-3
228.036690E-3
227.989197E-3
227.746582E-3
227.698517E-3
227.426147E-3
227.241325E-3
227.095413E-3
226.830482E-3
226.772690E-3
226.742935E-3
226.685715E-3
226.860237E-3
227.213860E-3
228.243828E-3
229.779053E-3
231.833267E-3
234.626770E-3
237.405968E-3
240.203476E-3
242.277145E-3
243.653870E-3
244.331932E-3
244.132805E-3
243.477631E-3
242.178154E-3
240.737343E-3
239.525986E-3
238.410187E-3
237.679482E-3
236.952209E-3
236.569405E-3
236.453819E-3
236.373711E-3
236.619186E-3
236.878395E-3
237.055779E-3
237.105560E-3
236.961365E-3
236.512184E-3
235.753441E-3
234.921455E-3
234.272575E-3
233.738708E-3
233.487511E-3
233.373642E-3
233.448601E-3
233.621979E-3
233.729553E-3
233.918953E-3
234.005928E-3
233.932114E-3
233.985329E-3
233.677483E-3
233.518410E-3
233.164215E-3
232.753372E-3
232.457542E-3
232.077026E-3
231.763458E-3
231.516266E-3
231.134605E-3
230.939484E-3
230.513763E-3
230.236244E-3
229.994774E-3
229.762459E-3
229.732132E-3
229.451752E-3
229.439163E-3
229.363632E-3
229.204559E-3
229.151344E-3
229.163933E-3
229.096985E-3
228.983688E-3
228.724480E-3
228.704453E-3
228.550529E-3
228.483582E-3
228.461838E-3
228.352547E-3
228.359413E-3
228.210068E-3
228.183174E-3
228.261566E-3
228.098488E-3
228.082466E-3
227.927971E-3
227.848434E-3
227.708817E-3
227.553177E-3
227.661896E-3
227.418709E-3
227.322578E-3
227.236176E-3
226.990128E-3
226.903152E-3
226.619339E-3
226.453400E-3
226.322937E-3
226.199341E-3
226.199913E-3
225.985909E-3
226.028824E-3
226.289749E-3
226.919746E-3
228.384590E-3
230.191612E-3
232.729912E-3
235.548019E-3
238.268280E-3
240.606308E-3
242.167854E-3
242.914581E-3
242.835045E-3
242.142105E-3
241.199112E-3
239.768600E-3
238.407326E-3
237.123299E-3
236.089897E-3
235.476494E-3
234.924889E-3
234.692001E-3
234.655952E-3
234.774971E-3
235.007858E-3
235.198402E-3
235.280228E-3
235.153770E-3
234.742928E-3
234.269714E-3
233.609962E-3
233.124161E-3
232.771111E-3
232.561111E-3
232.572556E-3
232.534218E-3
232.777977E-3
233.046341E-3
233.312988E-3
233.507538E-3
233.436584E-3
233.315849E-3
233.122444E-3
232.855797E-3
232.685852E-3
232.378006E-3
232.011223E-3
231.703377E-3
231.146049E-3
230.912018E-3
230.466270E-3
230.278587E-3
230.158424E-3
229.896927E-3
229.782486E-3
229.592514E-3
229.527283E-3
229.545021E-3
229.334450E-3
229.228020E-3
229.061508E-3
228.969955E-3
228.918457E-3
228.835487E-3
228.882980E-3
228.750229E-3
228.649521E-3
228.719902E-3
228.633499E-3
228.781700E-3
228.670692E-3
228.750229E-3
228.846359E-3
228.757668E-3
228.699303E-3
228.574562E-3
228.594589E-3
228.556252E-3
228.442383E-3
228.408623E-3
228.252983E-3
228.156853E-3
228.152847E-3
227.914810E-3
227.803230E-3
227.568626E-3
227.436447E-3
227.374077E-3
227.229309E-3
227.263641E-3
227.295685E-3
227.326012E-3
227.586937E-3
228.252411E-3
229.589081E-3
231.410980E-3
233.940697E-3
236.729050E-3
239.187241E-3
241.379356E-3
242.815018E-3
243.510246E-3
243.534851E-3
242.819023E-3
241.843987E-3
240.513611E-3
239.198112E-3
238.155556E-3
237.115288E-3
236.432648E-3
235.935974E-3
235.731697E-3
235.778046E-3
235.770035E-3
235.989761E-3
235.965729E-3
236.019516E-3
235.838127E-3
235.216141E-3
234.759521E-3
234.286308E-3
233.853149E-3
233.659172E-3
233.585930E-3
233.808517E-3
233.949280E-3
234.187889E-3
234.411621E-3
234.519196E-3
234.607315E-3
234.571838E-3
234.298897E-3
234.054565E-3
233.705521E-3
233.423424E-3
232.947922E-3
232.577133E-3
232.252121E-3
231.686783E-3
231.404114E-3
231.020737E-3
230.846214E-3
230.564117E-3
230.315781E-3
230.185318E-3
229.919243E-3
229.906082E-3
229.836273E-3
229.603386E-3
229.551315E-3
229.399109E-3
229.301834E-3
229.303551E-3
229.198837E-3
229.110146E-3
228.990555E-3
229.033470E-3
229.062080E-3
228.796577E-3
228.878403E-3
228.806877E-3
228.668404E-3
228.697586E-3
228.510475E-3
228.528214E-3
228.418350E-3
228.336525E-3
228.453827E-3
228.337097E-3
228.316498E-3
228.325081E-3
228.218651E-3
228.218079E-3
228.004646E-3
227.905083E-3
227.655602E-3
227.483940E-3
227.372360E-3
227.178383E-3
227.080536E-3
226.934052E-3
226.782417E-3
226.827049E-3
226.888847E-3
227.377510E-3
228.186607E-3
229.675484E-3
231.949997E-3
234.421349E-3
237.298965E-3
239.995193E-3
242.309761E-3
243.891335E-3
244.478989E-3
244.495010E-3
243.814659E-3
242.684555E-3
241.500092E-3
240.123367E-3
238.972664E-3
238.082314E-3
237.361908E-3
237.084961E-3
236.812592E-3
236.946487E-3
237.080956E-3
237.151909E-3
237.505531E-3
237.653732E-3
237.666893E-3
237.406540E-3
236.776543E-3
236.096764E-3
235.194969E-3
234.762383E-3
234.419060E-3
234.069443E-3
234.029961E-3
234.090614E-3
234.249115E-3
234.445953E-3
234.502029E-3
234.630775E-3
234.504890E-3
234.392738E-3
234.226227E-3
233.959007E-3
233.658028E-3
233.256340E-3
233.050919E-3
232.660103E-3
232.301331E-3
232.063293E-3
231.624413E-3
231.402969E-3
231.142044E-3
230.859375E-3
230.677986E-3
230.421066E-3
230.397606E-3
230.275726E-3
230.102348E-3
230.056572E-3
229.855728E-3
229.794502E-3
229.686356E-3
229.543304E-3
229.537010E-3
229.417992E-3
229.455185E-3
229.323006E-3
229.223442E-3
229.207420E-3
229.184532E-3
229.137039E-3
229.063797E-3
229.048920E-3
228.968239E-3
228.881264E-3
228.820610E-3
228.742790E-3
228.612328E-3
228.701019E-3
228.560257E-3
228.504181E-3
228.418350E-3
228.316498E-3
228.325653E-3
228.026962E-3
227.957153E-3
227.869606E-3
227.621269E-3
227.439308E-3
227.177811E-3
227.037048E-3
226.873970E-3
226.805878E-3
226.829338E-3
226.835060E-3
227.161789E-3
227.888489E-3
229.168510E-3
231.343460E-3
233.827972E-3
236.576843E-3
239.207840E-3
241.431427E-3
243.018150E-3
243.605232E-3
243.539429E-3
242.741776E-3
241.492081E-3
240.209198E-3
238.930893E-3
237.856865E-3
237.020874E-3
236.302185E-3
235.923386E-3
235.641289E-3
235.690498E-3
235.847855E-3
235.927391E-3
236.379433E-3
236.394310E-3
236.405182E-3
236.087608E-3
235.450172E-3
234.849930E-3
234.139252E-3
233.715820E-3
233.403969E-3
233.215141E-3
233.325005E-3
233.408546E-3
233.638573E-3
233.916092E-3
233.948708E-3
234.113503E-3
233.886337E-3
233.834267E-3
233.674049E-3
233.353043E-3
233.062363E-3
232.671547E-3
232.330513E-3
231.904793E-3
231.546021E-3
231.350327E-3
231.067657E-3
230.835915E-3
230.679131E-3
230.459976E-3
230.364990E-3
230.132675E-3
230.027390E-3
229.868317E-3
229.714966E-3
229.693794E-3
229.520988E-3
229.475212E-3
229.488945E-3
229.438019E-3
229.452324E-3
229.352760E-3
229.248619E-3
229.228020E-3
229.143906E-3
229.185104E-3
229.118156E-3
229.166222E-3
229.076958E-3
228.911591E-3
228.928757E-3
228.939056E-3
228.876114E-3
228.834915E-3
228.698158E-3
228.784561E-3
228.565407E-3
228.520203E-3
228.543091E-3
228.416634E-3
228.302193E-3
228.054428E-3
227.884483E-3
227.832985E-3
227.585793E-3
227.529144E-3
227.328300E-3
227.271080E-3
227.258492E-3
227.185249E-3
227.272224E-3
227.480507E-3
228.257561E-3
229.460907E-3
231.306839E-3
233.725548E-3
236.233521E-3
238.764381E-3
240.830040E-3
242.157555E-3
242.828751E-3
242.546082E-3
241.874313E-3
240.788269E-3
239.513397E-3
238.426208E-3
237.203979E-3
236.295319E-3
235.633850E-3
235.213852E-3
235.113144E-3
235.012436E-3
235.067940E-3
235.351181E-3
235.540581E-3
235.552025E-3
235.233307E-3
234.804726E-3
234.301758E-3
233.786201E-3
233.608818E-3
233.406258E-3
233.403969E-3
233.558464E-3
233.839417E-3
234.165001E-3
234.383011E-3
234.584427E-3
234.647369E-3
234.477997E-3
234.376717E-3
234.074020E-3
233.823967E-3
233.490944E-3
233.156776E-3
232.745934E-3
232.278442E-3
231.909943E-3
231.706238E-3
231.335449E-3
231.120872E-3
230.821037E-3
230.628777E-3
230.529213E-3
230.284309E-3
230.233383E-3
230.106354E-3
230.042267E-3
230.020523E-3
229.748154E-3
229.792213E-3
229.641151E-3
229.618835E-3
229.519272E-3
229.296112E-3
229.347038E-3
229.213715E-3
229.115295E-3
229.104996E-3
228.913307E-3
228.896713E-3
228.809166E-3
228.770828E-3
228.758240E-3
228.672981E-3
228.635788E-3
228.567696E-3
228.445816E-3
228.398895E-3
228.259277E-3
228.271294E-3
228.137970E-3
228.063583E-3
228.014946E-3
227.839279E-3
227.913094E-3
227.700233E-3
227.475357E-3
227.375793E-3
227.063942E-3
226.990700E-3
226.865387E-3
226.837921E-3
226.908875E-3
226.992416E-3
227.456474E-3
228.353119E-3
229.977608E-3
232.351685E-3
234.762955E-3
237.652016E-3
239.932823E-3
241.878319E-3
243.073654E-3
243.381500E-3
243.037033E-3
242.142677E-3
240.951347E-3
239.677620E-3
238.350677E-3
237.523270E-3
236.666107E-3
236.091042E-3
235.820961E-3
235.612106E-3
235.755157E-3
235.912514E-3
236.083031E-3
236.283875E-3
236.307335E-3
236.332512E-3
236.007500E-3
235.356903E-3
234.760094E-3
234.022522E-3
233.551025E-3
233.175087E-3
232.981110E-3
233.125305E-3
233.091545E-3
233.211708E-3
233.324432E-3
233.382225E-3
233.538437E-3
233.327293E-3
233.278656E-3
233.093262E-3
232.753372E-3
232.554245E-3
232.112503E-3
231.840706E-3
231.434441E-3
231.004143E-3
230.740356E-3
230.394745E-3
230.239105E-3
229.961014E-3
229.787636E-3
229.681778E-3
229.460907E-3
229.441452E-3
229.261208E-3
229.138184E-3
229.116440E-3
228.971100E-3
228.959084E-3
228.876686E-3
228.709030E-3
228.701019E-3
228.549385E-3
228.587151E-3
228.488731E-3
228.400040E-3
228.373718E-3
228.298759E-3
228.363991E-3
228.273010E-3
228.107071E-3
228.171158E-3
227.986908E-3
228.021240E-3
227.793503E-3
227.770042E-3
227.767754E-3
227.587509E-3
227.607536E-3
227.549171E-3
227.503395E-3
227.411270E-3
227.187538E-3
227.184105E-3
227.035332E-3
226.889420E-3
226.764679E-3
226.493454E-3
226.405907E-3
226.226234E-3
226.092339E-3
226.098061E-3
226.031685E-3
226.258278E-3
226.767540E-3
227.823830E-3
229.631996E-3
231.727409E-3
234.354973E-3
236.888695E-3
239.109993E-3
240.930176E-3
241.723824E-3
241.963005E-3
241.504097E-3
240.506172E-3
239.458466E-3
238.109207E-3
237.057495E-3
235.972023E-3
235.137749E-3
234.650803E-3
234.279442E-3
234.214211E-3
234.247971E-3
234.285736E-3
234.547234E-3
234.715462E-3
234.724617E-3
234.584427E-3
234.055710E-3
233.555031E-3
232.851219E-3
232.479858E-3
232.000351E-3
231.716537E-3
231.722260E-3
231.691360E-3
231.909370E-3
232.129097E-3
232.215500E-3
232.352257E-3
232.220078E-3
232.134247E-3
232.000351E-3
231.687355E-3
231.590080E-3
231.268501E-3
230.989265E-3
230.651093E-3
230.285454E-3
230.098343E-3
229.654884E-3
229.491234E-3
229.296684E-3
228.992844E-3
228.969383E-3
228.597450E-3
228.567123E-3
228.459549E-3
228.338814E-3
228.280449E-3
228.157425E-3
228.109360E-3
227.992058E-3
227.896500E-3
227.982330E-3
227.854156E-3
227.894783E-3
227.849579E-3
227.725410E-3
227.697945E-3
227.556038E-3
227.591515E-3
227.543449E-3
227.454185E-3
227.584076E-3
227.410698E-3
227.391243E-3
227.393532E-3
227.276230E-3
227.317429E-3
227.233887E-3
227.089691E-3
227.103424E-3
226.972961E-3
226.958656E-3
226.788712E-3
226.780128E-3
226.693153E-3
226.503181E-3
226.383018E-3
226.138687E-3
226.023102E-3
225.913811E-3
225.796509E-3
225.879478E-3
225.815392E-3
225.975037E-3
226.279449E-3
226.998138E-3
228.489304E-3
230.345535E-3
232.802582E-3
235.284233E-3
237.438011E-3
239.156914E-3
240.189171E-3
240.452385E-3
240.058136E-3
239.200974E-3
238.033104E-3
236.773109E-3
235.657310E-3
234.627914E-3
233.698654E-3
233.152771E-3
232.696724E-3
232.653236E-3
232.736206E-3
