Notes :


2023-11-06 ¿ÀÈÄ 10:59:30
Volts
Ch : LED 2,
353.960037E-3
354.053879E-3
353.879356E-3
353.882217E-3
353.871918E-3
353.635025E-3
353.673363E-3
353.615570E-3
353.709412E-3
353.718567E-3
353.578949E-3
353.627586E-3
353.430748E-3
353.463364E-3
353.418159E-3
353.304863E-3
353.359795E-3
353.327179E-3
353.264236E-3
353.610992E-3
353.282547E-3
353.173828E-3
353.123474E-3
353.111458E-3
353.098869E-3
353.015900E-3
353.053093E-3
352.947235E-3
353.029060E-3
352.922058E-3
352.743530E-3
352.720070E-3
352.572441E-3
352.525520E-3
352.532387E-3
352.495766E-3
352.515793E-3
352.599907E-3
352.657700E-3
352.994156E-3
353.372383E-3
354.139709E-3
354.620361E-3
355.281830E-3
355.910683E-3
356.378174E-3
356.683159E-3
356.737518E-3
356.760406E-3
356.771851E-3
356.560135E-3
356.489182E-3
356.260872E-3
356.046867E-3
355.881500E-3
355.592537E-3
355.583954E-3
355.313873E-3
355.467796E-3
355.496979E-3
355.577660E-3
355.622292E-3
355.563354E-3
355.567360E-3
355.113602E-3
354.996872E-3
354.964828E-3
354.886436E-3
354.826927E-3
354.908180E-3
354.859543E-3
354.944229E-3
354.885292E-3
354.852104E-3
354.924774E-3
354.976845E-3
355.038071E-3
354.992867E-3
355.022049E-3
354.951096E-3
354.829788E-3
354.803467E-3
354.666138E-3
354.652405E-3
354.465294E-3
354.306221E-3
354.370880E-3
354.216957E-3
354.051018E-3
354.055595E-3
353.968620E-3
353.987503E-3
353.846741E-3
353.847313E-3
353.718567E-3
353.636169E-3
353.698540E-3
353.573799E-3
353.512573E-3
353.546906E-3
353.367233E-3
353.443909E-3
353.417587E-3
353.413010E-3
353.340912E-3
353.306580E-3
353.359795E-3
353.346062E-3
353.239632E-3
353.227615E-3
353.118896E-3
353.229332E-3
353.207016E-3
353.252220E-3
353.085136E-3
352.980995E-3
353.138924E-3
353.053093E-3
352.979851E-3
352.930069E-3
352.910042E-3
352.985573E-3
352.987289E-3
352.986145E-3
352.921486E-3
352.832222E-3
352.760124E-3
352.593613E-3
352.607346E-3
352.577019E-3
352.455711E-3
352.575302E-3
352.437973E-3
352.361870E-3
352.710342E-3
352.729797E-3
353.158951E-3
353.653336E-3
354.479599E-3
355.174828E-3
355.761337E-3
356.439972E-3
356.795883E-3
357.013321E-3
357.195854E-3
357.140350E-3
357.168388E-3
356.983566E-3
356.841660E-3
356.575012E-3
356.313515E-3
356.302643E-3
355.937004E-3
355.982208E-3
356.046867E-3
356.001663E-3
356.204224E-3
356.149864E-3
356.232262E-3
356.187057E-3
356.044006E-3
356.026840E-3
355.767632E-3
355.642319E-3
355.531883E-3
355.377388E-3
355.418587E-3
355.445480E-3
355.330467E-3
355.384827E-3
355.346489E-3
355.493546E-3
355.442619E-3
355.427170E-3
355.509567E-3
355.463219E-3
355.480385E-3
355.309296E-3
355.324745E-3
355.201721E-3
355.062675E-3
355.012894E-3
354.888153E-3
354.864693E-3
354.774284E-3
354.669571E-3
354.859543E-3
354.738808E-3
354.636383E-3
354.567719E-3
354.541969E-3
354.476166E-3
354.397202E-3
354.373741E-3
354.429817E-3
354.121971E-3
354.299355E-3
354.229546E-3
354.276466E-3
354.210663E-3
354.125977E-3
354.099655E-3
354.064751E-3
354.034424E-3
354.053879E-3
354.001236E-3
354.075623E-3
353.922272E-3
353.956604E-3
353.982925E-3
353.982925E-3
354.010391E-3
353.937721E-3
354.087639E-3
354.026985E-3
353.884506E-3
353.879356E-3
353.786087E-3
353.792381E-3
353.829575E-3
353.743172E-3
353.836441E-3
353.843880E-3
353.693390E-3
353.659058E-3
353.594971E-3
353.558922E-3
353.490829E-3
353.382683E-3
353.412437E-3
353.311729E-3
353.422165E-3
353.234482E-3
353.256798E-3
353.558350E-3
353.949165E-3
354.566574E-3
355.130768E-3
355.835724E-3
356.498337E-3
357.103157E-3
357.562065E-3
357.900810E-3
357.969475E-3
358.027840E-3
357.895660E-3
357.727432E-3
357.478523E-3
357.293701E-3
357.396698E-3
356.905174E-3
356.712341E-3
356.608772E-3
356.521225E-3
356.516075E-3
356.498909E-3
356.657982E-3
356.595612E-3
356.520081E-3
356.535530E-3
356.307793E-3
356.275749E-3
356.061172E-3
356.010246E-3
355.977058E-3
356.228256E-3
356.120682E-3
356.024551E-3
356.030846E-3
356.125832E-3
356.180763E-3
356.292915E-3
356.263733E-3
356.311798E-3
356.090927E-3
356.153297E-3
356.101799E-3
355.971336E-3
355.808258E-3
355.768204E-3
355.556488E-3
355.652046E-3
355.462074E-3
355.524445E-3
355.405426E-3
355.294991E-3
355.217171E-3
355.167961E-3
355.099869E-3
355.079269E-3
354.963684E-3
354.964828E-3
354.650688E-3
354.774284E-3
354.812050E-3
354.754829E-3
354.778862E-3
354.668999E-3
354.660416E-3
354.722786E-3
354.592323E-3
354.683876E-3
354.582596E-3
354.521370E-3
354.583168E-3
354.444695E-3
354.390907E-3
354.341698E-3
354.288483E-3
354.315948E-3
354.330826E-3
354.303932E-3
354.204941E-3
354.166031E-3
354.201508E-3
354.109383E-3
354.096222E-3
353.984642E-3
353.953171E-3
353.993797E-3
353.932571E-3
353.828430E-3
353.725433E-3
353.670502E-3
353.569794E-3
353.392982E-3
353.439903E-3
353.407860E-3
353.242493E-3
353.313446E-3
353.373528E-3
353.688240E-3
354.086494E-3
354.670715E-3
355.365944E-3
356.105804E-3
356.705475E-3
357.106018E-3
357.444763E-3
357.740593E-3
357.753181E-3
357.775497E-3
357.592964E-3
357.380104E-3
357.404709E-3
356.985283E-3
356.795311E-3
356.495476E-3
356.312370E-3
356.268883E-3
356.203651E-3
356.225395E-3
356.242561E-3
356.378746E-3
356.407928E-3
356.193352E-3
356.201935E-3
355.943871E-3
355.735588E-3
355.762482E-3
355.583382E-3
355.711555E-3
355.717850E-3
355.705833E-3
355.702400E-3
355.641747E-3
355.718994E-3
355.743599E-3
355.724716E-3
355.848312E-3
355.803108E-3
355.997086E-3
355.803680E-3
355.642891E-3
355.554199E-3
355.446625E-3
355.351067E-3
355.161667E-3
355.059242E-3
355.009460E-3
354.899597E-3
354.951096E-3
354.788017E-3
354.679871E-3
354.653549E-3
354.567146E-3
354.546547E-3
354.402351E-3
354.318237E-3
354.420662E-3
354.277039E-3
354.309654E-3
354.283333E-3
354.268456E-3
354.221535E-3
354.048729E-3
354.112816E-3
354.080200E-3
354.239273E-3
354.106522E-3
354.029274E-3
353.948021E-3
354.005241E-3
354.030991E-3
353.925705E-3
353.837585E-3
353.883362E-3
353.905106E-3
353.821564E-3
353.794670E-3
353.704262E-3
353.707123E-3
353.640175E-3
353.570366E-3
353.655624E-3
353.515434E-3
353.562927E-3
353.468513E-3
353.453064E-3
353.492546E-3
353.284836E-3
353.344345E-3
353.199005E-3
353.308296E-3
353.265381E-3
353.051376E-3
353.102875E-3
353.017044E-3
352.971268E-3
353.063393E-3
353.288841E-3
353.741455E-3
354.405785E-3
354.984856E-3
355.663490E-3
356.184769E-3
356.834793E-3
357.273674E-3
357.621002E-3
357.859039E-3
357.827568E-3
357.578659E-3
357.481956E-3
357.377815E-3
357.192421E-3
356.946373E-3
356.709480E-3
356.553841E-3
356.463432E-3
356.454277E-3
356.333542E-3
356.426239E-3
356.531525E-3
356.422234E-3
356.405067E-3
356.363297E-3
356.290627E-3
356.023407E-3
355.944443E-3
355.812263E-3
355.754471E-3
355.882072E-3
355.759048E-3
355.771065E-3
355.887222E-3
355.768776E-3
355.823708E-3
355.778503E-3
356.029129E-3
355.922699E-3
355.851173E-3
355.883789E-3
355.850601E-3
355.738449E-3
355.779076E-3
355.501556E-3
355.379677E-3
355.270386E-3
355.196571E-3
355.154800E-3
355.050659E-3
354.960251E-3
354.906464E-3
354.836082E-3
354.920197E-3
354.690742E-3
354.634666E-3
354.553413E-3
354.564285E-3
354.578590E-3
354.366302E-3
354.527092E-3
354.508781E-3
354.574013E-3
354.476738E-3
354.384041E-3
354.390907E-3
354.357719E-3
354.269600E-3
354.311943E-3
354.178047E-3
354.171753E-3
354.212952E-3
354.162025E-3
354.170036E-3
354.047012E-3
354.098511E-3
354.063606E-3
354.001236E-3
354.034424E-3
353.925705E-3
353.783798E-3
353.899956E-3
353.800392E-3
353.890228E-3
353.821564E-3
353.882217E-3
353.730583E-3
353.764343E-3
353.811264E-3
353.522873E-3
353.676796E-3
353.674507E-3
353.559494E-3
353.557205E-3
353.466797E-3
353.471947E-3
353.425598E-3
353.416443E-3
353.411293E-3
353.341484E-3
353.514862E-3
353.812981E-3
354.261589E-3
354.861259E-3
355.529022E-3
356.185913E-3
356.737518E-3
357.271957E-3
357.768059E-3
357.801247E-3
357.995796E-3
357.837296E-3
357.777214E-3
357.603264E-3
357.251930E-3
357.101440E-3
356.966400E-3
356.645393E-3
356.529808E-3
356.358147E-3
356.349564E-3
356.264305E-3
356.326103E-3
356.565857E-3
356.447411E-3
356.421089E-3
356.207657E-3
356.042862E-3
355.873489E-3
355.776215E-3
355.783653E-3
355.808830E-3
355.648041E-3
355.735016E-3
355.758476E-3
355.914688E-3
355.898094E-3
356.005096E-3
356.183624E-3
356.148720E-3
356.128693E-3
356.070328E-3
356.050301E-3
356.121254E-3
355.974770E-3
355.921555E-3
355.682945E-3
355.559921E-3
355.573654E-3
355.407715E-3
355.637741E-3
355.414009E-3
355.217743E-3
355.255508E-3
355.087280E-3
355.078125E-3
354.983139E-3
354.915619E-3
354.933929E-3
354.501915E-3
354.723930E-3
354.721069E-3
354.702187E-3
354.764557E-3
354.692459E-3
354.638672E-3
354.539108E-3
354.593468E-3
354.748535E-3
354.529381E-3
354.503059E-3
354.451561E-3
354.406357E-3
354.415512E-3
354.362297E-3
354.398918E-3
354.313660E-3
354.044151E-3
354.090500E-3
354.067612E-3
354.044724E-3
354.067612E-3
353.989792E-3
353.987503E-3
353.866768E-3
353.973198E-3
353.837013E-3
353.763199E-3
353.705978E-3
353.680229E-3
353.668213E-3
353.518867E-3
353.544044E-3
353.544617E-3
353.458214E-3
353.366089E-3
353.407860E-3
353.443336E-3
353.727150E-3
354.107094E-3
354.696465E-3
355.309296E-3
356.071472E-3
356.556129E-3
356.885719E-3
357.320595E-3
357.522583E-3
357.507706E-3
357.570648E-3
357.340050E-3
357.332611E-3
356.962395E-3
356.777573E-3
356.615639E-3
356.296921E-3
356.216240E-3
356.089783E-3
355.961037E-3
356.039429E-3
355.847168E-3
355.913544E-3
355.955315E-3
355.886650E-3
355.840874E-3
355.550766E-3
355.472946E-3
355.428886E-3
355.360222E-3
355.450630E-3
355.559921E-3
355.444336E-3
355.467796E-3
355.520439E-3
355.533600E-3
355.487251E-3
355.687523E-3
355.695534E-3
355.675507E-3
355.899811E-3
355.749321E-3
355.686378E-3
355.619431E-3
355.428886E-3
355.331612E-3
355.194855E-3
355.188560E-3
355.101013E-3
355.174255E-3
355.055809E-3
354.857254E-3
354.798889E-3
354.699326E-3
354.585457E-3
354.567719E-3
354.389763E-3
354.412079E-3
354.549408E-3
354.426384E-3
354.371452E-3
354.233551E-3
354.252434E-3
354.267311E-3
354.166031E-3
354.165459E-3
354.050446E-3
354.089355E-3
354.015541E-3
353.977203E-3
354.005814E-3
353.992653E-3
353.962898E-3
354.017258E-3
354.117393E-3
353.989220E-3
353.846741E-3
353.838158E-3
353.795242E-3
353.754044E-3
353.845596E-3
353.798103E-3
353.766632E-3
353.727722E-3
353.670502E-3
353.717995E-3
353.617287E-3
353.659630E-3
353.491974E-3
353.362656E-3
353.470802E-3
353.280830E-3
353.103447E-3
353.185844E-3
353.136635E-3
353.269958E-3
353.342628E-3
353.790665E-3
354.208374E-3
354.783440E-3
355.364799E-3
355.763054E-3
356.568718E-3
357.061958E-3
357.400703E-3
357.764626E-3
357.809830E-3
357.767487E-3
357.691956E-3
357.484818E-3
357.462502E-3
357.120323E-3
356.956100E-3
356.684875E-3
356.481171E-3
356.408501E-3
356.459999E-3
356.568146E-3
356.524658E-3
356.597328E-3
356.613922E-3
356.430817E-3
356.423950E-3
356.228256E-3
356.058884E-3
356.002808E-3
355.941010E-3
356.007385E-3
356.177902E-3
356.053734E-3
355.990791E-3
355.912971E-3
355.961037E-3
356.036568E-3
355.980492E-3
356.118393E-3
356.148720E-3
356.324387E-3
356.157303E-3
356.087494E-3
356.028557E-3
355.807686E-3
355.712128E-3
355.605125E-3
355.427742E-3
355.461502E-3
355.298996E-3
355.329895E-3
355.260658E-3
355.144501E-3
355.103874E-3
355.006599E-3
355.003738E-3
355.106163E-3
354.872131E-3
354.877281E-3
354.643822E-3
354.687309E-3
354.697037E-3
354.630661E-3
354.691315E-3
354.566574E-3
354.731941E-3
354.585457E-3
354.575157E-3
354.535675E-3
354.479027E-3
354.636383E-3
354.508209E-3
354.389191E-3
354.513931E-3
354.262733E-3
354.496765E-3
354.549408E-3
354.428101E-3
354.497337E-3
354.393768E-3
354.472160E-3
354.448128E-3
354.362297E-3
354.437828E-3
354.343987E-3
354.348564E-3
354.293060E-3
354.242134E-3
354.243279E-3
354.152298E-3
354.146576E-3
354.139137E-3
354.010963E-3
354.023552E-3
353.821564E-3
354.051590E-3
354.249573E-3
354.568291E-3
355.193138E-3
355.666924E-3
356.369019E-3
356.882286E-3
357.469940E-3
358.047867E-3
358.264732E-3
358.431816E-3
358.465004E-3
358.353996E-3
358.253288E-3
358.020973E-3
357.974625E-3
357.638741E-3
357.394409E-3
357.247353E-3
357.086563E-3
357.038498E-3
356.975555E-3
356.973839E-3
357.051086E-3
357.203865E-3
357.063103E-3
356.977844E-3
356.704330E-3
356.716919E-3
356.496048E-3
356.473732E-3
356.524658E-3
356.401634E-3
356.427383E-3
356.445694E-3
356.576729E-3
356.615639E-3
356.669426E-3
356.742668E-3
356.714630E-3
356.953812E-3
356.818199E-3
356.796455E-3
356.858253E-3
356.642532E-3
356.553268E-3
356.442833E-3
356.373596E-3
356.410217E-3
356.091499E-3
356.125259E-3
356.016541E-3
355.954170E-3
355.950737E-3
355.821991E-3
355.788803E-3
355.710411E-3
355.621147E-3
355.808258E-3
355.611420E-3
355.525589E-3
355.481529E-3
355.355644E-3
355.483246E-3
355.334473E-3
355.440903E-3
355.424309E-3
355.486107E-3
355.428886E-3
355.287552E-3
355.274391E-3
355.270386E-3
355.213737E-3
355.313873E-3
355.200005E-3
355.167389E-3
354.942513E-3
355.099297E-3
355.110168E-3
355.064392E-3
355.160522E-3
355.200005E-3
355.109024E-3
355.138206E-3
355.018616E-3
354.878998E-3
354.900742E-3
354.735947E-3
354.844666E-3
354.659843E-3
354.667282E-3
354.715347E-3
354.570007E-3
354.664421E-3
354.705620E-3
355.111313E-3
355.533028E-3
356.014824E-3
356.682587E-3
357.219887E-3
357.805824E-3
358.246422E-3
358.403206E-3
358.639526E-3
358.551407E-3
358.388901E-3
358.245850E-3
358.018112E-3
357.916832E-3
357.586098E-3
357.312012E-3
357.173538E-3
356.936646E-3
357.073402E-3
356.942368E-3
356.949806E-3
356.987000E-3
356.900024E-3
356.915474E-3
356.714058E-3
356.607056E-3
356.308937E-3
356.197357E-3
356.339836E-3
356.270599E-3
356.273460E-3
356.291199E-3
356.341553E-3
356.431389E-3
356.431389E-3
356.548691E-3
356.527519E-3
356.558990E-3
356.678009E-3
356.600189E-3
356.538391E-3
356.531525E-3
356.060028E-3
356.215096E-3
356.105804E-3
356.090355E-3
356.019402E-3
355.872917E-3
355.843163E-3
355.755043E-3
355.659485E-3
355.854034E-3
355.583382E-3
355.462074E-3
355.312157E-3
355.299568E-3
355.288124E-3
355.135345E-3
355.192566E-3
354.987717E-3
355.025482E-3
355.110741E-3
354.962540E-3
355.092430E-3
354.979134E-3
354.952240E-3
354.924202E-3
354.866982E-3
354.992294E-3
355.002022E-3
354.893303E-3
354.897881E-3
354.817772E-3
354.871559E-3
354.727936E-3
354.749107E-3
354.811478E-3
354.789162E-3
354.665565E-3
354.673004E-3
354.693604E-3
354.701614E-3
354.633522E-3
354.691315E-3
354.544258E-3
354.504204E-3
354.495049E-3
354.281616E-3
354.298782E-3
354.254150E-3
354.266739E-3
354.553413E-3
354.728508E-3
355.329895E-3
355.761337E-3
356.388474E-3
357.051086E-3
357.545471E-3
358.130264E-3
358.497620E-3
358.582878E-3
358.696747E-3
358.592033E-3
358.601761E-3
358.363152E-3
358.128548E-3
357.928848E-3
357.676506E-3
