Notes :


2023-11-04 ¿ÀÈÄ 7:33:19
Volts
Ch : LED 2,
788.215828E-3
787.991524E-3
787.860489E-3
787.256241E-3
787.360382E-3
787.354088E-3
787.327766E-3
787.327194E-3
787.229919E-3
787.447357E-3
788.069916E-3
789.002609E-3
790.415382E-3
791.972923E-3
793.816566E-3
795.548058E-3
797.020912E-3
798.155594E-3
798.821068E-3
799.242210E-3
799.146080E-3
798.549843E-3
797.925568E-3
797.158813E-3
796.539688E-3
795.814133E-3
795.278549E-3
794.887733E-3
794.364166E-3
794.412804E-3
794.284630E-3
794.325256E-3
794.507217E-3
794.582748E-3
794.600487E-3
794.517517E-3
794.094658E-3
793.640327E-3
793.371964E-3
793.031502E-3
792.871284E-3
792.684174E-3
792.812347E-3
792.885017E-3
793.143082E-3
793.512154E-3
793.455505E-3
793.812561E-3
793.900681E-3
793.855476E-3
793.753052E-3
793.556213E-3
793.357086E-3
793.056679E-3
792.869568E-3
792.371750E-3
792.189217E-3
791.939735E-3
791.663361E-3
791.382408E-3
791.196442E-3
790.964699E-3
790.856552E-3
790.561867E-3
790.742683E-3
790.453720E-3
790.224838E-3
790.209389E-3
790.028572E-3
789.915276E-3
789.897537E-3
789.783096E-3
789.800835E-3
789.888954E-3
789.834023E-3
789.701843E-3
789.688110E-3
789.689827E-3
789.664650E-3
789.634895E-3
789.563370E-3
789.468384E-3
789.351654E-3
789.348793E-3
789.316750E-3
789.253807E-3
789.157104E-3
789.149094E-3
789.095879E-3
789.174271E-3
788.983727E-3
788.822365E-3
788.860130E-3
788.658142E-3
788.615799E-3
788.533401E-3
788.369179E-3
788.313675E-3
788.128853E-3
788.001251E-3
787.854195E-3
787.626457E-3
787.434769E-3
787.224770E-3
787.145233E-3
787.184143E-3
787.156677E-3
787.385559E-3
787.540627E-3
788.196373E-3
789.285278E-3
790.756989E-3
792.596054E-3
794.352722E-3
796.144295E-3
797.690392E-3
798.691750E-3
799.320602E-3
799.483109E-3
799.272537E-3
798.800468E-3
798.110390E-3
797.360802E-3
796.468163E-3
795.862770E-3
795.096588E-3
794.800186E-3
794.570160E-3
794.416237E-3
794.504356E-3
794.600487E-3
794.632530E-3
794.734955E-3
794.708633E-3
794.848824E-3
794.429398E-3
793.920708E-3
793.392563E-3
793.036652E-3
792.811203E-3
792.594337E-3
792.635536E-3
792.795181E-3
792.941093E-3
793.199158E-3
793.476677E-3
793.707848E-3
793.853760E-3
793.811989E-3
793.580818E-3
793.454361E-3
793.136215E-3
793.036079E-3
792.679596E-3
792.311096E-3
792.105103E-3
791.835594E-3
791.611862E-3
791.273689E-3
791.003036E-3
790.812492E-3
790.423965E-3
790.408516E-3
790.332985E-3
790.243721E-3
790.188789E-3
790.151596E-3
790.112686E-3
790.024567E-3
789.878654E-3
789.847755E-3
789.879227E-3
789.910698E-3
789.823723E-3
789.758492E-3
789.838028E-3
789.732742E-3
789.761925E-3
789.666939E-3
789.499283E-3
789.521027E-3
789.495277E-3
789.536476E-3
789.417458E-3
789.234352E-3
789.242363E-3
789.042091E-3
789.068985E-3
788.933945E-3
788.812065E-3
788.870430E-3
788.812065E-3
788.655281E-3
788.519096E-3
788.499641E-3
788.388634E-3
788.258171E-3
788.194656E-3
788.037300E-3
787.885666E-3
787.825012E-3
787.667656E-3
787.573242E-3
787.358665E-3
787.293434E-3
787.118912E-3
786.992455E-3
787.095451E-3
786.992455E-3
787.090302E-3
787.086296E-3
787.494850E-3
788.183212E-3
789.398575E-3
791.048813E-3
792.844391E-3
794.594765E-3
796.398354E-3
797.634888E-3
798.668289E-3
798.991013E-3
798.908615E-3
798.561287E-3
797.842598E-3
797.130203E-3
796.291924E-3
795.528030E-3
795.003319E-3
794.451714E-3
794.123840E-3
794.008255E-3
793.663788E-3
793.767929E-3
793.812561E-3
793.995667E-3
794.107819E-3
794.009972E-3
793.872643E-3
793.480682E-3
793.121338E-3
792.902756E-3
792.658997E-3
792.363739E-3
792.545128E-3
792.739105E-3
793.136215E-3
793.436050E-3
793.765068E-3
793.890381E-3
794.052887E-3
793.902397E-3
793.743896E-3
793.554497E-3
793.295860E-3
792.967415E-3
792.747116E-3
792.365456E-3
792.178345E-3
792.027855E-3
791.650772E-3
791.294289E-3
790.985870E-3
790.841675E-3
790.719223E-3
790.582466E-3
790.521812E-3
790.292931E-3
790.252304E-3
790.052605E-3
789.982796E-3
789.941025E-3
789.827156E-3
789.873505E-3
789.682388E-3
789.668655E-3
789.637756E-3
789.724159E-3
789.602852E-3
789.496422E-3
789.411163E-3
789.424896E-3
789.428329E-3
789.305878E-3
789.237213E-3
789.126778E-3
789.197159E-3
789.026070E-3
788.902473E-3
788.845253E-3
788.846970E-3
788.785744E-3
788.548279E-3
788.678169E-3
788.564301E-3
788.557434E-3
788.497353E-3
788.290787E-3
788.242722E-3
787.962914E-3
787.787819E-3
787.763786E-3
787.606430E-3
787.382698E-3
787.154388E-3
787.075424E-3
786.978722E-3
786.926651E-3
786.922646E-3
786.992455E-3
787.204170E-3
787.449646E-3
788.327980E-3
789.771080E-3
791.354942E-3
793.091011E-3
794.973564E-3
796.529388E-3
797.999382E-3
798.787880E-3
798.997879E-3
799.090004E-3
798.707771E-3
798.164177E-3
797.387695E-3
796.687317E-3
796.038437E-3
795.374107E-3
794.957542E-3
794.982719E-3
794.625664E-3
794.545555E-3
794.436264E-3
794.642830E-3
794.801903E-3
794.840813E-3
794.932938E-3
794.602776E-3
794.214821E-3
793.927574E-3
793.437195E-3
793.205452E-3
792.899895E-3
792.929649E-3
792.931366E-3
793.075562E-3
793.311882E-3
793.618011E-3
793.731880E-3
793.712425E-3
793.739319E-3
793.667221E-3
793.548203E-3
793.342781E-3
793.164253E-3
792.914200E-3
792.684746E-3
792.245865E-3
791.948318E-3
791.562653E-3
791.365814E-3
791.150093E-3
790.787888E-3
790.658569E-3
790.498352E-3
790.350151E-3
790.343857E-3
790.100098E-3
790.115547E-3
790.040016E-3
789.951324E-3
789.999390E-3
789.838600E-3
789.925575E-3
790.047455E-3
789.829445E-3
789.820290E-3
789.714432E-3
789.706421E-3
789.724731E-3
789.715576E-3
789.613152E-3
789.543343E-3
789.509583E-3
789.447212E-3
789.403725E-3
789.291000E-3
789.222336E-3
789.118767E-3
789.007759E-3
789.048958E-3
788.952255E-3
788.729095E-3
788.720512E-3
788.610649E-3
788.596916E-3
788.549995E-3
788.445854E-3
788.422966E-3
788.262177E-3
788.189507E-3
788.128853E-3
787.918854E-3
787.853050E-3
787.699699E-3
787.439919E-3
787.376976E-3
787.182426E-3
787.180710E-3
786.998177E-3
787.002182E-3
787.062263E-3
787.091446E-3
787.310600E-3
787.865639E-3
788.892174E-3
790.366745E-3
792.283058E-3
794.096947E-3
795.776939E-3
797.311592E-3
798.484039E-3
799.045944E-3
799.313164E-3
799.043655E-3
798.406219E-3
797.607422E-3
796.929932E-3
796.240997E-3
795.581245E-3
795.015335E-3
794.709206E-3
794.394493E-3
794.338417E-3
794.333267E-3
794.525528E-3
794.600487E-3
794.589615E-3
794.713211E-3
794.700623E-3
794.406509E-3
794.066048E-3
793.651199E-3
793.228340E-3
792.902756E-3
792.625237E-3
792.568588E-3
792.574310E-3
792.797470E-3
792.961693E-3
793.109322E-3
793.388557E-3
793.360519E-3
793.496132E-3
793.287277E-3
793.069839E-3
792.961693E-3
792.606926E-3
792.320251E-3
792.107964E-3
791.833878E-3
791.493416E-3
791.263962E-3
790.973854E-3
790.742683E-3
790.521240E-3
790.434837E-3
790.111542E-3
789.993095E-3
789.805412E-3
789.750481E-3
789.389992E-3
789.467812E-3
789.505577E-3
789.394569E-3
789.327049E-3
789.391708E-3
789.381409E-3
789.324760E-3
789.299011E-3
789.291573E-3
789.229202E-3
789.090157E-3
789.097595E-3
789.100456E-3
789.010048E-3
789.004326E-3
788.875008E-3
788.828087E-3
788.663292E-3
788.616943E-3
788.640976E-3
788.483047E-3
788.378334E-3
788.314247E-3
788.135719E-3
788.067627E-3
787.992096E-3
787.871933E-3
787.878227E-3
787.791824E-3
787.701988E-3
787.578964E-3
787.557793E-3
787.451935E-3
787.465668E-3
787.315750E-3
787.185860E-3
787.052536E-3
786.954689E-3
786.751556E-3
786.743546E-3
786.594772E-3
786.390495E-3
786.296654E-3
786.326981E-3
786.409950E-3
786.371040E-3
786.696053E-3
787.344360E-3
788.360596E-3
789.933586E-3
791.579247E-3
793.597984E-3
795.225906E-3
796.521950E-3
797.513008E-3
797.981071E-3
798.068047E-3
797.749329E-3
797.083282E-3
796.393204E-3
795.663071E-3
794.855690E-3
794.168472E-3
793.622017E-3
793.292427E-3
792.953110E-3
792.794609E-3
792.823792E-3
792.828941E-3
792.965698E-3
793.170547E-3
793.069839E-3
793.068123E-3
792.785454E-3
792.362022E-3
791.957474E-3
791.835022E-3
791.627884E-3
791.713142E-3
791.925430E-3
792.028999E-3
792.224121E-3
792.567444E-3
792.796898E-3
792.978287E-3
792.948532E-3
792.888451E-3
792.798042E-3
792.471313E-3
792.270470E-3
791.938591E-3
791.611862E-3
791.279984E-3
790.998459E-3
790.670013E-3
790.390778E-3
790.249443E-3
789.953613E-3
789.677238E-3
789.543915E-3
789.315605E-3
789.233208E-3
789.146233E-3
789.000320E-3
788.884163E-3
788.916206E-3
788.864136E-3
788.685608E-3
788.604927E-3
788.607788E-3
788.492203E-3
788.430977E-3
788.474464E-3
788.413811E-3
788.701630E-3
788.462448E-3
788.298798E-3
788.293648E-3
788.160324E-3
788.179779E-3
788.105392E-3
787.929153E-3
787.954330E-3
787.860489E-3
787.846184E-3
787.714577E-3
787.607002E-3
787.623596E-3
787.517166E-3
787.436485E-3
787.188148E-3
787.149239E-3
787.119484E-3
786.960983E-3
786.957550E-3
786.815643E-3
786.583328E-3
786.433983E-3
786.200523E-3
786.303520E-3
786.070061E-3
785.995102E-3
785.932732E-3
785.886383E-3
785.902977E-3
786.121559E-3
786.729240E-3
787.711716E-3
789.221764E-3
790.970993E-3
792.709923E-3
794.482040E-3
796.115685E-3
797.119904E-3
797.831154E-3
797.947311E-3
797.697258E-3
796.936226E-3
796.421242E-3
795.717430E-3
794.967270E-3
794.250298E-3
793.715858E-3
793.343353E-3
793.096161E-3
792.852974E-3
793.128777E-3
793.026352E-3
792.989731E-3
793.175697E-3
793.269539E-3
793.416595E-3
793.331909E-3
792.855835E-3
792.463875E-3
791.864777E-3
791.770363E-3
791.579819E-3
791.408730E-3
791.588402E-3
791.802979E-3
791.989517E-3
792.226410E-3
792.358589E-3
792.491913E-3
792.530823E-3
792.415810E-3
792.341995E-3
792.071915E-3
791.920280E-3
791.589546E-3
791.326904E-3
791.009331E-3
790.791321E-3
790.421677E-3
790.074921E-3
789.846611E-3
789.653778E-3
789.440346E-3
789.338493E-3
789.136505E-3
789.008904E-3
788.748550E-3
788.689613E-3
788.667297E-3
788.632965E-3
788.609505E-3
788.534546E-3
788.419533E-3
788.315392E-3
788.374901E-3
788.406944E-3
788.425255E-3
788.280487E-3
788.285065E-3
788.206100E-3
788.150597E-3
788.238716E-3
788.171768E-3
788.060760E-3
787.976646E-3
787.851906E-3
787.878227E-3
787.685966E-3
787.770653E-3
787.580681E-3
787.546349E-3
787.470245E-3
787.385559E-3
787.339783E-3
787.271118E-3
787.161255E-3
787.149811E-3
786.952972E-3
786.946678E-3
786.824799E-3
786.901474E-3
786.727524E-3
786.553001E-3
786.332130E-3
786.147881E-3
786.091805E-3
785.892105E-3
785.755920E-3
785.625458E-3
785.796547E-3
785.663795E-3
785.782242E-3
786.094666E-3
786.974144E-3
788.176346E-3
789.843178E-3
791.682816E-3
793.413734E-3
795.287132E-3
796.429825E-3
797.154808E-3
797.537041E-3
797.447205E-3
796.931076E-3
796.339989E-3
795.501709E-3
794.728661E-3
793.875504E-3
793.295860E-3
792.855835E-3
792.441559E-3
792.226410E-3
792.134285E-3
792.155457E-3
792.264748E-3
792.385483E-3
792.756271E-3
792.611504E-3
792.580605E-3
792.253876E-3
791.906548E-3
791.626740E-3
791.096306E-3
790.901756E-3
790.721512E-3
790.701485E-3
790.959549E-3
791.107178E-3
791.387558E-3
791.587257E-3
791.777229E-3
791.938591E-3
791.948318E-3
791.881371E-3
791.927147E-3
791.567802E-3
791.261673E-3
790.953827E-3
790.803337E-3
790.398788E-3
790.137291E-3
789.749908E-3
789.426613E-3
789.282990E-3
789.022636E-3
788.889313E-3
788.819504E-3
788.612366E-3
788.513374E-3
788.318253E-3
788.372612E-3
788.295937E-3
788.160896E-3
788.105392E-3
788.016129E-3
787.996101E-3
787.979507E-3
787.858772E-3
787.851906E-3
787.774086E-3
787.759781E-3
787.897682E-3
787.779236E-3
787.786102E-3
787.771225E-3
787.670517E-3
787.636185E-3
787.584114E-3
787.696838E-3
787.598991E-3
787.473679E-3
787.445641E-3
787.300301E-3
787.280846E-3
787.232208E-3
787.152100E-3
787.055969E-3
787.229347E-3
787.073135E-3
786.892891E-3
786.702919E-3
786.606216E-3
786.455154E-3
786.455727E-3
786.320114E-3
786.038017E-3
786.099815E-3
785.752487E-3
785.687828E-3
785.565376E-3
785.601425E-3
785.621452E-3
785.546494E-3
785.761642E-3
786.201668E-3
787.187576E-3
788.420677E-3
789.886093E-3
791.731453E-3
793.479538E-3
794.911194E-3
796.172333E-3
796.687889E-3
796.905327E-3
796.868134E-3
796.212387E-3
795.568657E-3
794.666862E-3
793.993950E-3
793.205452E-3
792.603493E-3
792.187500E-3
791.752052E-3
791.666222E-3
791.567230E-3
791.566086E-3
791.617012E-3
791.773224E-3
791.746330E-3
791.595840E-3
791.266251E-3
790.954971E-3
790.445709E-3
790.324402E-3
790.316963E-3
790.208817E-3
790.434265E-3
790.596199E-3
790.885162E-3
791.210175E-3
791.444778E-3
791.853333E-3
791.732597E-3
791.615868E-3
791.538048E-3
791.310883E-3
791.175270E-3
790.770149E-3
790.454865E-3
790.151596E-3
789.912415E-3
789.566231E-3
789.270401E-3
789.027214E-3
788.826942E-3
788.542557E-3
788.509941E-3
788.228416E-3
788.148308E-3
788.052750E-3
788.056183E-3
787.938309E-3
787.762070E-3
787.720299E-3
787.734604E-3
787.635040E-3
787.945747E-3
787.716293E-3
787.607574E-3
787.588120E-3
787.540054E-3
787.537193E-3
787.467384E-3
787.528610E-3
787.475967E-3
787.169838E-3
787.258530E-3
787.348366E-3
787.224197E-3
787.172699E-3
787.185287E-3
787.190437E-3
787.126923E-3
787.098885E-3
787.305450E-3
786.980438E-3
786.888885E-3
786.794472E-3
786.746979E-3
786.595345E-3
786.409378E-3
786.305237E-3
786.042023E-3
785.822296E-3
785.826874E-3
785.492134E-3
785.603142E-3
785.473824E-3
785.593987E-3
785.525894E-3
785.752487E-3
786.463737E-3
787.636185E-3
789.106750E-3
790.769005E-3
792.574883E-3
794.341278E-3
795.707130E-3
796.781731E-3
797.305870E-3
797.374535E-3
797.105598E-3
796.610641E-3
795.964622E-3
795.252800E-3
794.475174E-3
793.821716E-3
793.291283E-3
792.916489E-3
792.716789E-3
792.385483E-3
792.611504E-3
792.636681E-3
792.800903E-3
793.045235E-3
793.066406E-3
793.187141E-3
792.952538E-3
792.667580E-3
792.118263E-3
791.803551E-3
791.575241E-3
791.392136E-3
791.257668E-3
791.409874E-3
791.568947E-3
791.770935E-3
792.009544E-3
792.174911E-3
792.350006E-3
792.357445E-3
792.261887E-3
792.047882E-3
791.900826E-3
791.664505E-3
791.385269E-3
791.161537E-3
790.822792E-3
790.514374E-3
790.326118E-3
789.997101E-3
789.825439E-3
789.694977E-3
789.477539E-3
789.068985E-3
789.052391E-3
789.051819E-3
788.921928E-3
788.800049E-3
788.714218E-3
788.582611E-3
788.539124E-3
788.559723E-3
788.526535E-3
788.526535E-3
788.563156E-3
788.598633E-3
788.454437E-3
788.466454E-3
788.507080E-3
788.389206E-3
788.482475E-3
788.524818E-3
788.406944E-3
788.336563E-3
788.324547E-3
788.269615E-3
788.228989E-3
788.190651E-3
788.098526E-3
788.007545E-3
788.263321E-3
787.986946E-3
787.831306E-3
787.781525E-3
787.539482E-3
787.536049E-3
787.335777E-3
787.178993E-3
786.972427E-3
786.605644E-3
786.477470E-3
786.302948E-3
786.230278E-3
786.119843E-3
786.016273E-3
786.110115E-3
786.139297E-3
786.333847E-3
787.151527E-3
788.152313E-3
789.605141E-3
791.278267E-3
793.073273E-3
794.738388E-3
796.033859E-3
796.911621E-3
