Notes :


2023-11-06 ¿ÀÈÄ 10:55:11
Volts
Ch : LED 2,
335.566521E-3
335.422897E-3
335.454941E-3
335.399437E-3
335.294151E-3
335.323334E-3
335.311890E-3
335.311890E-3
335.416031E-3
335.589981E-3
335.953903E-3
336.360168E-3
336.856270E-3
337.350655E-3
337.949753E-3
338.433266E-3
338.750267E-3
338.966560E-3
339.142799E-3
339.141083E-3
339.089012E-3
338.840675E-3
338.684464E-3
338.662720E-3
338.290787E-3
338.140869E-3
337.928581E-3
337.823296E-3
337.897682E-3
337.905693E-3
337.960052E-3
337.917709E-3
337.922859E-3
337.988091E-3
337.834167E-3
337.740898E-3
337.601280E-3
337.459373E-3
337.535477E-3
337.532616E-3
337.530327E-3
337.356377E-3
337.362099E-3
337.431335E-3
337.346077E-3
337.366104E-3
337.462807E-3
337.547493E-3
337.605858E-3
337.581825E-3
337.714005E-3
337.641907E-3
337.609863E-3
337.548065E-3
337.370110E-3
337.315750E-3
337.148666E-3
337.088013E-3
337.066269E-3
337.030792E-3
336.987877E-3
337.030792E-3
336.942673E-3
336.887741E-3
336.783028E-3
336.771584E-3
336.705208E-3
336.750412E-3
336.721802E-3
336.658859E-3
336.665726E-3
336.562157E-3
336.510658E-3
336.590767E-3
336.556435E-3
336.661720E-3
336.561584E-3
336.471748E-3
336.588478E-3
336.438560E-3
336.519814E-3
336.459160E-3
336.416817E-3
336.525536E-3
336.447144E-3
336.417961E-3
336.425400E-3
336.358452E-3
336.313820E-3
336.310387E-3
336.305809E-3
336.229134E-3
336.285782E-3
336.391068E-3
336.246872E-3
336.219978E-3
336.253738E-3
336.177635E-3
336.202240E-3
336.084938E-3
336.102104E-3
336.066055E-3
335.984802E-3
335.998535E-3
335.937881E-3
335.972214E-3
335.977364E-3
336.015129E-3
336.355591E-3
336.705780E-3
337.196159E-3
337.863350E-3
338.313103E-3
338.780594E-3
339.147949E-3
339.464378E-3
339.656067E-3
339.644623E-3
339.597702E-3
339.461517E-3
339.423752E-3
339.184570E-3
338.988304E-3
338.790894E-3
338.571739E-3
338.499641E-3
338.421249E-3
338.330269E-3
338.424110E-3
338.482475E-3
338.511658E-3
338.441277E-3
338.341141E-3
338.313675E-3
338.160896E-3
338.109398E-3
338.054466E-3
338.056755E-3
338.063622E-3
338.027000E-3
338.131714E-3
338.089371E-3
338.095093E-3
338.243294E-3
338.307953E-3
338.331985E-3
338.340569E-3
338.382339E-3
338.362312E-3
338.200951E-3
338.243866E-3
338.064766E-3
337.952614E-3
337.947464E-3
337.748337E-3
337.758064E-3
337.715721E-3
337.683105E-3
337.665939E-3
337.576103E-3
337.512589E-3
337.429047E-3
337.265968E-3
337.397575E-3
337.225342E-3
337.208176E-3
337.241364E-3
337.142944E-3
337.197876E-3
337.172127E-3
337.035370E-3
337.110901E-3
336.827660E-3
337.046814E-3
336.966133E-3
336.984444E-3
337.006187E-3
336.880302E-3
336.923218E-3
336.906052E-3
336.902618E-3
336.898041E-3
336.782455E-3
336.693764E-3
336.668015E-3
336.618805E-3
336.637688E-3
336.653137E-3
336.655998E-3
336.546707E-3
336.612511E-3
336.477470E-3
336.341286E-3
336.403084E-3
336.234856E-3
336.233139E-3
336.148453E-3
336.001968E-3
335.966492E-3
335.939026E-3
335.987091E-3
336.159897E-3
336.487770E-3
337.015343E-3
337.452507E-3
337.966919E-3
338.398361E-3
338.843536E-3
339.216042E-3
339.352226E-3
339.472961E-3
339.567947E-3
339.347076E-3
339.119339E-3
338.873291E-3
338.787460E-3
338.589478E-3
338.359451E-3
338.263893E-3
338.188362E-3
338.123703E-3
338.100815E-3
338.102531E-3
338.150024E-3
338.075066E-3
338.046455E-3
337.993240E-3
337.748337E-3
337.676811E-3
337.551498E-3
337.613297E-3
337.672234E-3
337.671661E-3
337.669373E-3
337.668800E-3
337.642479E-3
337.719727E-3
337.664795E-3
337.794685E-3
337.829018E-3
337.771225E-3
337.859344E-3
337.843323E-3
337.687111E-3
337.544060E-3
337.401009E-3
337.380981E-3
337.132645E-3
337.129211E-3
337.009048E-3
337.051392E-3
337.047958E-3
336.900330E-3
336.927223E-3
336.857414E-3
336.672020E-3
336.654854E-3
336.566734E-3
336.614799E-3
336.554718E-3
336.561012E-3
336.569595E-3
336.495209E-3
336.492920E-3
336.423683E-3
336.437416E-3
336.391068E-3
336.332130E-3
336.411667E-3
336.268044E-3
336.327553E-3
336.272621E-3
336.209679E-3
336.247444E-3
336.245728E-3
336.193085E-3
336.229134E-3
336.185074E-3
336.072922E-3
336.160469E-3
336.128998E-3
336.169624E-3
336.027145E-3
336.106682E-3
336.085510E-3
336.048889E-3
336.004257E-3
335.933876E-3
335.943604E-3
335.911560E-3
335.801697E-3
335.799980E-3
335.711288E-3
335.767365E-3
335.767937E-3
335.970497E-3
336.213684E-3
336.634254E-3
337.223053E-3
337.792397E-3
338.299942E-3
338.798904E-3
339.087296E-3
339.452362E-3
339.464951E-3
339.579964E-3
339.454079E-3
339.247513E-3
339.175415E-3
338.963699E-3
338.795471E-3
338.635826E-3
338.467026E-3
338.429832E-3
338.375473E-3
338.361168E-3
338.436699E-3
338.503075E-3
338.465881E-3
338.437271E-3
338.349724E-3
338.268471E-3
338.037872E-3
337.919998E-3
337.912560E-3
337.893105E-3
337.884521E-3
337.845039E-3
337.872505E-3
337.917709E-3
337.960625E-3
337.881660E-3
337.931442E-3
337.931442E-3
337.973785E-3
337.907982E-3
338.004112E-3
337.920570E-3
337.898827E-3
337.755775E-3
337.651634E-3
337.632179E-3
337.491417E-3
337.449646E-3
337.437630E-3
337.319756E-3
337.315178E-3
337.187004E-3
337.139511E-3
337.253380E-3
337.057114E-3
337.169838E-3
337.087440E-3
337.077713E-3
337.092018E-3
336.963272E-3
337.034225E-3
336.993599E-3
336.959839E-3
336.925507E-3
336.943817E-3
336.971855E-3
336.922646E-3
336.902046E-3
336.882591E-3
336.816788E-3
336.920929E-3
336.880875E-3
336.914062E-3
336.825943E-3
336.754990E-3
336.803627E-3
336.775589E-3
336.736107E-3
336.754417E-3
336.661720E-3
336.741829E-3
336.720085E-3
336.745262E-3
336.676025E-3
336.641121E-3
336.681747E-3
336.576462E-3
336.516380E-3
336.562729E-3
336.386490E-3
336.456871E-3
336.437416E-3
336.368752E-3
336.507797E-3
336.626244E-3
337.056541E-3
337.486267E-3
338.025856E-3
338.596916E-3
339.065552E-3
339.585114E-3
339.839172E-3
340.096092E-3
340.168190E-3
340.118980E-3
340.010262E-3
339.769363E-3
339.702415E-3
339.594841E-3
339.345932E-3
339.269829E-3
339.061546E-3
339.033508E-3
338.875580E-3
338.953400E-3
339.023209E-3
339.004898E-3
339.098167E-3
339.014626E-3
338.806915E-3
338.766861E-3
338.604927E-3
338.655281E-3
338.640404E-3
338.529396E-3
338.653564E-3
338.543129E-3
338.675880E-3
338.647842E-3
338.694191E-3
338.761711E-3
338.741112E-3
338.766289E-3
338.732529E-3
338.680458E-3
338.767433E-3
338.603783E-3
338.511086E-3
338.440704E-3
338.234711E-3
338.352585E-3
338.117409E-3
337.949181E-3
338.045883E-3
337.971497E-3
338.028717E-3
337.935448E-3
337.838173E-3
337.808990E-3
337.708855E-3
337.757492E-3
337.613297E-3
337.626457E-3
337.584114E-3
337.558365E-3
337.555504E-3
337.473679E-3
337.457657E-3
337.561798E-3
337.461662E-3
337.407875E-3
337.279129E-3
337.278557E-3
337.342072E-3
337.235069E-3
337.278557E-3
337.173843E-3
337.096024E-3
337.090874E-3
337.069130E-3
337.151527E-3
337.009048E-3
336.939812E-3
336.989594E-3
336.949539E-3
336.939812E-3
336.808777E-3
336.739540E-3
336.712646E-3
336.673164E-3
336.630821E-3
336.602783E-3
336.508369E-3
336.394501E-3
336.356163E-3
336.527252E-3
336.677170E-3
337.117195E-3
337.608719E-3
338.123131E-3
338.618660E-3
339.120483E-3
339.540482E-3
339.844894E-3
339.898109E-3
339.958191E-3
339.959335E-3
339.829445E-3
339.616585E-3
339.435768E-3
339.386559E-3
339.177704E-3
338.971138E-3
338.816643E-3
338.697624E-3
338.746834E-3
338.749123E-3
338.731956E-3
338.832092E-3
338.720512E-3
338.741112E-3
338.624954E-3
338.424110E-3
338.264465E-3
338.232422E-3
338.225555E-3
338.184357E-3
338.182640E-3
338.314247E-3
338.096237E-3
338.169479E-3
338.270760E-3
338.196373E-3
338.298225E-3
338.271332E-3
338.317108E-3
338.335419E-3
338.229561E-3
338.202095E-3
338.008118E-3
337.993240E-3
337.798119E-3
337.712860E-3
337.755775E-3
337.615585E-3
337.619591E-3
337.471962E-3
337.466240E-3
337.409019E-3
337.272835E-3
337.319756E-3
337.219048E-3
337.129211E-3
337.175560E-3
337.058830E-3
337.054253E-3
337.058830E-3
337.013626E-3
337.058830E-3
336.949539E-3
336.984444E-3
336.985016E-3
336.872864E-3
336.900330E-3
336.823654E-3
336.728096E-3
336.771011E-3
336.736679E-3
336.746407E-3
336.754990E-3
336.702347E-3
336.698914E-3
336.652565E-3
336.626244E-3
336.627388E-3
336.613655E-3
336.672592E-3
336.571884E-3
336.573601E-3
336.409950E-3
336.437988E-3
336.384201E-3
336.273766E-3
336.232567E-3
336.164474E-3
336.168480E-3
336.237717E-3
336.213112E-3
336.312103E-3
336.415672E-3
336.896896E-3
337.316895E-3
337.774658E-3
338.389206E-3
338.845825E-3
339.444351E-3
339.773369E-3
339.963913E-3
340.114403E-3
340.034866E-3
339.943886E-3
339.783669E-3
339.680672E-3
339.586258E-3
339.303017E-3
339.136505E-3
339.048958E-3
339.031219E-3
339.031219E-3
339.004898E-3
339.082146E-3
339.060974E-3
338.970566E-3
339.067841E-3
338.884163E-3
338.765717E-3
338.656998E-3
338.404083E-3
338.514519E-3
338.479614E-3
338.470459E-3
338.494492E-3
338.381195E-3
338.416672E-3
338.446999E-3
338.547707E-3
338.598633E-3
338.566589E-3
338.594055E-3
338.517380E-3
338.497353E-3
338.520813E-3
338.373184E-3
338.342857E-3
338.178635E-3
338.129997E-3
338.039589E-3
337.960052E-3
337.987518E-3
337.869644E-3
337.876511E-3
337.798691E-3
337.734604E-3
337.761497E-3
337.615585E-3
337.602997E-3
337.627602E-3
337.451363E-3
337.519455E-3
337.513733E-3
337.575531E-3
337.565804E-3
337.408447E-3
337.323761E-3
337.321472E-3
337.286568E-3
337.277985E-3
337.304878E-3
337.346077E-3
337.274551E-3
337.284279E-3
337.302017E-3
337.203026E-3
337.316322E-3
337.166405E-3
337.268829E-3
337.242508E-3
337.138939E-3
337.228775E-3
337.161255E-3
337.150955E-3
337.054253E-3
337.063980E-3
337.116051E-3
336.975861E-3
336.960983E-3
336.964989E-3
336.924362E-3
336.906624E-3
336.815071E-3
336.777878E-3
336.745262E-3
336.673164E-3
336.725235E-3
336.744118E-3
336.835098E-3
337.235069E-3
337.747192E-3
338.299370E-3
338.787460E-3
339.422607E-3
339.869499E-3
340.255165E-3
340.612221E-3
340.606499E-3
340.664291E-3
340.469742E-3
340.206528E-3
340.261459E-3
340.006256E-3
339.815140E-3
339.657211E-3
339.500999E-3
339.389420E-3
339.276123E-3
339.417458E-3
339.478111E-3
339.393997E-3
339.542770E-3
339.413452E-3
339.383698E-3
339.289284E-3
339.083290E-3
339.085007E-3
338.911057E-3
339.002609E-3
339.024925E-3
338.974571E-3
339.067841E-3
339.066124E-3
339.097595E-3
339.140511E-3
339.198875E-3
339.082718E-3
339.170265E-3
339.136505E-3
339.151955E-3
338.987160E-3
338.958549E-3
338.849258E-3
338.652992E-3
338.674736E-3
338.575172E-3
338.468742E-3
338.425827E-3
338.365746E-3
338.309669E-3
338.232994E-3
338.208961E-3
338.068199E-3
337.968063E-3
338.056183E-3
337.942314E-3
337.883949E-3
337.897110E-3
337.893105E-3
337.820435E-3
337.738037E-3
337.695694E-3
337.683678E-3
337.673950E-3
337.706566E-3
337.615585E-3
337.513161E-3
337.494278E-3
337.460518E-3
337.430763E-3
337.331772E-3
337.349510E-3
337.444496E-3
337.384415E-3
337.289429E-3
337.180138E-3
337.282562E-3
337.174988E-3
337.170982E-3
337.165833E-3
337.027931E-3
336.971855E-3
336.973000E-3
336.784744E-3
336.756706E-3
336.736679E-3
336.719513E-3
336.657715E-3
336.583328E-3
336.598778E-3
336.537552E-3
336.737823E-3
336.970711E-3
337.453079E-3
337.915421E-3
338.424110E-3
338.991165E-3
339.490128E-3
339.920998E-3
340.155602E-3
340.230560E-3
340.261459E-3
340.170479E-3
340.093803E-3
339.924431E-3
339.663506E-3
339.466667E-3
339.282990E-3
339.178276E-3
339.110756E-3
338.952827E-3
338.941956E-3
338.935661E-3
339.032364E-3
339.029503E-3
339.007759E-3
338.885307E-3
338.706207E-3
338.567162E-3
338.485909E-3
338.330269E-3
338.418388E-3
338.488197E-3
338.413811E-3
338.415527E-3
338.361168E-3
338.407516E-3
338.446999E-3
338.435555E-3
338.496208E-3
338.449860E-3
338.443565E-3
338.461876E-3
338.282204E-3
338.394928E-3
338.153458E-3
338.155174E-3
337.964630E-3
337.796402E-3
337.752914E-3
337.676239E-3
337.673378E-3
337.638474E-3
337.472534E-3
337.466240E-3
337.392426E-3
337.361526E-3
337.263680E-3
337.222481E-3
337.196732E-3
337.163544E-3
337.000465E-3
337.067986E-3
336.981010E-3
336.985588E-3
336.952972E-3
336.960411E-3
336.908340E-3
336.849976E-3
336.873436E-3
336.776733E-3
336.807632E-3
336.757278E-3
336.737251E-3
336.804199E-3
336.760712E-3
336.736107E-3
336.712646E-3
336.651993E-3
336.701202E-3
336.575317E-3
336.496353E-3
336.536980E-3
336.438560E-3
336.575890E-3
336.444283E-3
336.442566E-3
336.400795E-3
336.391068E-3
336.285782E-3
336.223412E-3
336.177635E-3
336.100960E-3
336.027718E-3
336.062050E-3
335.996819E-3
336.058617E-3
336.165619E-3
336.352158E-3
336.891747E-3
337.393570E-3
337.924004E-3
338.493919E-3
338.914490E-3
339.443779E-3
339.745331E-3
340.002823E-3
340.032005E-3
339.969063E-3
339.895248E-3
339.671516E-3
339.590836E-3
339.354515E-3
339.199448E-3
339.027214E-3
338.930511E-3
338.908195E-3
338.862419E-3
338.792610E-3
338.882446E-3
338.845825E-3
338.892174E-3
338.817215E-3
338.657570E-3
338.616943E-3
338.505363E-3
338.409233E-3
338.366890E-3
338.379478E-3
338.495064E-3
338.327980E-3
338.326263E-3
338.369751E-3
338.304520E-3
338.424683E-3
338.463020E-3
338.448715E-3
338.428688E-3
338.418388E-3
338.394928E-3
338.279343E-3
338.305664E-3
338.150024E-3
338.044739E-3
338.068199E-3
337.914276E-3
337.861061E-3
337.801552E-3
337.781525E-3
337.731743E-3
337.668800E-3
337.631035E-3
337.578964E-3
337.502861E-3
337.526321E-3
337.407875E-3
337.396431E-3
337.385559E-3
337.536049E-3
337.458229E-3
337.424469E-3
337.264824E-3
337.359238E-3
337.249947E-3
337.350082E-3
337.182999E-3
337.170410E-3
337.204742E-3
337.134933E-3
337.189293E-3
337.142372E-3
337.193298E-3
337.208748E-3
337.094879E-3
337.199593E-3
337.015343E-3
337.044525E-3
337.033081E-3
336.924362E-3
337.006187E-3
336.964989E-3
336.964417E-3
337.024498E-3
337.002754E-3
337.059402E-3
336.904335E-3
336.870575E-3
336.834526E-3
336.770439E-3
336.750984E-3
336.796188E-3
336.715508E-3
336.689758E-3
336.597061E-3
336.682892E-3
336.749268E-3
337.168694E-3
337.676239E-3
338.227844E-3
338.752556E-3
339.284134E-3
339.692116E-3
340.130424E-3
340.352440E-3
340.506935E-3
340.361023E-3
340.280342E-3
340.195656E-3
340.028000E-3
339.850044E-3
339.655495E-3
339.519310E-3
339.463234E-3
339.276695E-3
339.317894E-3
339.259529E-3
339.227486E-3
339.388275E-3
339.284134E-3
339.316750E-3
339.151382E-3
338.932228E-3
338.874435E-3
338.797188E-3
338.789177E-3
338.815498E-3
338.848686E-3
338.885880E-3
338.840103E-3
338.839531E-3
338.926506E-3
338.895035E-3
338.967705E-3
338.896179E-3
338.961411E-3
338.948250E-3
338.882446E-3
338.766861E-3
338.675308E-3
338.619232E-3
338.492775E-3
338.348579E-3
338.316536E-3
338.185501E-3
338.148308E-3
338.050461E-3
338.185501E-3
338.027000E-3
337.847328E-3
337.875938E-3
337.810707E-3
337.673378E-3
337.655067E-3
337.489128E-3
337.565804E-3
337.512016E-3
337.404442E-3
337.439346E-3
337.312889E-3
337.281990E-3
337.256241E-3
