Notes :


2023-10-26 ¿ÀÈÄ 10:56:19
Volts
Ch : LED 2,
289.244270E-3
290.337181E-3
289.750671E-3
291.708183E-3
291.895294E-3
291.213799E-3
292.254066E-3
291.518211E-3
292.523575E-3
291.539955E-3
288.741875E-3
285.155869E-3
279.489326E-3
275.427818E-3
269.704628E-3
264.138794E-3
261.159325E-3
258.327484E-3
258.972359E-3
258.938026E-3
259.595490E-3
262.010193E-3
263.363457E-3
266.728592E-3
268.309593E-3
269.081497E-3
271.305656E-3
271.595192E-3
273.346710E-3
273.361015E-3
272.476959E-3
272.201729E-3
271.996880E-3
273.420525E-3
273.676872E-3
273.855972E-3
275.468445E-3
275.540543E-3
276.850319E-3
276.195717E-3
274.371529E-3
274.825859E-3
273.769569E-3
274.128342E-3
273.296356E-3
272.371101E-3
272.884941E-3
272.591972E-3
274.129486E-3
274.495125E-3
274.526596E-3
275.881004E-3
275.942230E-3
278.013611E-3
278.722000E-3
278.675652E-3
280.236626E-3
280.215454E-3
281.847954E-3
282.503128E-3
282.178688E-3
283.197212E-3
282.973480E-3
284.090424E-3
283.977127E-3
283.112526E-3
283.938217E-3
283.581734E-3
284.869194E-3
284.581375E-3
284.061813E-3
284.735298E-3
284.243774E-3
285.426521E-3
285.285759E-3
284.712982E-3
285.377884E-3
284.881210E-3
285.860252E-3
285.849953E-3
285.517502E-3
286.514282E-3
286.031914E-3
287.290192E-3
287.347984E-3
286.890793E-3
288.145065E-3
287.547684E-3
288.804817E-3
288.954163E-3
288.321304E-3
288.989067E-3
288.601685E-3
289.711189E-3
289.939499E-3
289.329529E-3
290.324020E-3
289.855957E-3
290.892792E-3
291.043282E-3
289.719200E-3
291.408348E-3
291.217804E-3
292.650604E-3
293.029404E-3
292.393112E-3
293.166161E-3
292.195129E-3
291.502190E-3
288.392830E-3
283.073616E-3
278.413010E-3
271.515656E-3
266.642189E-3
261.955833E-3
257.168770E-3
256.865501E-3
256.051254E-3
257.415962E-3
258.646202E-3
259.494781E-3
262.208748E-3
263.673592E-3
266.212463E-3
267.967415E-3
267.914200E-3
269.426537E-3
268.747330E-3
269.544411E-3
269.153023E-3
267.628670E-3
268.599129E-3
267.692757E-3
268.476105E-3
268.960762E-3
269.151306E-3
271.624374E-3
271.449280E-3
272.493553E-3
272.542763E-3
271.362305E-3
272.372818E-3
271.147156E-3
271.245003E-3
270.930862E-3
269.380760E-3
271.421242E-3
270.715141E-3
271.818352E-3
272.173691E-3
271.074486E-3
274.289703E-3
274.165535E-3
275.608635E-3
276.603127E-3
276.702118E-3
278.823280E-3
278.312302E-3
279.382324E-3
279.912758E-3
279.429245E-3
281.239700E-3
280.382538E-3
280.859756E-3
280.979919E-3
280.397415E-3
282.101440E-3
281.137276E-3
281.511497E-3
282.131767E-3
280.335045E-3
282.706261E-3
281.895447E-3
282.550049E-3
282.749748E-3
281.532669E-3
283.994293E-3
282.995224E-3
283.428383E-3
283.861542E-3
283.449554E-3
285.638237E-3
284.497261E-3
285.060883E-3
285.801315E-3
285.256004E-3
287.156296E-3
286.275673E-3
286.741447E-3
287.260437E-3
285.871124E-3
288.178253E-3
287.194061E-3
287.817192E-3
288.458633E-3
286.580086E-3
289.144135E-3
288.570786E-3
289.262009E-3
289.884567E-3
289.746666E-3
291.404915E-3
290.467072E-3
291.252136E-3
291.926765E-3
291.703033E-3
293.147850E-3
291.369438E-3
290.205574E-3
287.341690E-3
281.914902E-3
277.462006E-3
270.328331E-3
265.294647E-3
261.070633E-3
257.451439E-3
257.462311E-3
255.966568E-3
256.898117E-3
258.619308E-3
260.128784E-3
263.494492E-3
264.062691E-3
266.190147E-3
267.873573E-3
267.212105E-3
269.614792E-3
268.577957E-3
268.809700E-3
269.034004E-3
268.073273E-3
268.775940E-3
267.442703E-3
268.266678E-3
269.763565E-3
270.041656E-3
272.282410E-3
271.864700E-3
272.508430E-3
272.882080E-3
272.151947E-3
272.792244E-3
271.256447E-3
271.054459E-3
271.008110E-3
270.410156E-3
271.784019E-3
271.139145E-3
271.681595E-3
272.650337E-3
271.956825E-3
274.738312E-3
274.784660E-3
275.901031E-3
277.168465E-3
277.170181E-3
279.348564E-3
279.005241E-3
279.684448E-3
280.222893E-3
278.746033E-3
281.067467E-3
280.557632E-3
280.929565E-3
281.413651E-3
280.925560E-3
282.402992E-3
281.560707E-3
281.997871E-3
282.084846E-3
281.593895E-3
283.049583E-3
282.271385E-3
282.305717E-3
283.019829E-3
282.421303E-3
284.046936E-3
283.222389E-3
283.061600E-3
283.973122E-3
283.485031E-3
285.025406E-3
284.457207E-3
284.911537E-3
285.472870E-3
285.114098E-3
286.670494E-3
285.937500E-3
286.101723E-3
286.895943E-3
284.623146E-3
287.214661E-3
286.918831E-3
287.250137E-3
288.107872E-3
287.635231E-3
289.049149E-3
288.704681E-3
289.031982E-3
290.062523E-3
289.593315E-3
291.147423E-3
290.633583E-3
290.639305E-3
290.880203E-3
289.701462E-3
289.132118E-3
285.723495E-3
281.545830E-3
276.573372E-3
268.078995E-3
265.152168E-3
260.979080E-3
258.139801E-3
257.487488E-3
256.321335E-3
258.457375E-3
259.575462E-3
261.397934E-3
264.165688E-3
265.133858E-3
268.144798E-3
269.114113E-3
270.110321E-3
271.119690E-3
269.959831E-3
271.254158E-3
270.613289E-3
270.473671E-3
270.967484E-3
270.199585E-3
272.158813E-3
272.680664E-3
273.471451E-3
274.294281E-3
273.459435E-3
274.748039E-3
273.800468E-3
272.938156E-3
272.859764E-3
271.230698E-3
272.097015E-3
271.373749E-3
271.363449E-3
272.261810E-3
271.774864E-3
273.699188E-3
274.170113E-3
274.635887E-3
275.642967E-3
275.658989E-3
277.887154E-3
278.548622E-3
278.920555E-3
280.071831E-3
279.624367E-3
281.558990E-3
281.636238E-3
281.702042E-3
282.377815E-3
281.612206E-3
283.198929E-3
282.926559E-3
282.591820E-3
283.041000E-3
281.822777E-3
283.389473E-3
283.042717E-3
282.803535E-3
283.482170E-3
282.463646E-3
284.266663E-3
284.040070E-3
283.627510E-3
284.263229E-3
283.414078E-3
285.175896E-3
285.169601E-3
284.730148E-3
285.439110E-3
284.795952E-3
286.465645E-3
286.360359E-3
286.135483E-3
286.939430E-3
286.077118E-3
287.856674E-3
287.797165E-3
287.222672E-3
288.058662E-3
287.327385E-3
289.002800E-3
288.575363E-3
288.508415E-3
289.374733E-3
289.027977E-3
290.550613E-3
290.351486E-3
290.202713E-3
291.280174E-3
290.846443E-3
292.214012E-3
291.409492E-3
289.356995E-3
287.024689E-3
281.929207E-3
277.479744E-3
271.087646E-3
264.725304E-3
260.580826E-3
256.535339E-3
255.774307E-3
255.090523E-3
254.837608E-3
256.604576E-3
257.656288E-3
260.344505E-3
262.085724E-3
263.245010E-3
265.201950E-3
265.537834E-3
267.185783E-3
266.707993E-3
265.954399E-3
266.218758E-3
265.172768E-3
265.999603E-3
265.378189E-3
265.235710E-3
266.594696E-3
266.765785E-3
269.070625E-3
269.540405E-3
269.694901E-3
270.459938E-3
269.725227E-3
270.625877E-3
269.784164E-3
268.876076E-3
269.290352E-3
268.250084E-3
269.255447E-3
269.499207E-3
269.439697E-3
269.797325E-3
270.612717E-3
272.274399E-3
273.053741E-3
272.280121E-3
274.241638E-3
274.566650E-3
276.355362E-3
277.094650E-3
276.995087E-3
278.321457E-3
277.977562E-3
279.096222E-3
279.100227E-3
278.693962E-3
279.299355E-3
279.007530E-3
280.229759E-3
280.315590E-3
279.678726E-3
280.615425E-3
279.969406E-3
281.038857E-3
281.328392E-3
280.637741E-3
281.515503E-3
280.981064E-3
282.206154E-3
282.364655E-3
281.733513E-3
282.756042E-3
282.391548E-3
283.427811E-3
283.759689E-3
283.206367E-3
284.203148E-3
283.831787E-3
285.046005E-3
285.313225E-3
283.723640E-3
285.347557E-3
285.165024E-3
286.086845E-3
286.425591E-3
285.611343E-3
286.604691E-3
286.163521E-3
287.192917E-3
287.690163E-3
287.011528E-3
288.838005E-3
288.309288E-3
289.288902E-3
289.798737E-3
288.709259E-3
290.697670E-3
290.255356E-3
290.951729E-3
290.264511E-3
287.167168E-3
285.110092E-3
279.114532E-3
273.725510E-3
267.852974E-3
261.572456E-3
259.064484E-3
255.499077E-3
254.884529E-3
255.156326E-3
255.182076E-3
258.205605E-3
259.065056E-3
261.397362E-3
263.082504E-3
263.278198E-3
266.386986E-3
266.233635E-3
267.377472E-3
267.670441E-3
266.204453E-3
267.192650E-3
265.908623E-3
265.889168E-3
266.186142E-3
265.996742E-3
268.371964E-3
268.304443E-3
269.751549E-3
270.739746E-3
270.445061E-3
271.957970E-3
270.729446E-3
270.742607E-3
270.383263E-3
269.214821E-3
270.522308E-3
269.514656E-3
269.936371E-3
270.730019E-3
270.327187E-3
272.641182E-3
272.000885E-3
273.209953E-3
274.563789E-3
274.734306E-3
276.929855E-3
276.555634E-3
277.444267E-3
278.178978E-3
278.214455E-3
280.325317E-3
279.507065E-3
280.214882E-3
280.727005E-3
280.032921E-3
281.723785E-3
280.562210E-3
280.820274E-3
281.286621E-3
280.181122E-3
282.289696E-3
281.114960E-3
281.504631E-3
282.172966E-3
280.499840E-3
283.029556E-3
282.023621E-3
282.765198E-3
283.292198E-3
282.667923E-3
284.619141E-3
283.617210E-3
284.099007E-3
284.707832E-3
284.667778E-3
285.989571E-3
285.227394E-3
285.823059E-3
286.395836E-3
286.211014E-3
287.672424E-3
286.625862E-3
287.267303E-3
287.703896E-3
286.517715E-3
288.496399E-3
287.592316E-3
288.108444E-3
289.005089E-3
288.619423E-3
290.144348E-3
289.409637E-3
289.961815E-3
290.662193E-3
290.596390E-3
292.144203E-3
291.518211E-3
291.926765E-3
292.305565E-3
291.576004E-3
291.461563E-3
287.537384E-3
283.489037E-3
278.396988E-3
271.959686E-3
267.646408E-3
262.129211E-3
259.221840E-3
257.900047E-3
257.204819E-3
259.176636E-3
259.710503E-3
261.987877E-3
264.273262E-3
265.698624E-3
268.781662E-3
269.351006E-3
270.595551E-3
271.548843E-3
271.179199E-3
272.542191E-3
271.232414E-3
271.216393E-3
271.022987E-3
270.980072E-3
272.844315E-3
272.616005E-3
273.990440E-3
274.825859E-3
274.465942E-3
275.578880E-3
274.340630E-3
273.734093E-3
273.542404E-3
271.511078E-3
272.810555E-3
271.956825E-3
272.001457E-3
272.871208E-3
272.447205E-3
274.516296E-3
274.316597E-3
274.939728E-3
276.345634E-3
276.306725E-3
278.506279E-3
278.467369E-3
279.167175E-3
280.416870E-3
280.461502E-3
282.217026E-3
281.790161E-3
282.237053E-3
282.892227E-3
282.398415E-3
283.651543E-3
283.020401E-3
283.240128E-3
283.906746E-3
283.073616E-3
284.460068E-3
283.830643E-3
283.888435E-3
284.372520E-3
283.521080E-3
284.920692E-3
284.273529E-3
284.326172E-3
285.217667E-3
284.474373E-3
286.005592E-3
285.496330E-3
285.566139E-3
285.839081E-3
285.449982E-3
287.251854E-3
286.817551E-3
287.008095E-3
287.945366E-3
287.136841E-3
288.676071E-3
288.497543E-3
288.592529E-3
289.315224E-3
288.202858E-3
289.644241E-3
289.388466E-3
289.438820E-3
290.128326E-3
289.265442E-3
290.783501E-3
290.796661E-3
291.036415E-3
292.096710E-3
291.209221E-3
292.852592E-3
292.818832E-3
292.878342E-3
292.977905E-3
290.598679E-3
290.384674E-3
286.711121E-3
281.908035E-3
276.382828E-3
269.092941E-3
265.029144E-3
260.214615E-3
257.341576E-3
256.326485E-3
255.084229E-3
257.172203E-3
258.469963E-3
260.400581E-3
262.697983E-3
263.663864E-3
266.724586E-3
267.311096E-3
268.233490E-3
269.187927E-3
268.229485E-3
269.527245E-3
268.989372E-3
268.258095E-3
268.459511E-3
267.371750E-3
269.221687E-3
269.609642E-3
270.355225E-3
271.817207E-3
271.437836E-3
273.217964E-3
272.550774E-3
272.018623E-3
271.941376E-3
270.510864E-3
271.580887E-3
270.905113E-3
270.603561E-3
271.602058E-3
270.623589E-3
272.495270E-3
272.670364E-3
272.904968E-3
274.476242E-3
274.173546E-3
276.433182E-3
276.881218E-3
277.095795E-3
278.542900E-3
278.248787E-3
280.547905E-3
280.668068E-3
280.534744E-3
281.241989E-3
280.240631E-3
282.134628E-3
282.050514E-3
281.620789E-3
282.259941E-3
281.187630E-3
282.990074E-3
282.568932E-3
282.168961E-3
282.926559E-3
282.001877E-3
283.868408E-3
283.646393E-3
283.277321E-3
284.010887E-3
283.376884E-3
284.941292E-3
284.968185E-3
284.405708E-3
285.229111E-3
284.742737E-3
286.441612E-3
286.558914E-3
285.923195E-3
286.930275E-3
286.630440E-3
288.090706E-3
288.155937E-3
287.662125E-3
288.543892E-3
288.365364E-3
289.600182E-3
289.541817E-3
288.845444E-3
289.704323E-3
289.226532E-3
290.430450E-3
290.282249E-3
289.587593E-3
290.568924E-3
290.059090E-3
291.691589E-3
291.419792E-3
290.623283E-3
292.024612E-3
292.049789E-3
293.597603E-3
293.395615E-3
293.169022E-3
293.269157E-3
291.381454E-3
289.538956E-3
284.652901E-3
278.331757E-3
272.679520E-3
266.111755E-3
262.403870E-3
258.736038E-3
256.093597E-3
256.128502E-3
255.923653E-3
258.294868E-3
259.967995E-3
261.221695E-3
263.979721E-3
265.350723E-3
267.481613E-3
268.761063E-3
268.758774E-3
270.014763E-3
269.055748E-3
269.717789E-3
269.170761E-3
268.220329E-3
268.236923E-3
268.137932E-3
269.801903E-3
270.452499E-3
270.833015E-3
272.449493E-3
272.202873E-3
273.232269E-3
273.058891E-3
272.175407E-3
272.403717E-3
271.555710E-3
271.966553E-3
272.205162E-3
270.726585E-3
271.715927E-3
271.959686E-3
273.622513E-3
273.992157E-3
274.310303E-3
275.879860E-3
276.029778E-3
277.922058E-3
278.728294E-3
278.682518E-3
280.430603E-3
280.393982E-3
281.704903E-3
282.035637E-3
281.752396E-3
282.272530E-3
282.194138E-3
283.467293E-3
283.506203E-3
282.917976E-3
283.902168E-3
283.364296E-3
284.477806E-3
284.535599E-3
284.002876E-3
284.901810E-3
284.445763E-3
285.623360E-3
285.592461E-3
284.924698E-3
285.847664E-3
285.579300E-3
286.669350E-3
286.907959E-3
286.337471E-3
287.574005E-3
286.901093E-3
288.187981E-3
288.507843E-3
287.940216E-3
289.222527E-3
288.807106E-3
290.174675E-3
290.343475E-3
289.753532E-3
290.825844E-3
290.437317E-3
291.743660E-3
291.966248E-3
291.222954E-3
292.327309E-3
291.819763E-3
292.597389E-3
292.540741E-3
291.942215E-3
292.818832E-3
292.543602E-3
293.532372E-3
293.504333E-3
293.167877E-3
294.405556E-3
293.940353E-3
295.133972E-3
295.478439E-3
294.935989E-3
296.354485E-3
295.825768E-3
296.539879E-3
295.777702E-3
292.527008E-3
289.838791E-3
283.715057E-3
278.294563E-3
271.978569E-3
265.726089E-3
263.171768E-3
259.838676E-3
259.530258E-3
260.015488E-3
260.123634E-3
263.338280E-3
264.477539E-3
267.244720E-3
269.729805E-3
270.577240E-3
273.571587E-3
273.917198E-3
274.999809E-3
275.122833E-3
274.149513E-3
275.384903E-3
273.946381E-3
274.590683E-3
274.206161E-3
273.989296E-3
276.350212E-3
275.994301E-3
277.310944E-3
277.425957E-3
276.678085E-3
278.255081E-3
276.459503E-3
276.175690E-3
275.808907E-3
274.649620E-3
276.287270E-3
274.976349E-3
275.827217E-3
276.018906E-3
275.710487E-3
278.089714E-3
277.355003E-3
278.902245E-3
279.878426E-3
279.723930E-3
282.202148E-3
281.823921E-3
283.046722E-3
283.808327E-3
283.441544E-3
285.636520E-3
284.744453E-3
285.350418E-3
285.874557E-3
285.218811E-3
286.789513E-3
285.738373E-3
286.108017E-3
286.497116E-3
285.673141E-3
287.355423E-3
286.200714E-3
286.436462E-3
286.711121E-3
285.161018E-3
287.487030E-3
286.499405E-3
287.107086E-3
287.631798E-3
287.143135E-3
288.827705E-3
287.836647E-3
288.248062E-3
288.596535E-3
288.275528E-3
290.067673E-3
289.034843E-3
289.651680E-3
290.418434E-3
290.095139E-3
291.699600E-3
290.357208E-3
290.843010E-3
291.192627E-3
290.818977E-3
292.404556E-3
291.147423E-3
291.540527E-3
292.211723E-3
291.673851E-3
293.356133E-3
292.393684E-3
292.922401E-3
293.200493E-3
293.112946E-3
294.916534E-3
294.171524E-3
294.555473E-3
295.072174E-3
294.824982E-3
296.109581E-3
294.195557E-3
292.437172E-3
289.061165E-3
283.868980E-3
279.529381E-3
272.256088E-3
