Notes :


2023-11-11 ¿ÀÀü 12:10:03
Volts
Ch : LED 2,
745.600319E-3
745.215225E-3
745.319939E-3
745.505905E-3
746.048355E-3
746.973038E-3
747.373009E-3
747.605324E-3
747.274590E-3
746.244621E-3
744.824409E-3
743.209076E-3
742.063522E-3
741.395187E-3
741.469002E-3
741.737366E-3
742.281532E-3
743.214226E-3
743.964386E-3
744.391823E-3
744.800949E-3
744.557762E-3
744.217873E-3
743.515205E-3
742.658043E-3
742.032051E-3
741.030693E-3
740.376663E-3
739.423943E-3
738.535309E-3
737.769127E-3
736.852455E-3
735.983276E-3
735.708618E-3
735.191345E-3
734.937286E-3
734.400558E-3
734.241486E-3
733.927345E-3
733.600044E-3
733.473587E-3
733.202934E-3
733.157158E-3
733.112526E-3
732.820702E-3
732.702255E-3
732.414436E-3
732.450485E-3
732.426453E-3
732.289696E-3
732.344627E-3
732.090569E-3
732.261086E-3
732.269096E-3
732.158089E-3
732.096863E-3
731.915474E-3
731.641960E-3
731.527519E-3
731.266594E-3
731.218529E-3
730.765915E-3
730.626869E-3
730.497551E-3
730.260658E-3
730.262375E-3
729.908180E-3
729.908180E-3
729.698753E-3
729.291916E-3
729.037285E-3
728.624725E-3
728.443909E-3
728.084564E-3
727.570724E-3
727.309227E-3
726.775932E-3
726.471519E-3
725.979424E-3
725.685310E-3
725.519371E-3
725.182343E-3
725.231552E-3
725.394630E-3
725.697899E-3
726.721573E-3
728.638458E-3
732.339478E-3
737.172318E-3
742.598534E-3
748.129463E-3
752.727127E-3
756.341171E-3
758.195114E-3
758.672333E-3
757.930756E-3
756.024170E-3
753.754807E-3
751.407051E-3
749.099350E-3
747.065163E-3
745.294189E-3
744.256783E-3
743.566132E-3
743.335533E-3
743.650818E-3
743.868256E-3
744.411850E-3
744.721413E-3
744.814682E-3
744.486809E-3
743.261147E-3
742.098999E-3
740.912819E-3
740.123177E-3
740.041351E-3
740.302849E-3
741.087341E-3
742.078400E-3
743.019676E-3
744.062805E-3
744.553185E-3
744.635582E-3
744.472504E-3
743.843079E-3
743.187904E-3
742.162514E-3
741.379166E-3
740.407562E-3
739.297485E-3
738.499260E-3
737.682152E-3
737.015533E-3
736.386681E-3
735.746384E-3
735.467720E-3
734.962463E-3
734.691811E-3
734.472084E-3
734.383965E-3
734.201431E-3
733.916473E-3
733.930779E-3
733.702469E-3
733.411789E-3
733.370018E-3
733.059311E-3
732.856750E-3
732.665634E-3
732.366371E-3
732.234764E-3
731.921768E-3
731.713486E-3
731.609344E-3
731.007385E-3
731.033134E-3
730.827713E-3
730.652618E-3
730.370522E-3
730.079269E-3
729.856110E-3
729.472160E-3
729.197502E-3
729.112244E-3
728.800964E-3
728.635597E-3
728.306580E-3
728.213310E-3
727.924347E-3
727.664566E-3
727.594185E-3
727.020264E-3
726.660347E-3
726.407433E-3
725.826645E-3
725.363731E-3
724.888229E-3
724.545479E-3
724.098587E-3
723.712349E-3
723.711205E-3
723.615646E-3
723.895454E-3
724.575806E-3
726.246643E-3
729.459000E-3
733.898735E-3
739.540100E-3
745.471001E-3
750.723267E-3
755.265427E-3
757.974243E-3
759.231377E-3
759.080887E-3
757.784843E-3
755.811882E-3
753.442383E-3
751.004219E-3
749.050140E-3
747.303772E-3
746.160507E-3
745.469856E-3
745.303345E-3
745.409775E-3
745.591164E-3
746.294975E-3
746.792793E-3
747.400475E-3
747.579575E-3
747.046852E-3
745.863533E-3
744.263077E-3
742.813683E-3
741.532516E-3
740.826416E-3
740.705109E-3
740.990639E-3
741.586304E-3
742.436600E-3
743.106651E-3
743.652534E-3
743.863678E-3
743.918610E-3
743.630219E-3
742.765617E-3
742.177391E-3
741.366577E-3
740.547752E-3
739.716339E-3
738.712692E-3
737.886429E-3
737.196922E-3
736.501694E-3
735.821342E-3
735.053444E-3
734.886360E-3
734.467506E-3
734.223175E-3
734.132195E-3
733.823204E-3
733.721352E-3
733.530235E-3
733.359146E-3
733.079338E-3
732.780075E-3
732.596970E-3
732.348633E-3
732.116318E-3
731.949806E-3
731.525230E-3
731.319237E-3
731.058884E-3
730.817413E-3
730.606270E-3
730.274963E-3
730.068970E-3
729.936218E-3
729.689598E-3
729.547119E-3
728.979492E-3
728.814697E-3
728.470802E-3
728.227043E-3
728.003883E-3
727.687454E-3
727.590752E-3
727.377892E-3
727.040291E-3
727.004814E-3
726.742172E-3
726.523018E-3
726.358223E-3
726.050377E-3
725.791168E-3
725.438690E-3
725.191498E-3
724.934006E-3
724.305153E-3
723.848534E-3
723.285484E-3
722.987938E-3
722.437477E-3
722.069550E-3
722.038078E-3
722.106171E-3
722.643471E-3
723.782158E-3
726.314735E-3
730.412292E-3
735.494041E-3
741.511345E-3
747.115517E-3
751.967812E-3
755.481148E-3
757.153130E-3
757.815170E-3
756.961441E-3
755.155563E-3
753.090477E-3
750.966454E-3
748.912811E-3
746.946716E-3
745.686722E-3
744.977188E-3
744.594383E-3
744.738007E-3
745.041275E-3
745.666122E-3
746.454048E-3
747.007370E-3
747.503471E-3
747.396469E-3
746.523285E-3
745.235825E-3
743.325806E-3
741.780281E-3
740.657616E-3
739.887428E-3
739.908028E-3
740.124321E-3
740.856171E-3
741.574287E-3
742.283249E-3
742.880058E-3
742.967033E-3
742.881203E-3
742.452049E-3
741.948509E-3
741.352844E-3
740.333748E-3
739.827919E-3
739.030266E-3
738.077545E-3
737.351418E-3
736.522293E-3
736.049080E-3
735.610199E-3
735.174179E-3
734.876633E-3
734.660339E-3
734.625435E-3
734.465218E-3
734.032059E-3
734.029198E-3
733.742523E-3
733.593750E-3
733.307648E-3
733.146286E-3
733.174324E-3
732.839012E-3
732.749176E-3
732.538605E-3
732.385254E-3
732.179260E-3
731.811905E-3
731.730080E-3
731.547546E-3
731.323814E-3
731.306648E-3
730.994225E-3
730.589104E-3
730.312157E-3
730.090714E-3
729.917336E-3
729.554558E-3
729.324532E-3
729.179192E-3
728.814697E-3
728.664780E-3
728.310013E-3
728.280258E-3
728.044510E-3
727.742386E-3
727.721214E-3
727.464867E-3
727.411652E-3
727.161026E-3
726.878357E-3
726.772499E-3
726.306725E-3
726.018333E-3
725.697899E-3
725.145721E-3
724.881935E-3
724.318886E-3
723.922920E-3
723.636246E-3
723.569870E-3
723.608208E-3
723.742104E-3
724.472809E-3
726.298141E-3
729.379463E-3
734.129906E-3
739.399910E-3
745.028114E-3
750.100708E-3
753.951073E-3
756.531143E-3
757.471848E-3
757.161713E-3
755.691147E-3
753.782272E-3
751.630211E-3
749.424934E-3
747.600746E-3
746.128464E-3
745.015526E-3
744.269943E-3
743.888855E-3
744.066238E-3
744.512558E-3
744.980621E-3
745.787430E-3
745.967102E-3
745.960236E-3
745.273590E-3
743.931770E-3
742.560768E-3
740.944862E-3
740.037346E-3
739.778709E-3
739.907455E-3
740.735435E-3
741.515923E-3
742.419434E-3
743.251419E-3
743.650246E-3
743.955803E-3
743.744087E-3
743.399048E-3
742.870331E-3
741.767693E-3
741.099358E-3
740.256500E-3
739.498901E-3
738.720703E-3
737.888718E-3
737.304497E-3
736.688232E-3
736.200142E-3
735.916328E-3
735.552979E-3
735.403061E-3
734.924126E-3
734.720421E-3
734.485817E-3
734.069252E-3
733.907318E-3
733.556557E-3
733.220100E-3
732.947159E-3
732.611847E-3
732.499123E-3
732.041931E-3
731.700325E-3
731.411362E-3
731.161880E-3
731.103516E-3
730.910683E-3
730.754471E-3
730.427742E-3
730.157089E-3
729.988861E-3
729.764557E-3
729.478455E-3
729.228973E-3
728.919983E-3
728.617859E-3
728.363800E-3
728.153229E-3
727.953529E-3
727.689743E-3
727.587318E-3
727.328110E-3
727.170753E-3
726.972771E-3
726.683807E-3
726.727295E-3
726.306725E-3
725.989723E-3
725.786591E-3
725.318527E-3
724.958038E-3
724.554634E-3
724.043083E-3
723.765564E-3
723.558426E-3
723.627663E-3
723.685455E-3
724.131775E-3
725.101089E-3
727.057457E-3
730.482101E-3
735.095787E-3
740.539742E-3
746.092415E-3
750.814247E-3
754.662323E-3
756.788635E-3
757.588005E-3
757.039261E-3
755.567551E-3
753.628922E-3
751.280022E-3
749.110222E-3
747.275734E-3
745.641518E-3
744.511414E-3
743.803024E-3
743.527794E-3
743.807602E-3
743.926048E-3
744.584656E-3
745.067596E-3
745.404625E-3
745.207214E-3
744.549179E-3
743.186188E-3
741.590309E-3
740.122604E-3
739.336967E-3
738.992500E-3
739.260864E-3
739.830208E-3
740.517426E-3
741.469002E-3
742.060089E-3
742.663193E-3
742.711830E-3
742.595673E-3
742.211151E-3
741.495323E-3
740.751457E-3
739.850235E-3
739.073181E-3
738.113594E-3
737.145424E-3
736.347771E-3
735.559273E-3
734.746170E-3
734.298706E-3
733.631516E-3
733.358574E-3
733.095932E-3
732.831001E-3
732.582664E-3
732.372093E-3
732.139206E-3
731.969833E-3
731.752396E-3
731.645966E-3
731.328392E-3
731.273460E-3
731.033134E-3
730.872917E-3
730.796814E-3
730.394554E-3
730.246353E-3
730.003166E-3
729.711914E-3
729.605484E-3
729.329681E-3
729.299355E-3
728.989220E-3
728.681946E-3
728.489685E-3
728.057671E-3
727.908325E-3
727.572441E-3
727.366447E-3
727.196503E-3
726.757622E-3
726.590538E-3
726.340485E-3
726.124763E-3
725.893593E-3
725.537109E-3
725.482750E-3
725.323677E-3
724.989510E-3
725.018692E-3
724.608421E-3
724.456787E-3
724.147224E-3
723.700333E-3
723.324394E-3
722.765350E-3
722.447205E-3
721.891022E-3
721.398354E-3
721.051025E-3
720.715141E-3
720.832443E-3
721.143150E-3
721.857834E-3
723.726082E-3
726.823997E-3
731.645393E-3
737.072182E-3
742.919540E-3
748.316002E-3
752.258492E-3
755.079460E-3
755.971527E-3
755.658531E-3
754.524422E-3
752.426147E-3
750.392532E-3
748.235893E-3
746.103287E-3
744.527435E-3
743.358994E-3
742.999649E-3
742.790794E-3
742.951584E-3
743.437386E-3
744.073105E-3
744.839287E-3
745.415497E-3
745.530510E-3
745.434952E-3
744.509125E-3
742.978477E-3
741.368866E-3
739.940071E-3
739.082909E-3
738.557053E-3
738.726425E-3
739.104080E-3
739.670563E-3
740.394974E-3
740.881920E-3
741.246986E-3
741.290474E-3
741.006088E-3
740.631866E-3
740.027046E-3
739.340401E-3
738.605118E-3
737.759399E-3
736.969185E-3
736.071968E-3
735.528374E-3
734.690094E-3
734.014893E-3
733.571434E-3
733.051300E-3
732.794952E-3
732.547188E-3
732.195854E-3
732.016754E-3
731.788445E-3
731.622505E-3
731.488037E-3
731.176758E-3
731.128120E-3
730.953026E-3
730.880928E-3
730.674934E-3
730.461502E-3
730.315018E-3
730.265236E-3
730.056381E-3
730.046082E-3
729.678154E-3
729.690170E-3
729.445839E-3
729.238701E-3
729.104805E-3
728.874779E-3
728.694534E-3
728.362083E-3
728.291702E-3
728.128052E-3
727.740097E-3
727.664566E-3
727.478600E-3
727.078056E-3
726.721001E-3
726.468086E-3
726.435471E-3
726.212311E-3
726.039505E-3
725.878716E-3
725.784874E-3
725.766563E-3
725.535393E-3
725.330544E-3
725.218391E-3
724.761200E-3
724.511719E-3
724.297142E-3
724.016762E-3
723.580170E-3
723.027420E-3
722.879791E-3
722.450066E-3
722.212029E-3
722.080421E-3
722.113609E-3
722.573090E-3
723.394775E-3
725.510788E-3
729.048729E-3
733.912468E-3
739.604187E-3
745.026970E-3
749.795151E-3
753.344536E-3
755.362701E-3
756.136322E-3
755.275154E-3
753.755379E-3
751.809883E-3
749.477005E-3
747.449684E-3
745.493889E-3
743.963814E-3
742.848587E-3
742.105293E-3
741.996002E-3
742.121315E-3
742.582512E-3
743.265724E-3
743.719482E-3
744.142914E-3
743.994713E-3
743.468857E-3
742.342186E-3
740.906525E-3
739.692879E-3
738.523865E-3
738.245773E-3
738.365936E-3
738.811684E-3
739.652824E-3
740.486526E-3
741.177177E-3
741.796303E-3
741.786575E-3
741.791153E-3
741.177750E-3
740.616417E-3
739.970970E-3
739.151573E-3
738.618279E-3
737.743950E-3
736.836433E-3
736.096573E-3
735.257721E-3
734.889221E-3
734.288406E-3
733.863258E-3
733.529091E-3
733.240128E-3
732.958603E-3
732.717705E-3
732.384109E-3
732.135773E-3
731.827927E-3
731.661987E-3
731.389046E-3
731.247711E-3
731.115532E-3
730.706406E-3
730.675507E-3
730.388832E-3
730.207443E-3
730.091858E-3
729.873276E-3
729.958534E-3
729.582024E-3
729.438400E-3
729.276466E-3
729.172897E-3
729.041290E-3
728.781509E-3
728.625870E-3
728.349495E-3
728.083420E-3
727.840233E-3
727.449989E-3
727.213097E-3
726.942444E-3
726.658058E-3
726.528168E-3
726.323318E-3
726.136208E-3
725.895309E-3
725.497055E-3
725.204086E-3
724.972916E-3
724.785233E-3
724.505424E-3
724.207878E-3
723.714066E-3
723.280334E-3
722.907257E-3
722.692108E-3
722.310448E-3
722.265244E-3
721.969414E-3
721.988869E-3
722.266960E-3
722.689819E-3
724.273109E-3
727.070618E-3
731.141281E-3
736.343765E-3
741.655540E-3
746.435738E-3
750.272942E-3
752.784920E-3
754.026031E-3
753.665543E-3
752.474785E-3
750.568771E-3
748.588371E-3
746.317863E-3
744.082832E-3
742.577362E-3
741.141701E-3
740.225601E-3
739.809036E-3
739.722061E-3
739.993286E-3
740.174675E-3
740.669060E-3
740.954590E-3
740.766907E-3
740.124321E-3
738.975906E-3
737.592888E-3
736.495399E-3
735.719490E-3
735.684586E-3
736.021614E-3
736.585808E-3
737.402344E-3
738.196564E-3
739.060593E-3
739.440536E-3
739.704895E-3
739.602470E-3
739.020538E-3
738.565063E-3
737.784576E-3
737.009811E-3
736.281395E-3
735.235405E-3
734.484673E-3
733.553123E-3
732.840729E-3
732.073402E-3
731.357002E-3
731.073189E-3
730.689240E-3
730.205727E-3
729.964828E-3
729.626656E-3
729.552841E-3
729.348564E-3
729.238129E-3
729.184914E-3
728.882217E-3
728.758049E-3
728.622437E-3
728.410149E-3
728.358650E-3
727.943802E-3
728.005600E-3
727.720642E-3
727.509499E-3
727.362442E-3
727.068329E-3
727.059174E-3
726.735306E-3
726.596260E-3
726.271248E-3
726.046944E-3
725.805473E-3
725.561714E-3
725.247574E-3
725.148010E-3
724.732018E-3
724.616432E-3
724.359512E-3
724.147797E-3
723.903465E-3
723.524094E-3
723.470306E-3
723.347282E-3
723.048019E-3
722.981644E-3
722.665787E-3
722.501564E-3
722.219467E-3
721.918488E-3
721.680450E-3
721.184349E-3
720.820427E-3
720.301437E-3
719.887161E-3
719.761848E-3
719.379044E-3
719.261742E-3
719.229698E-3
719.658852E-3
721.038437E-3
723.476028E-3
727.441406E-3
732.590675E-3
738.307571E-3
743.900871E-3
748.298264E-3
751.648521E-3
753.490448E-3
753.899002E-3
753.346252E-3
751.685715E-3
749.828339E-3
747.572708E-3
745.435524E-3
743.691444E-3
742.247200E-3
741.415787E-3
740.768623E-3
740.719414E-3
741.055298E-3
741.399765E-3
742.145920E-3
742.928696E-3
743.336105E-3
743.354416E-3
742.819977E-3
741.716766E-3
740.283966E-3
738.845444E-3
737.872696E-3
737.171173E-3
737.014961E-3
737.305641E-3
737.806892E-3
738.511276E-3
739.162445E-3
739.671707E-3
739.870834E-3
739.862251E-3
739.520645E-3
739.010811E-3
738.583374E-3
738.000298E-3
737.175751E-3
736.470222E-3
735.478020E-3
734.750748E-3
734.018326E-3
733.189774E-3
732.642174E-3
732.027054E-3
731.686592E-3
731.315231E-3
730.924988E-3
730.784225E-3
730.473518E-3
730.324745E-3
730.008316E-3
730.032921E-3
729.986572E-3
729.602623E-3
729.323959E-3
729.269600E-3
729.025269E-3
728.982353E-3
728.512001E-3
728.474808E-3
728.209305E-3
727.964973E-3
727.857399E-3
727.646828E-3
727.516365E-3
727.316666E-3
727.066612E-3
726.959610E-3
726.666641E-3
726.490974E-3
726.251221E-3
725.911331E-3
725.771713E-3
725.478745E-3
725.381470E-3
725.252724E-3
725.084496E-3
725.114250E-3
724.833870E-3
724.698257E-3
724.413872E-3
724.289703E-3
724.180412E-3
723.851967E-3
723.739815E-3
723.540688E-3
723.261452E-3
723.005676E-3
722.578239E-3
722.165108E-3
721.996307E-3
721.540260E-3
721.263885E-3
720.998383E-3
721.116829E-3
721.222687E-3
721.579170E-3
723.227119E-3
725.821495E-3
730.000305E-3
735.213089E-3
740.526581E-3
745.943642E-3
749.983978E-3
752.937126E-3
754.230309E-3
754.153633E-3
