Notes :


2023-10-26 ¿ÀÈÄ 10:44:37
Volts
Ch : LED 2,
379.812241E-3
381.188393E-3
380.289459E-3
380.840492E-3
381.117439E-3
380.788422E-3
382.250404E-3
381.679916E-3
382.045555E-3
382.297897E-3
381.164360E-3
383.310127E-3
382.453537E-3
382.953072E-3
382.834053E-3
381.286240E-3
380.742073E-3
376.831627E-3
372.958946E-3
368.578148E-3
363.050079E-3
359.687805E-3
354.792023E-3
352.492905E-3
351.386261E-3
350.651550E-3
352.496338E-3
353.024483E-3
354.925919E-3
357.160950E-3
358.208084E-3
361.025047E-3
361.119461E-3
362.223816E-3
363.001442E-3
362.440681E-3
363.669777E-3
362.555695E-3
362.515068E-3
362.115669E-3
361.747169E-3
363.563347E-3
363.316154E-3
364.494896E-3
365.415573E-3
365.101433E-3
366.467285E-3
365.367508E-3
365.103722E-3
364.829636E-3
363.388252E-3
364.129829E-3
362.895012E-3
362.715340E-3
363.048935E-3
362.579155E-3
364.150429E-3
363.845444E-3
364.401627E-3
365.482521E-3
365.608978E-3
367.438316E-3
367.068100E-3
367.504692E-3
368.067169E-3
367.944717E-3
369.606972E-3
369.357491E-3
369.835281E-3
370.075607E-3
369.561195E-3
370.840645E-3
369.983482E-3
370.037270E-3
370.286179E-3
369.785500E-3
370.905304E-3
370.342255E-3
370.397758E-3
370.983696E-3
370.536804E-3
371.840286E-3
371.338463E-3
371.688080E-3
372.122383E-3
371.707535E-3
373.012733E-3
372.327805E-3
372.373009E-3
372.973251E-3
372.431374E-3
373.911095E-3
373.363495E-3
373.628998E-3
374.257278E-3
373.982048E-3
375.443459E-3
375.105858E-3
375.405121E-3
375.930405E-3
375.576782E-3
377.355194E-3
377.187538E-3
377.557755E-3
378.106499E-3
377.425575E-3
378.283310E-3
376.753235E-3
374.803162E-3
372.103500E-3
367.214584E-3
363.913536E-3
358.517647E-3
354.286766E-3
351.282120E-3
348.489189E-3
349.032784E-3
348.700905E-3
349.782944E-3
351.708984E-3
352.387047E-3
355.689240E-3
356.859970E-3
358.103371E-3
359.329605E-3
359.367371E-3
361.116600E-3
360.592461E-3
360.338402E-3
360.461998E-3
359.481239E-3
360.931778E-3
361.240196E-3
361.790085E-3
363.434601E-3
363.309288E-3
365.360069E-3
365.263939E-3
364.934349E-3
364.971542E-3
363.169670E-3
364.157295E-3
363.097572E-3
362.583733E-3
363.119316E-3
362.234116E-3
363.669777E-3
363.693237E-3
364.363861E-3
365.555763E-3
365.257645E-3
367.260361E-3
367.539024E-3
368.574142E-3
369.478798E-3
369.071960E-3
370.598602E-3
370.588303E-3
370.953941E-3
371.502686E-3
369.842148E-3
371.632004E-3
371.467209E-3
371.601677E-3
372.276878E-3
371.120453E-3
372.470856E-3
372.068596E-3
371.978188E-3
372.569847E-3
371.171951E-3
372.687721E-3
372.332954E-3
372.390175E-3
372.452545E-3
371.337891E-3
372.761536E-3
372.508621E-3
372.577286E-3
373.031044E-3
372.270012E-3
373.723984E-3
373.558044E-3
373.585510E-3
374.320221E-3
373.604393E-3
375.111580E-3
374.955940E-3
375.001717E-3
375.782776E-3
375.260353E-3
376.671410E-3
376.613617E-3
376.512909E-3
376.960373E-3
375.746155E-3
376.250267E-3
374.388313E-3
371.796799E-3
368.426514E-3
363.080406E-3
359.494400E-3
354.659843E-3
350.828934E-3
348.684883E-3
346.168900E-3
347.344208E-3
347.576523E-3
348.678589E-3
350.830650E-3
351.707840E-3
354.653549E-3
355.913544E-3
356.553841E-3
358.100510E-3
357.472229E-3
359.004021E-3
358.717918E-3
358.118820E-3
358.924484E-3
358.303642E-3
360.760117E-3
361.227608E-3
361.773491E-3
363.124466E-3
362.448120E-3
363.734436E-3
362.937355E-3
361.933708E-3
361.825562E-3
359.996223E-3
360.856819E-3
360.181046E-3
359.833717E-3
360.492897E-3
359.815407E-3
361.887932E-3
362.016106E-3
362.170601E-3
363.555908E-3
363.376236E-3
365.484238E-3
365.590096E-3
365.955162E-3
367.046928E-3
366.438103E-3
368.407631E-3
368.185616E-3
368.076324E-3
368.661118E-3
367.968750E-3
369.699669E-3
369.265366E-3
368.804169E-3
369.112015E-3
368.674850E-3
370.154572E-3
369.788933E-3
369.357491E-3
369.998360E-3
369.029045E-3
370.641518E-3
370.448685E-3
369.846725E-3
370.380020E-3
370.113373E-3
371.630859E-3
371.475220E-3
371.000862E-3
371.772194E-3
371.182251E-3
372.738075E-3
372.557831E-3
372.032547E-3
372.691727E-3
372.215080E-3
373.526001E-3
373.385239E-3
373.052216E-3
373.748589E-3
373.425865E-3
374.988556E-3
374.700737E-3
374.503899E-3
375.469780E-3
375.008583E-3
376.529503E-3
376.459122E-3
376.096916E-3
375.828552E-3
375.081253E-3
374.823761E-3
372.283745E-3
368.068314E-3
363.837433E-3
357.754326E-3
353.580093E-3
348.290634E-3
344.009399E-3
342.391205E-3
340.955544E-3
342.248726E-3
342.931366E-3
343.579674E-3
345.771790E-3
346.825790E-3
349.389839E-3
350.153160E-3
350.225258E-3
351.252365E-3
350.539970E-3
351.454353E-3
350.811195E-3
349.285698E-3
349.821854E-3
349.295998E-3
350.756836E-3
351.250648E-3
351.833153E-3
354.036713E-3
354.614067E-3
356.692314E-3
356.744957E-3
356.359863E-3
356.914330E-3
355.745316E-3
356.393623E-3
355.756760E-3
354.896164E-3
355.545616E-3
355.160522E-3
356.493187E-3
356.568146E-3
356.772995E-3
358.240128E-3
358.401489E-3
360.069466E-3
360.641098E-3
360.720634E-3
361.705971E-3
361.845016E-3
363.249779E-3
363.639450E-3
363.254356E-3
363.961601E-3
363.489532E-3
364.762688E-3
364.608765E-3
364.303207E-3
364.884567E-3
364.352417E-3
365.468216E-3
365.441322E-3
365.200424E-3
365.924835E-3
365.350342E-3
366.412354E-3
366.469002E-3
365.323448E-3
366.451836E-3
366.317940E-3
367.746162E-3
367.649460E-3
366.983986E-3
367.957878E-3
367.916107E-3
369.181252E-3
369.079971E-3
368.885422E-3
369.639587E-3
369.287109E-3
370.477295E-3
370.278168E-3
369.962883E-3
370.622063E-3
370.081902E-3
371.514130E-3
371.241188E-3
371.073532E-3
371.949005E-3
371.670914E-3
373.135757E-3
372.952080E-3
372.950363E-3
374.022102E-3
373.821259E-3
374.850082E-3
374.650955E-3
373.142624E-3
373.096848E-3
370.941925E-3
368.859673E-3
364.518929E-3
358.336258E-3
353.404999E-3
347.769928E-3
344.479752E-3
341.397285E-3
339.448357E-3
339.763069E-3
339.809990E-3
342.288208E-3
343.864632E-3
345.341492E-3
347.491837E-3
348.261452E-3
350.297356E-3
350.446129E-3
350.102806E-3
350.651550E-3
349.547768E-3
350.076485E-3
349.479103E-3
348.835945E-3
349.745178E-3
349.965477E-3
352.187347E-3
353.694534E-3
354.595757E-3
356.306648E-3
356.209373E-3
357.535744E-3
356.952095E-3
356.175613E-3
356.476593E-3
355.309296E-3
355.914116E-3
355.651474E-3
355.193710E-3
356.179047E-3
356.069756E-3
357.472801E-3
358.387756E-3
358.467293E-3
359.948730E-3
360.084915E-3
361.781502E-3
362.293053E-3
362.330246E-3
363.586807E-3
363.431740E-3
364.695740E-3
364.837074E-3
364.320374E-3
365.369797E-3
364.904594E-3
366.094208E-3
366.083336E-3
365.581512E-3
366.506767E-3
366.085052E-3
367.147636E-3
367.201424E-3
365.698814E-3
367.195702E-3
366.846657E-3
368.186760E-3
368.217659E-3
367.806816E-3
368.757248E-3
368.242836E-3
369.309425E-3
369.453621E-3
368.995285E-3
370.096207E-3
369.734573E-3
370.874977E-3
370.995140E-3
370.430374E-3
371.163368E-3
370.565414E-3
371.511269E-3
371.459198E-3
370.979118E-3
372.020531E-3
371.570778E-3
372.570992E-3
372.884560E-3
372.557259E-3
373.495102E-3
373.163795E-3
374.178886E-3
374.510193E-3
373.123169E-3
374.679565E-3
374.085617E-3
375.195122E-3
374.463272E-3
372.793007E-3
371.547318E-3
367.497826E-3
363.752174E-3
358.451271E-3
352.408791E-3
348.082924E-3
343.655777E-3
342.030144E-3
341.080856E-3
340.377617E-3
342.446136E-3
343.661499E-3
346.465302E-3
348.248291E-3
348.780441E-3
351.260376E-3
352.016258E-3
353.651619E-3
353.733444E-3
352.555847E-3
352.982140E-3
352.519226E-3
353.130913E-3
353.481102E-3
353.722572E-3
355.495834E-3
356.196785E-3
358.172035E-3
358.645248E-3
358.248138E-3
358.893585E-3
357.789803E-3
357.788086E-3
356.934929E-3
355.492401E-3
356.217957E-3
355.360222E-3
356.267166E-3
356.679153E-3
356.304932E-3
358.055305E-3
358.097649E-3
359.622002E-3
360.663414E-3
360.505486E-3
362.217522E-3
362.335396E-3
363.516998E-3
363.905525E-3
363.759613E-3
365.254211E-3
364.652824E-3
365.598106E-3
365.737152E-3
365.068245E-3
366.404343E-3
365.678787E-3
366.415787E-3
366.451263E-3
365.797234E-3
367.073250E-3
366.297913E-3
367.081833E-3
367.037773E-3
366.517639E-3
367.730713E-3
366.994286E-3
367.827988E-3
367.793083E-3
367.222595E-3
368.896866E-3
368.027687E-3
369.023895E-3
369.272804E-3
368.665123E-3
370.040131E-3
369.637299E-3
370.322227E-3
370.665550E-3
369.997787E-3
371.808243E-3
370.902443E-3
371.765900E-3
371.748161E-3
371.117020E-3
372.570419E-3
371.534157E-3
372.078323E-3
372.010231E-3
371.664047E-3
373.249054E-3
372.331810E-3
373.211861E-3
373.548317E-3
372.923470E-3
374.629784E-3
373.995209E-3
375.048637E-3
375.036621E-3
374.448395E-3
375.761604E-3
374.276733E-3
373.241615E-3
370.894432E-3
366.087341E-3
362.483025E-3
355.658913E-3
350.152588E-3
344.949532E-3
340.191650E-3
339.170837E-3
337.221909E-3
338.100815E-3
339.476395E-3
340.619659E-3
344.032860E-3
345.287132E-3
347.877502E-3
349.154663E-3
349.352646E-3
351.168251E-3
350.216675E-3
350.530243E-3
349.975204E-3
347.875214E-3
349.586678E-3
348.494911E-3
349.127769E-3
350.188065E-3
349.360657E-3
352.867126E-3
353.515434E-3
355.103302E-3
355.745316E-3
355.318451E-3
356.676865E-3
355.198288E-3
355.291557E-3
354.927063E-3
353.976059E-3
355.313873E-3
354.298782E-3
354.833221E-3
355.425453E-3
355.475807E-3
357.729149E-3
357.283974E-3
358.424950E-3
359.605980E-3
359.849167E-3
362.035561E-3
361.518288E-3
362.392616E-3
363.058662E-3
362.832069E-3
364.739799E-3
363.713837E-3
364.157867E-3
364.586449E-3
364.310646E-3
365.723419E-3
364.795303E-3
365.130615E-3
365.762329E-3
365.308571E-3
366.560555E-3
365.497971E-3
366.101646E-3
366.509056E-3
366.024399E-3
367.599106E-3
366.721916E-3
367.223167E-3
367.716408E-3
367.172813E-3
368.693733E-3
367.817688E-3
368.630219E-3
369.018173E-3
367.927551E-3
370.072746E-3
369.436455E-3
369.962311E-3
370.512772E-3
369.446754E-3
371.792793E-3
370.881844E-3
371.655464E-3
371.819115E-3
371.411133E-3
372.894859E-3
371.867752E-3
372.447968E-3
372.809029E-3
371.549606E-3
373.517990E-3
372.520638E-3
373.122597E-3
373.724556E-3
373.633575E-3
375.245476E-3
374.473572E-3
375.247192E-3
375.811958E-3
375.460052E-3
376.729202E-3
375.562477E-3
375.621986E-3
374.521637E-3
371.776199E-3
369.314575E-3
363.351059E-3
358.004951E-3
352.242279E-3
346.339989E-3
343.389702E-3
339.636040E-3
338.905907E-3
339.346504E-3
340.285492E-3
343.614578E-3
344.916916E-3
347.751617E-3
350.164604E-3
351.255226E-3
353.897667E-3
353.445625E-3
354.154587E-3
354.298782E-3
353.476524E-3
353.927422E-3
352.587891E-3
352.659416E-3
353.043365E-3
353.314590E-3
355.634308E-3
355.971909E-3
357.469940E-3
358.678436E-3
358.712196E-3
359.866333E-3
358.514786E-3
358.341980E-3
358.196640E-3
355.965614E-3
357.726860E-3
356.791306E-3
357.142067E-3
357.959175E-3
357.939720E-3
359.874916E-3
359.668350E-3
360.816193E-3
362.035561E-3
362.476730E-3
364.331245E-3
364.290047E-3
365.187836E-3
366.011238E-3
365.218735E-3
367.234612E-3
366.691589E-3
367.388535E-3
367.861176E-3
366.501045E-3
368.397903E-3
367.886925E-3
368.296051E-3
368.471146E-3
368.163872E-3
369.424438E-3
368.616486E-3
369.106293E-3
369.435310E-3
369.059944E-3
370.342827E-3
369.319725E-3
369.824409E-3
370.238686E-3
369.805527E-3
371.199989E-3
370.477867E-3
370.977402E-3
371.179962E-3
371.297836E-3
372.777557E-3
372.010231E-3
372.717476E-3
373.049355E-3
372.991562E-3
374.298477E-3
373.460770E-3
374.107933E-3
374.217224E-3
373.838997E-3
375.074959E-3
374.237251E-3
374.522209E-3
374.880981E-3
374.547386E-3
375.771332E-3
375.174522E-3
375.466919E-3
375.856590E-3
375.735283E-3
377.027893E-3
376.524353E-3
376.932335E-3
377.448463E-3
377.007294E-3
378.196907E-3
376.989555E-3
376.144981E-3
374.431801E-3
370.534515E-3
367.299843E-3
360.917473E-3
355.447197E-3
350.584030E-3
345.681381E-3
344.182205E-3
342.367172E-3
342.723656E-3
344.233704E-3
345.621300E-3
349.403000E-3
350.839806E-3
353.197289E-3
355.594254E-3
356.683159E-3
358.961678E-3
358.854103E-3
359.177971E-3
359.409714E-3
358.697319E-3
359.586525E-3
358.791733E-3
359.041214E-3
360.195351E-3
360.473442E-3
362.412643E-3
362.053871E-3
362.470436E-3
362.513351E-3
361.591530E-3
362.113380E-3
360.607338E-3
359.935570E-3
360.000229E-3
359.157372E-3
360.250854E-3
359.778214E-3
360.107803E-3
361.390686E-3
361.325455E-3
363.388824E-3
363.327599E-3
364.417076E-3
365.599823E-3
365.694809E-3
367.605400E-3
367.555046E-3
367.915535E-3
368.972397E-3
368.650818E-3
370.188332E-3
369.761467E-3
369.729996E-3
370.366859E-3
369.753456E-3
371.061516E-3
370.323944E-3
370.491028E-3
370.902443E-3
369.970322E-3
371.357918E-3
370.845222E-3
371.213150E-3
371.579361E-3
370.582008E-3
372.031403E-3
371.525574E-3
371.577644E-3
372.175598E-3
371.478081E-3
373.055649E-3
372.645950E-3
372.897720E-3
373.615265E-3
372.295189E-3
374.257851E-3
373.857307E-3
374.224663E-3
375.028610E-3
374.169731E-3
375.588226E-3
375.428009E-3
375.626564E-3
376.149559E-3
375.242615E-3
376.440811E-3
376.210785E-3
376.173019E-3
376.843071E-3
375.228310E-3
377.063370E-3
376.588440E-3
376.843071E-3
377.427292E-3
375.746155E-3
377.927399E-3
377.909088E-3
378.145409E-3
379.143333E-3
378.294182E-3
379.715538E-3
379.431725E-3
378.654099E-3
377.505112E-3
373.566055E-3
370.549393E-3
364.767265E-3
358.794022E-3
353.697968E-3
347.567368E-3
345.203590E-3
342.941093E-3
342.276192E-3
343.580818E-3
344.200516E-3
347.607422E-3
349.726868E-3
352.154732E-3
354.762840E-3
355.454063E-3
357.966614E-3
358.231544E-3
358.366013E-3
358.878136E-3
357.730293E-3
358.887863E-3
358.196640E-3
357.611275E-3
358.051872E-3
357.473373E-3
359.490395E-3
360.143852E-3
360.722923E-3
361.692238E-3
360.950089E-3
362.227249E-3
361.708260E-3
361.089134E-3
360.768127E-3
359.495544E-3
360.639954E-3
360.380745E-3
360.245132E-3
361.001015E-3
360.490036E-3
362.543678E-3
362.901878E-3
363.317871E-3
364.767838E-3
364.591599E-3
366.733360E-3
367.024040E-3
367.201996E-3
368.475723E-3
368.161583E-3
369.969177E-3
370.016670E-3
369.845581E-3
370.697594E-3
370.040703E-3
371.512985E-3
371.230888E-3
371.038628E-3
371.649170E-3
371.137047E-3
372.452545E-3
372.243690E-3
371.692657E-3
372.391319E-3
371.561623E-3
373.201561E-3
372.980690E-3
372.742653E-3
372.900009E-3
372.572136E-3
374.273300E-3
374.128532E-3
373.971176E-3
374.579430E-3
373.972893E-3
375.587654E-3
375.756454E-3
375.531578E-3
376.336098E-3
375.835991E-3
377.499390E-3
377.339172E-3
377.134895E-3
377.941704E-3
377.183533E-3
378.719330E-3
378.663254E-3
378.308487E-3
378.547096E-3
378.137398E-3
379.614830E-3
379.412842E-3
378.771973E-3
379.622841E-3
379.358482E-3
380.487442E-3
380.283165E-3
379.978752E-3
380.867386E-3
380.656815E-3
382.099915E-3
382.057571E-3
381.592941E-3
382.247543E-3
381.548882E-3
381.553459E-3
379.190826E-3
374.434662E-3
370.654678E-3
364.906311E-3
360.237122E-3
354.753685E-3
350.057030E-3
347.935867E-3
346.439552E-3
