Notes :


2023-10-28 ¿ÀÈÄ 9:42:21
Volts
Ch : LED 2,Ch : LED 3,
382.736778E-3,395.783043E-3
383.525848E-3,395.141029E-3
384.138680E-3,395.260620E-3
383.994484E-3,395.438004E-3
383.105850E-3,395.462608E-3
382.382584E-3,396.106911E-3
381.071663E-3,396.473694E-3
379.965591E-3,396.830177E-3
379.020882E-3,397.315979E-3
377.744865E-3,397.485924E-3
377.206993E-3,398.170280E-3
376.454544E-3,398.257828E-3
376.119232E-3,398.371124E-3
376.192474E-3,398.827171E-3
375.910378E-3,398.562813E-3
376.187325E-3,398.938751E-3
376.089478E-3,398.734474E-3
376.108932E-3,398.735619E-3
376.210785E-3,399.041176E-3
375.814247E-3,398.932457E-3
375.613976E-3,399.282074E-3
375.028610E-3,399.572182E-3
374.731064E-3,399.793625E-3
374.657249E-3,399.928665E-3
374.382019E-3,399.912643E-3
374.678993E-3,400.036812E-3
374.674988E-3,399.902344E-3
374.797440E-3,399.707222E-3
375.152779E-3,399.759293E-3
375.107002E-3,399.293518E-3
375.429726E-3,399.346733E-3
375.377083E-3,399.191093E-3
375.385094E-3,399.334145E-3
375.402260E-3,399.397087E-3
375.032043E-3,399.288368E-3
374.986839E-3,399.610519E-3
374.610329E-3,399.571037E-3
374.276161E-3,399.934387E-3
374.107361E-3,400.172997E-3
373.608398E-3,400.238800E-3
373.469925E-3,400.717163E-3
373.080254E-3,400.735474E-3
372.754669E-3,400.856781E-3
372.680283E-3,401.192665E-3
372.189903E-3,401.208115E-3
372.289467E-3,401.616096E-3
371.970177E-3,401.865005E-3
371.816826E-3,402.044106E-3
371.896935E-3,402.230072E-3
371.514702E-3,402.143669E-3
371.740723E-3,402.584839E-3
371.494102E-3,402.580833E-3
371.410561E-3,402.563095E-3
371.434021E-3,402.709579E-3
371.024323E-3,402.448654E-3
371.129608E-3,402.797127E-3
370.842934E-3,402.816582E-3
370.627213E-3,402.760506E-3
370.542526E-3,402.806854E-3
370.163727E-3,402.692413E-3
370.243263E-3,402.814293E-3
370.002937E-3,402.704430E-3
369.911385E-3,402.832031E-3
370.059586E-3,402.972221E-3
369.699097E-3,402.738762E-3
369.878769E-3,403.034019E-3
369.800377E-3,402.993965E-3
369.788361E-3,403.225136E-3
369.939995E-3,403.357315E-3
369.688797E-3,403.179932E-3
369.902229E-3,403.526688E-3
369.756317E-3,403.519821E-3
369.565773E-3,403.453445E-3
369.679642E-3,403.808784E-3
369.291687E-3,403.553581E-3
369.471931E-3,403.721237E-3
369.333458E-3,403.764725E-3
369.224739E-3,403.707504E-3
369.278526E-3,403.911781E-3
368.838501E-3,403.659439E-3
368.995857E-3,403.886032E-3
368.857956E-3,403.853989E-3
368.744659E-3,403.898048E-3
368.877411E-3,404.181290E-3
368.501472E-3,404.097176E-3
368.484879E-3,404.393578E-3
368.196487E-3,404.413033E-3
368.011665E-3,404.469109E-3
367.993355E-3,404.850769E-3
367.448044E-3,404.590988E-3
367.466927E-3,404.905701E-3
367.342186E-3,404.970932E-3
367.228889E-3,404.951477E-3
367.549896E-3,405.171204E-3
367.523003E-3,404.505730E-3
368.494034E-3,404.264259E-3
369.949150E-3,403.110123E-3
371.844864E-3,401.749420E-3
374.348831E-3,400.584412E-3
376.377296E-3,399.073219E-3
378.995132E-3,398.166275E-3
381.031609E-3,397.187805E-3
382.509041E-3,396.571541E-3
383.578491E-3,396.550369E-3
383.425713E-3,396.193314E-3
383.305550E-3,396.569824E-3
382.435799E-3,396.846199E-3
381.346893E-3,397.142601E-3
380.427933E-3,397.848701E-3
378.953362E-3,398.092461E-3
378.014374E-3,398.682404E-3
377.165222E-3,398.904991E-3
376.336098E-3,398.907280E-3
376.055145E-3,399.422264E-3
375.474358E-3,399.209976E-3
375.603104E-3,399.419975E-3
375.612831E-3,399.427414E-3
375.628853E-3,399.283791E-3
375.939560E-3,399.303246E-3
375.856590E-3,399.117851E-3
376.021385E-3,399.151039E-3
375.946999E-3,399.196243E-3
375.504684E-3,399.202538E-3
375.226593E-3,399.729538E-3
374.521637E-3,399.737549E-3
374.344254E-3,400.027084E-3
374.058723E-3,400.182724E-3
373.678780E-3,400.240517E-3
373.851585E-3,400.267410E-3
373.654747E-3,399.996185E-3
373.971176E-3,400.040817E-3
374.102211E-3,399.872589E-3
374.154854E-3,399.775887E-3
374.398613E-3,399.838829E-3
374.315071E-3,399.509239E-3
374.548531E-3,399.787903E-3
374.531937E-3,399.754143E-3
374.164009E-3,399.660873E-3
374.187469E-3,400.108910E-3
373.657036E-3,399.980164E-3
373.560905E-3,400.266838E-3
373.106575E-3,400.480843E-3
372.651672E-3,400.615883E-3
372.513199E-3,400.928307E-3
372.011375E-3,400.915718E-3
371.899796E-3,401.273346E-3
371.586227E-3,401.337433E-3
371.135902E-3,401.313400E-3
371.143913E-3,401.733971E-3
370.782852E-3,401.558876E-3
370.697021E-3,401.735115E-3
370.543098E-3,401.788902E-3
370.215225E-3,401.768303E-3
370.282745E-3,402.100182E-3
369.886780E-3,401.972008E-3
370.012093E-3,402.251816E-3
369.783211E-3,402.201462E-3
369.540024E-3,402.271271E-3
369.633865E-3,402.471542E-3
369.414711E-3,402.260971E-3
369.499397E-3,402.525902E-3
369.412422E-3,402.559662E-3
369.209862E-3,402.364540E-3
369.427872E-3,402.729607E-3
369.104004E-3,402.419472E-3
369.217873E-3,402.640343E-3
369.087410E-3,402.628326E-3
368.954659E-3,402.545929E-3
369.119453E-3,402.825165E-3
368.805885E-3,402.627182E-3
368.887138E-3,402.959061E-3
368.879700E-3,402.994537E-3
368.566704E-3,402.789116E-3
368.634224E-3,403.096962E-3
368.329811E-3,402.949333E-3
368.386459E-3,403.096390E-3
368.290901E-3,403.327560E-3
367.987633E-3,403.109550E-3
368.290329E-3,403.443146E-3
367.893791E-3,403.242874E-3
367.988205E-3,403.456306E-3
367.957306E-3,403.446579E-3
367.697525E-3,403.275490E-3
367.909241E-3,403.697205E-3
367.582512E-3,403.451729E-3
367.669487E-3,403.627396E-3
367.672348E-3,403.643417E-3
367.424011E-3,403.678322E-3
367.685509E-3,404.043388E-3
367.390251E-3,403.951263E-3
367.349625E-3,404.046249E-3
367.203712E-3,404.159546E-3
366.851807E-3,404.118347E-3
367.022896E-3,404.505157E-3
366.658401E-3,404.473114E-3
366.595459E-3,404.585266E-3
366.625786E-3,404.724884E-3
366.412354E-3,404.497719E-3
366.860390E-3,404.641914E-3
367.081261E-3,404.087448E-3
368.272591E-3,403.363037E-3
369.839287E-3,402.249527E-3
371.777344E-3,400.807571E-3
374.424362E-3,399.695778E-3
376.527786E-3,398.231506E-3
378.867531E-3,397.315979E-3
380.764961E-3,396.746063E-3
381.788635E-3,396.156693E-3
382.624054E-3,396.191025E-3
382.462692E-3,396.169853E-3
381.971741E-3,396.507454E-3
381.086540E-3,396.794701E-3
379.856873E-3,397.112274E-3
379.121017E-3,397.947121E-3
377.834129E-3,398.046112E-3
376.970100E-3,398.537064E-3
376.040840E-3,398.770523E-3
375.212288E-3,398.768234E-3
375.142479E-3,399.401093E-3
374.731064E-3,399.228287E-3
374.678993E-3,399.225998E-3
374.817467E-3,399.315262E-3
374.719620E-3,399.023437E-3
375.173950E-3,399.260330E-3
375.082397E-3,399.114418E-3
375.137901E-3,399.143600E-3
375.111580E-3,399.274063E-3
374.583435E-3,399.222565E-3
374.454117E-3,399.814224E-3
373.821831E-3,399.797630E-3
373.613548E-3,399.883461E-3
373.568916E-3,400.091171E-3
373.305702E-3,399.825096E-3
373.615837E-3,400.111771E-3
373.527145E-3,399.755859E-3
373.738861E-3,399.662018E-3
373.993492E-3,399.658585E-3
373.967743E-3,399.409103E-3
374.325943E-3,399.604225E-3
374.209785E-3,399.405670E-3
374.114227E-3,399.401665E-3
374.239540E-3,399.691200E-3
373.833275E-3,399.539566E-3
373.860741E-3,400.092888E-3
373.373222E-3,399.877739E-3
373.085976E-3,400.099754E-3
372.933197E-3,400.402451E-3
372.475433E-3,400.424767E-3
372.386169E-3,400.681114E-3
371.971321E-3,400.718880E-3
371.730423E-3,400.972939E-3
371.557617E-3,401.214981E-3
371.226311E-3,401.246452E-3
371.253777E-3,401.440430E-3
370.878410E-3,401.318550E-3
370.737076E-3,401.586342E-3
370.749664E-3,401.810646E-3
370.385170E-3,401.616669E-3
370.462990E-3,401.920509E-3
370.188332E-3,401.960564E-3
370.061874E-3,401.882744E-3
370.138550E-3,402.085304E-3
369.862175E-3,401.976013E-3
369.949150E-3,402.192879E-3
369.737434E-3,402.084160E-3
369.637299E-3,402.084160E-3
369.881058E-3,402.449226E-3
369.554901E-3,402.116776E-3
369.753456E-3,402.469826E-3
369.584656E-3,402.325630E-3
369.567490E-3,402.413177E-3
369.656754E-3,402.463531E-3
369.404984E-3,402.246666E-3
369.520569E-3,402.509880E-3
369.314575E-3,402.484703E-3
369.275093E-3,402.442932E-3
369.353485E-3,402.620888E-3
369.015884E-3,402.532196E-3
369.229317E-3,402.692413E-3
369.048500E-3,402.758217E-3
368.958664E-3,402.847481E-3
369.023895E-3,402.972221E-3
368.713188E-3,402.774811E-3
368.856812E-3,403.004837E-3
368.657684E-3,402.893257E-3
368.554115E-3,402.916145E-3
368.730354E-3,403.339005E-3
368.405914E-3,403.130722E-3
368.486595E-3,403.383636E-3
368.189621E-3,403.357315E-3
368.060303E-3,403.446007E-3
368.005371E-3,403.681755E-3
367.650032E-3,403.720093E-3
367.708397E-3,404.063416E-3
367.405128E-3,404.077148E-3
367.259789E-3,404.029655E-3
367.153358E-3,404.241943E-3
366.855240E-3,403.975296E-3
367.090988E-3,404.403305E-3
367.006302E-3,404.265976E-3
367.290688E-3,403.934097E-3
368.231392E-3,403.340721E-3
369.331741E-3,402.182007E-3
371.473503E-3,401.323128E-3
373.421860E-3,399.890900E-3
375.640297E-3,398.711586E-3
377.881050E-3,397.808647E-3
379.338455E-3,396.903419E-3
380.820465E-3,396.630478E-3
381.191826E-3,396.283722E-3
381.219864E-3,396.305466E-3
380.849648E-3,396.671677E-3
379.781342E-3,396.739769E-3
379.099846E-3,397.461319E-3
377.908516E-3,397.905350E-3
376.793861E-3,398.176003E-3
375.972748E-3,398.723602E-3
374.791718E-3,398.887825E-3
374.400330E-3,399.327850E-3
373.867035E-3,399.405098E-3
373.594666E-3,399.643135E-3
373.592949E-3,399.808502E-3
373.344612E-3,399.598503E-3
373.617554E-3,399.707794E-3
373.439598E-3,399.513245E-3
373.388672E-3,399.494934E-3
373.386383E-3,399.980736E-3
372.776985E-3,399.675751E-3
372.669411E-3,400.090599E-3
372.209930E-3,400.270271E-3
372.011375E-3,400.397873E-3
372.023392E-3,400.542641E-3
371.771049E-3,400.150108E-3
372.192764E-3,400.430489E-3
372.304344E-3,400.166702E-3
372.462273E-3,399.864006E-3
372.888565E-3,400.025940E-3
372.777557E-3,399.440575E-3
373.139191E-3,399.485779E-3
373.138046E-3,399.476624E-3
373.172951E-3,399.574471E-3
373.186684E-3,399.803352E-3
372.701454E-3,399.482918E-3
372.710037E-3,400.001335E-3
372.286606E-3,399.919510E-3
371.973038E-3,400.051689E-3
371.828842E-3,400.574112E-3
371.134758E-3,400.460815E-3
371.054077E-3,400.814438E-3
370.583153E-3,400.844765E-3
370.238113E-3,401.147461E-3
370.259285E-3,401.500511E-3
369.656181E-3,401.216698E-3
369.700241E-3,401.528549E-3
369.380951E-3,401.576042E-3
369.215012E-3,401.667595E-3
369.291115E-3,402.011490E-3
368.812180E-3,401.816368E-3
368.905449E-3,402.044678E-3
368.735504E-3,402.087593E-3
368.596458E-3,402.123070E-3
368.791008E-3,402.286148E-3
368.439102E-3,402.084732E-3
368.492317E-3,402.234077E-3
368.419647E-3,402.197456E-3
368.384171E-3,402.241516E-3
368.516922E-3,402.398872E-3
368.204498E-3,402.229500E-3
368.338394E-3,402.496719E-3
368.226242E-3,402.503014E-3
368.194771E-3,402.347946E-3
368.301773E-3,402.579117E-3
367.968750E-3,402.387428E-3
368.064308E-3,402.594566E-3
368.045425E-3,402.651787E-3
367.897224E-3,402.612877E-3
368.050003E-3,402.901840E-3
367.734146E-3,402.714157E-3
367.853165E-3,402.877235E-3
367.694664E-3,402.794838E-3
367.523003E-3,402.780533E-3
367.652321E-3,402.956200E-3
367.377090E-3,402.961349E-3
367.522430E-3,403.139305E-3
367.371368E-3,403.038597E-3
367.153358E-3,402.909279E-3
367.337036E-3,403.179359E-3
367.015457E-3,403.149605E-3
367.192841E-3,403.467178E-3
366.998291E-3,403.418541E-3
366.813469E-3,403.308105E-3
366.937637E-3,403.647423E-3
366.513634E-3,403.508949E-3
366.509056E-3,403.764153E-3
366.344261E-3,404.001617E-3
366.018105E-3,403.975868E-3
366.082191E-3,404.261398E-3
365.615273E-3,404.092598E-3
365.757179E-3,404.330635E-3
365.725136E-3,404.374123E-3
365.600395E-3,404.330635E-3
366.074753E-3,404.227066E-3
366.593170E-3,403.490067E-3
368.095779E-3,402.820015E-3
369.891357E-3,401.645851E-3
371.927261E-3,400.107765E-3
374.551392E-3,398.894691E-3
376.611328E-3,397.426987E-3
378.881836E-3,396.737480E-3
380.377007E-3,396.157265E-3
381.049347E-3,395.701218E-3
381.610107E-3,395.900345E-3
381.142044E-3,395.854568E-3
380.627060E-3,396.237373E-3
379.660606E-3,396.704865E-3
378.474426E-3,396.942329E-3
377.518272E-3,397.522545E-3
376.334381E-3,397.657585E-3
375.616837E-3,398.011208E-3
374.942207E-3,398.354530E-3
374.296188E-3,398.464966E-3
374.284172E-3,398.900414E-3
373.911095E-3,398.601723E-3
374.082756E-3,398.685265E-3
374.186325E-3,398.521614E-3
374.224663E-3,398.443794E-3
374.525642E-3,398.474693E-3
374.433517E-3,398.225784E-3
374.570274E-3,398.390007E-3
374.338531E-3,398.464966E-3
373.791504E-3,398.493576E-3
373.570633E-3,398.904991E-3
373.008156E-3,398.919868E-3
372.822189E-3,399.337578E-3
372.599030E-3,399.254036E-3
372.449112E-3,399.219131E-3
372.714615E-3,399.368477E-3
372.647095E-3,399.158478E-3
372.908020E-3,399.046898E-3
373.053360E-3,399.036598E-3
373.028183E-3,398.740768E-3
373.343468E-3,398.834610E-3
373.128891E-3,398.595428E-3
373.253632E-3,398.781967E-3
373.141479E-3,398.961067E-3
372.768974E-3,399.054337E-3
372.778702E-3,399.435997E-3
372.258568E-3,399.295807E-3
372.091484E-3,399.578476E-3
371.698380E-3,399.671173E-3
371.201706E-3,399.625397E-3
371.162224E-3,400.030518E-3
370.669556E-3,399.991608E-3
370.515633E-3,400.249672E-3
370.246124E-3,400.277138E-3
369.957161E-3,400.408745E-3
370.061874E-3,400.756645E-3
369.667053E-3,400.543785E-3
369.598389E-3,400.730896E-3
369.522285E-3,400.974655E-3
369.161797E-3,400.830460E-3
369.423866E-3,401.186371E-3
369.035912E-3,401.133728E-3
368.987274E-3,401.152039E-3
368.890572E-3,401.181793E-3
368.653679E-3,401.191521E-3
368.828201E-3,401.455307E-3
368.621635E-3,401.247597E-3
368.568993E-3,401.305962E-3
368.643379E-3,401.458168E-3
368.396187E-3,401.313400E-3
368.693733E-3,401.612091E-3
368.392181E-3,401.533127E-3
368.470001E-3,401.584053E-3
368.388748E-3,401.618385E-3
368.087196E-3,401.501083E-3
368.514633E-3,401.902199E-3
368.160439E-3,401.735115E-3
368.189621E-3,401.744843E-3
368.201065E-3,401.961136E-3
367.840004E-3,401.689339E-3
368.088913E-3,402.083588E-3
367.773056E-3,401.895905E-3
367.727852E-3,401.909637E-3
367.745018E-3,402.033806E-3
367.449188E-3,401.887894E-3
367.733002E-3,402.385712E-3
367.454338E-3,402.113914E-3
367.497826E-3,402.395439E-3
367.505264E-3,402.322197E-3
367.226601E-3,402.171707E-3
367.549324E-3,402.662086E-3
367.161369E-3,402.372551E-3
367.195702E-3,402.524185E-3
367.121887E-3,402.753067E-3
366.875267E-3,402.605438E-3
367.021751E-3,402.949905E-3
366.620064E-3,402.858925E-3
366.569138E-3,403.042603E-3
366.473579E-3,403.267479E-3
366.124535E-3,403.119850E-3
366.307640E-3,403.606796E-3
365.983200E-3,403.446007E-3
366.055870E-3,403.417397E-3
366.078186E-3,403.488350E-3
366.077614E-3,403.121567E-3
367.041779E-3,402.844048E-3
368.148422E-3,401.808357E-3
370.079613E-3,400.725746E-3
372.382736E-3,399.633408E-3
374.579430E-3,397.991753E-3
377.161217E-3,397.236443E-3
379.011726E-3,396.121788E-3
380.522919E-3,395.506668E-3
381.475639E-3,395.445442E-3
381.511688E-3,395.164490E-3
381.427574E-3,395.492363E-3
380.518341E-3,395.519829E-3
379.599380E-3,396.007919E-3
378.827477E-3,396.704292E-3
377.532005E-3,396.746063E-3
376.864815E-3,397.433853E-3
375.809669E-3,397.632408E-3
375.172806E-3,397.747421E-3
374.883270E-3,398.211479E-3
374.389458E-3,397.935104E-3
374.531937E-3,398.160553E-3
374.371147E-3,397.952843E-3
374.569130E-3,397.961998E-3
374.831200E-3,398.012352E-3
374.843788E-3,397.784615E-3
375.087547E-3,397.996330E-3
374.804878E-3,397.790337E-3
374.548531E-3,398.012352E-3
374.288177E-3,398.301888E-3
373.671913E-3,398.279572E-3
373.543167E-3,398.688126E-3
373.152924E-3,398.579407E-3
373.139763E-3,398.684692E-3
373.340034E-3,398.809433E-3
373.299980E-3,398.535347E-3
373.683929E-3,398.567390E-3
373.695946E-3,398.360252E-3
373.930550E-3,398.327065E-3
374.195480E-3,398.391724E-3
374.071312E-3,398.094749E-3
374.258423E-3,398.283005E-3
373.866463E-3,398.131943E-3
373.804665E-3,398.278427E-3
373.757744E-3,398.684692E-3
373.265648E-3,398.533058E-3
373.159218E-3,398.938179E-3
372.680855E-3,398.876953E-3
372.411919E-3,399.139023E-3
372.332382E-3,399.449158E-3
371.795082E-3,399.357033E-3
371.716118E-3,399.665451E-3
371.363068E-3,399.592781E-3
371.046066E-3,399.750137E-3
371.023178E-3,400.014496E-3
370.649529E-3,399.845695E-3
370.733643E-3,400.220490E-3
370.461273E-3,400.196457E-3
370.321083E-3,400.387573E-3
370.350838E-3,400.615311E-3
370.004654E-3,400.418472E-3
370.076752E-3,400.755501E-3
369.816971E-3,400.558662E-3
369.776344E-3,400.552940E-3
369.861031E-3,400.720024E-3
369.569206E-3,400.480270E-3
369.820404E-3,400.825310E-3
369.628143E-3,400.686836E-3
369.636154E-3,400.751495E-3
369.765472E-3,401.061058E-3
369.364929E-3,400.685692E-3
369.609833E-3,401.010132E-3
369.367218E-3,401.016998E-3
369.335175E-3,401.099396E-3
369.438171E-3,401.255035E-3
369.063377E-3,400.901985E-3
369.262505E-3,401.209259E-3
369.079971E-3,401.217842E-3
369.007301E-3,401.220703E-3
369.033051E-3,401.519966E-3
368.728065E-3,401.190948E-3
368.916893E-3,401.437569E-3
368.701744E-3,401.415825E-3
368.542671E-3,401.368332E-3
368.664551E-3,401.605225E-3
368.235397E-3,401.517677E-3
368.438530E-3,401.759720E-3
368.193054E-3,401.726532E-3
368.016815E-3,401.930237E-3
368.030548E-3,402.095604E-3
367.482948E-3,402.027512E-3
367.558479E-3,402.279282E-3
367.176247E-3,402.306175E-3
367.034340E-3,402.398872E-3
367.082977E-3,402.806282E-3
366.680145E-3,402.527046E-3
366.775131E-3,402.764511E-3
366.592026E-3,402.682686E-3
366.640663E-3,402.688980E-3
367.020035E-3,402.758217E-3
367.373085E-3,401.947403E-3
368.802452E-3,401.372337E-3
370.413208E-3,400.289154E-3
372.585869E-3,398.945045E-3
374.922752E-3,397.937393E-3
376.774979E-3,396.411896E-3
378.995132E-3,395.942116E-3
380.288887E-3,395.259476E-3
381.104851E-3,395.102692E-3
381.515121E-3,395.129013E-3
380.939484E-3,395.124435E-3
380.525780E-3,395.617676E-3
379.563904E-3,395.773315E-3
378.556824E-3,396.213341E-3
377.731705E-3,396.891975E-3
376.316071E-3,396.788406E-3
375.690079E-3,397.260475E-3
374.864388E-3,397.563744E-3
374.486732E-3,397.702789E-3
374.400330E-3,397.947693E-3
374.005508E-3,397.595215E-3
374.242401E-3,397.904778E-3
374.260139E-3,397.690201E-3
374.431801E-3,397.663879E-3
374.714470E-3,397.752571E-3
374.354553E-3,397.440720E-3
374.327087E-3,397.770309E-3
373.806953E-3,397.857285E-3
373.331451E-3,398.103905E-3
373.039627E-3,398.419762E-3
372.465134E-3,398.273277E-3
372.449112E-3,398.482132E-3
372.461700E-3,398.550797E-3
372.514343E-3,398.250389E-3
372.923470E-3,398.395729E-3
372.778702E-3,397.971725E-3
373.229599E-3,398.046112E-3
373.346901E-3,397.865868E-3
373.336601E-3,397.683334E-3
373.633575E-3,397.906494E-3
373.354912E-3,397.695923E-3
373.439026E-3,398.073006E-3
373.239326E-3,398.168564E-3
372.771263E-3,398.041534E-3
372.675705E-3,398.357391E-3
372.100639E-3,398.249817E-3
371.854019E-3,398.594856E-3
371.516991E-3,398.757362E-3
371.097565E-3,398.870659E-3
371.029472E-3,399.330711E-3
370.575714E-3,399.274635E-3
370.539665E-3,399.517822E-3
370.318222E-3,399.654007E-3
369.949150E-3,399.525261E-3
369.965172E-3,399.763870E-3
369.632149E-3,399.788475E-3
369.804382E-3,400.065994E-3
369.586945E-3,400.053978E-3
369.388962E-3,399.844551E-3
369.616699E-3,400.231934E-3
369.233322E-3,399.999619E-3
369.329453E-3,400.340080E-3
369.255066E-3,400.358963E-3
369.064522E-3,400.150681E-3
369.195557E-3,400.396729E-3
368.938637E-3,400.257111E-3
368.990707E-3,400.518036E-3
368.894577E-3,400.357246E-3
368.811607E-3,400.365829E-3
368.939209E-3,400.454521E-3
368.720055E-3,400.457382E-3
368.936920E-3,400.690842E-3
368.709755E-3,400.620461E-3
368.517494E-3,400.564957E-3
368.662834E-3,400.788689E-3
368.408203E-3,400.562668E-3
368.508911E-3,400.742912E-3
368.440819E-3,400.976372E-3
368.120384E-3,400.860786E-3
368.201065E-3,401.085663E-3
367.912674E-3,400.924301E-3
367.961311E-3,401.098251E-3
367.918968E-3,401.284218E-3
367.675209E-3,401.134300E-3
367.791367E-3,401.407242E-3
367.564201E-3,401.173782E-3
367.641449E-3,401.331139E-3
367.581940E-3,401.374054E-3
367.404556E-3,401.257324E-3
367.537880E-3,401.509666E-3
367.250061E-3,401.427269E-3
367.366219E-3,401.789474E-3
367.201996E-3,401.876450E-3
366.836929E-3,401.661873E-3
366.945076E-3,402.113342E-3
366.512489E-3,401.899338E-3
366.460991E-3,402.095604E-3
366.287613E-3,402.299881E-3
366.021538E-3,402.330780E-3
366.085052E-3,402.505875E-3
365.921974E-3,402.429199E-3
366.138840E-3,402.519608E-3
366.336250E-3,402.328491E-3
366.777420E-3,401.633835E-3
368.269157E-3,401.124001E-3
369.758606E-3,399.780464E-3
372.073174E-3,398.531342E-3
374.457550E-3,397.224998E-3
376.691437E-3,395.981598E-3
379.199409E-3,395.539284E-3
380.512047E-3,394.596291E-3
381.718826E-3,394.512749E-3
381.967735E-3,394.343376E-3
381.627846E-3,394.291306E-3
381.326866E-3,394.915581E-3
380.232239E-3,395.032883E-3
379.208565E-3,395.420837E-3
378.135681E-3,395.705795E-3
377.034760E-3,395.788765E-3
376.523781E-3,396.474266E-3
375.692940E-3,396.370697E-3
375.447464E-3,396.646500E-3
375.363922E-3,396.692848E-3
375.183105E-3,396.481133E-3
375.615692E-3,396.878242E-3
375.524712E-3,396.540070E-3
375.804520E-3,396.366692E-3
375.967026E-3,396.291161E-3
375.901794E-3,396.030807E-3
376.090622E-3,396.376419E-3
375.557899E-3,396.360970E-3
375.135040E-3,396.672249E-3
374.574280E-3,396.899986E-3
373.860168E-3,396.989822E-3
373.689651E-3,397.532845E-3
373.249626E-3,397.291946E-3
373.293686E-3,397.369766E-3
373.373795E-3,397.448158E-3
373.350334E-3,397.077942E-3
373.808670E-3,397.191238E-3
373.825264E-3,396.827316E-3
374.015236E-3,396.791267E-3
374.153709E-3,396.721458E-3
374.089622E-3,396.748924E-3
374.335098E-3,396.987534E-3
373.979187E-3,396.854782E-3
373.826408E-3,397.066498E-3
373.519707E-3,397.055626E-3
373.039055E-3,397.081375E-3
373.053360E-3,397.650719E-3
372.518921E-3,397.575760E-3
372.263145E-3,397.691917E-3
371.986198E-3,397.940254E-3
371.536446E-3,397.770882E-3
371.632004E-3,398.355675E-3
371.203995E-3,398.114204E-3
371.068954E-3,398.460388E-3
370.943069E-3,398.551369E-3
370.573997E-3,398.364830E-3
370.809746E-3,398.843765E-3
370.493889E-3,398.733902E-3
370.466423E-3,398.795128E-3
370.424080E-3,399.042892E-3
370.108223E-3,398.774529E-3
370.274734E-3,399.054337E-3
370.015526E-3,398.927307E-3
370.039558E-3,399.021149E-3
370.098495E-3,399.330139E-3
369.763184E-3,399.168205E-3
370.014954E-3,399.346733E-3
369.781494E-3,399.157906E-3
369.731712E-3,399.114418E-3
369.875908E-3,399.335861E-3
369.660187E-3,399.268341E-3
369.805527E-3,399.584770E-3
369.619560E-3,399.394798E-3
369.569778E-3,399.360466E-3
369.580078E-3,399.663162E-3
369.322586E-3,399.534416E-3
369.474792E-3,399.795341E-3
369.168091E-3,399.541283E-3
369.197273E-3,399.628830E-3
369.170380E-3,399.829674E-3
368.885422E-3,399.633408E-3
369.118881E-3,400.108337E-3
368.799019E-3,399.888039E-3
368.690300E-3,400.126648E-3
368.777847E-3,400.205612E-3
368.546677E-3,400.075722E-3
368.699455E-3,400.305176E-3
368.396759E-3,400.094604E-3
368.416214E-3,400.252533E-3
368.517494E-3,400.420761E-3
368.240547E-3,400.258827E-3
368.418503E-3,400.580406E-3
368.118095E-3,400.495148E-3
368.071747E-3,400.662231E-3
368.125534E-3,400.869942E-3
367.803955E-3,400.826454E-3
367.756462E-3,401.007271E-3
367.402267E-3,400.901413E-3
367.283249E-3,401.015282E-3
367.310715E-3,401.486778E-3
367.016602E-3,401.226425E-3
367.165947E-3,401.422691E-3
366.990852E-3,401.319122E-3
367.048645E-3,401.330566E-3
367.305565E-3,401.269913E-3
367.684364E-3,400.610161E-3
368.986702E-3,400.060844E-3
370.564270E-3,399.030304E-3
372.700310E-3,397.920227E-3
375.145340E-3,396.928596E-3
377.169228E-3,395.487785E-3
379.451180E-3,394.951057E-3
380.840492E-3,394.240379E-3
381.685066E-3,394.028091E-3
382.201195E-3,394.168282E-3
381.811523E-3,393.986320E-3
381.359482E-3,394.495583E-3
380.259132E-3,394.528770E-3
379.238319E-3,394.861794E-3
378.398323E-3,395.460320E-3
377.116013E-3,395.359039E-3
376.517487E-3,395.843697E-3
375.703239E-3,395.871162E-3
375.355911E-3,396.023941E-3
375.357628E-3,396.264267E-3
375.143051E-3,396.065712E-3
375.474358E-3,396.256256E-3
375.442886E-3,396.048546E-3
375.603676E-3,395.902061E-3
375.873184E-3,395.943260E-3
375.644875E-3,395.743561E-3
375.642586E-3,396.021080E-3
375.058937E-3,396.085167E-3
374.559975E-3,396.290016E-3
374.184608E-3,396.644211E-3
373.568916E-3,396.585274E-3
373.665047E-3,396.981812E-3
373.465347E-3,396.804428E-3
373.422432E-3,396.628761E-3
373.907661E-3,396.936035E-3
373.837852E-3,396.351814E-3
374.330521E-3,396.398163E-3
374.436378E-3,396.368980E-3
374.437523E-3,396.172714E-3
374.761963E-3,396.447945E-3
374.325943E-3,396.199608E-3
374.454689E-3,396.592140E-3
374.079323E-3,396.508026E-3
373.683929E-3,396.673965E-3
373.568344E-3,397.131157E-3
372.934914E-3,396.889114E-3
372.732925E-3,397.207260E-3
372.269440E-3,397.284508E-3
371.980476E-3,397.401237E-3
371.876335E-3,397.654152E-3
371.233177E-3,397.400665E-3
371.251488E-3,397.820663E-3
370.999718E-3,397.946548E-3
370.702744E-3,397.957993E-3
370.747375E-3,398.256683E-3
370.248413E-3,397.924805E-3
370.346832E-3,398.321342E-3
370.124245E-3,398.435211E-3
370.034981E-3,398.402023E-3
370.056152E-3,398.776817E-3
369.637299E-3,398.307037E-3
369.705391E-3,398.721886E-3
369.593811E-3,398.696709E-3
369.515991E-3,398.601151E-3
369.593811E-3,398.851776E-3
369.207573E-3,398.601723E-3
369.354630E-3,398.825455E-3
369.272804E-3,398.933029E-3
369.145775E-3,398.823738E-3
369.312859E-3,399.058914E-3
368.938065E-3,398.833466E-3
369.043350E-3,399.045181E-3
368.862534E-3,399.080658E-3
368.732071E-3,399.003983E-3
368.864822E-3,399.231148E-3
368.461990E-3,399.167061E-3
368.626785E-3,399.446297E-3
368.408203E-3,399.305534E-3
368.308640E-3,399.333572E-3
368.413353E-3,399.681473E-3
367.909241E-3,399.415398E-3
368.055153E-3,399.552727E-3
367.872620E-3,399.577904E-3
367.675781E-3,399.497795E-3
367.853165E-3,399.705505E-3
367.489243E-3,399.644279E-3
367.616272E-3,399.777031E-3
367.483521E-3,399.853134E-3
367.319298E-3,399.894333E-3
367.398262E-3,400.190163E-3
366.992569E-3,400.056267E-3
366.997147E-3,400.324059E-3
366.748238E-3,400.313759E-3
366.427803E-3,400.286865E-3
366.513062E-3,400.615883E-3
366.060448E-3,400.476837E-3
366.119385E-3,400.911140E-3
365.905380E-3,400.893402E-3
365.766907E-3,400.831604E-3
365.904236E-3,401.099396E-3
365.689659E-3,400.701714E-3
366.246986E-3,400.776672E-3
366.931343E-3,400.220490E-3
368.124390E-3,399.123573E-3
370.127106E-3,398.122215E-3
372.264290E-3,396.673965E-3
374.879837E-3,395.688057E-3
377.112579E-3,394.624901E-3
378.921890E-3,393.656731E-3
380.602455E-3,393.487930E-3
381.216431E-3,393.132019E-3
381.567192E-3,393.225288E-3
381.242180E-3,393.476486E-3
380.467415E-3,393.494797E-3
379.664612E-3,393.960571E-3
378.429222E-3,394.225502E-3
377.540016E-3,394.631195E-3
376.608467E-3,394.789124E-3
375.667191E-3,394.946480E-3
375.323296E-3,395.250320E-3
374.922180E-3,395.204544E-3
374.960518E-3,395.240021E-3
375.043488E-3,395.170212E-3
375.026321E-3,395.066071E-3
375.422859E-3,395.059776E-3
375.416565E-3,394.703865E-3
375.724983E-3,394.805717E-3
375.736427E-3,394.698143E-3
375.371933E-3,394.672966E-3
375.235176E-3,395.147324E-3
374.428368E-3,395.272636E-3
373.900795E-3,395.597649E-3
373.329163E-3,395.858002E-3
372.839355E-3,395.876884E-3
372.809601E-3,396.101761E-3
372.570992E-3,395.961571E-3
372.756386E-3,396.003342E-3
372.855377E-3,395.886040E-3
372.928047E-3,395.612526E-3
373.325157E-3,395.845985E-3
373.191833E-3,395.522118E-3
373.362923E-3,395.539856E-3
373.395538E-3,395.496941E-3
373.091125E-3,395.471191E-3
373.148918E-3,395.750427E-3
372.709465E-3,395.673180E-3
372.553253E-3,395.960999E-3
372.242546E-3,396.081161E-3
371.694946E-3,396.128082E-3
371.696663E-3,396.531487E-3
371.030617E-3,396.448517E-3
370.869255E-3,396.642494E-3
370.614052E-3,396.875954E-3
370.217514E-3,396.829033E-3
370.192337E-3,397.184372E-3
369.774628E-3,397.092247E-3
369.710541E-3,397.295380E-3
369.549751E-3,397.496796E-3
369.240761E-3,397.373772E-3
369.343758E-3,397.630692E-3
368.965530E-3,397.448158E-3
368.926620E-3,397.564888E-3
368.761253E-3,397.671890E-3
368.470573E-3,397.495651E-3
368.613625E-3,397.885895E-3
368.335533E-3,397.878456E-3
368.440247E-3,397.933960E-3
368.365860E-3,397.959137E-3
368.092346E-3,397.731400E-3
368.371582E-3,398.246384E-3
367.926407E-3,397.921371E-3
367.973900E-3,397.951698E-3
367.943573E-3,398.047829E-3
367.662621E-3,397.865868E-3
367.869759E-3,398.243523E-3
367.553902E-3,398.052406E-3
367.514992E-3,398.130798E-3
367.448044E-3,398.224640E-3
367.202568E-3,398.229218E-3
367.349625E-3,398.559380E-3
367.058945E-3,398.520470E-3
366.965103E-3,398.498154E-3
366.810036E-3,398.590279E-3
366.459274E-3,398.517609E-3
366.674423E-3,398.844910E-3
366.259003E-3,398.740768E-3
366.222382E-3,398.903275E-3
366.125107E-3,398.882103E-3
365.859604E-3,398.868942E-3
366.034698E-3,399.115562E-3
365.690231E-3,398.931313E-3
365.695953E-3,399.030304E-3
365.678215E-3,399.206543E-3
365.375519E-3,398.994255E-3
365.610695E-3,399.280357E-3
365.453911E-3,399.282074E-3
365.358353E-3,399.241447E-3
365.469933E-3,399.452019E-3
365.075111E-3,399.201393E-3
365.319443E-3,399.711800E-3
365.005875E-3,399.480629E-3
364.817619E-3,399.535561E-3
364.718056E-3,399.755859E-3
364.340973E-3,399.736977E-3
364.486313E-3,400.051117E-3
364.040565E-3,399.945259E-3
363.969040E-3,400.139236E-3
363.974762E-3,400.321770E-3
363.740730E-3,400.091743E-3
364.195633E-3,400.322342E-3
364.240265E-3,399.810791E-3
