Notes :


2023-10-27 ¿ÀÈÄ 9:13:41
Volts
Ch : LED 2,
806.656837E-3
812.705612E-3
817.912674E-3
823.878479E-3
826.425934E-3
829.079819E-3
829.197121E-3
827.106285E-3
826.060295E-3
823.242187E-3
821.871758E-3
819.143486E-3
815.896225E-3
815.539742E-3
813.408279E-3
813.760757E-3
813.377380E-3
812.447548E-3
813.812828E-3
813.424873E-3
814.720917E-3
814.109802E-3
812.072182E-3
811.766052E-3
809.523010E-3
809.591103E-3
809.129906E-3
808.042717E-3
809.717560E-3
809.790802E-3
811.332893E-3
811.927414E-3
811.138344E-3
812.956810E-3
811.901665E-3
812.187767E-3
811.535454E-3
809.111595E-3
810.087204E-3
807.633591E-3
807.420731E-3
806.100655E-3
803.950310E-3
804.942513E-3
802.659988E-3
802.431679E-3
801.714706E-3
799.846458E-3
801.601982E-3
799.996948E-3
800.581169E-3
800.152588E-3
798.910332E-3
800.605202E-3
799.124908E-3
799.679375E-3
799.526596E-3
798.274040E-3
800.097656E-3
798.554993E-3
799.142647E-3
798.917770E-3
797.813988E-3
799.626732E-3
798.036003E-3
798.536682E-3
798.238564E-3
795.830727E-3
798.357582E-3
796.872139E-3
797.342491E-3
797.668076E-3
796.343422E-3
797.995377E-3
796.191788E-3
796.430397E-3
795.929718E-3
794.223976E-3
795.745468E-3
793.743896E-3
793.735313E-3
793.216896E-3
791.762352E-3
793.183136E-3
791.186142E-3
791.701698E-3
791.801834E-3
789.794540E-3
793.648338E-3
795.280266E-3
800.703049E-3
806.970406E-3
812.215805E-3
820.445824E-3
824.205208E-3
828.264427E-3
830.050850E-3
829.282379E-3
830.224228E-3
827.246475E-3
825.485229E-3
823.089981E-3
820.115089E-3
820.063019E-3
817.096138E-3
816.621780E-3
816.460991E-3
815.413284E-3
817.623711E-3
816.571999E-3
817.447472E-3
817.905807E-3
816.888428E-3
818.199921E-3
815.494537E-3
814.342117E-3
812.953377E-3
810.912895E-3
812.414360E-3
811.055946E-3
811.731148E-3
812.540817E-3
812.231827E-3
814.581299E-3
813.454628E-3
814.095497E-3
814.154434E-3
812.805176E-3
814.105225E-3
811.662483E-3
811.139488E-3
810.334396E-3
808.259583E-3
809.270096E-3
806.789017E-3
806.498909E-3
805.928993E-3
804.092216E-3
805.592537E-3
803.491402E-3
803.443336E-3
803.292847E-3
801.383972E-3
803.286552E-3
801.733017E-3
802.189064E-3
802.152443E-3
801.076126E-3
803.029060E-3
801.335907E-3
801.811409E-3
801.740456E-3
800.815201E-3
802.483749E-3
800.836372E-3
800.850105E-3
800.813484E-3
799.770355E-3
801.449203E-3
799.829865E-3
800.033569E-3
800.185776E-3
799.164391E-3
800.658989E-3
798.932076E-3
799.055672E-3
798.826218E-3
797.558784E-3
798.756981E-3
796.700478E-3
796.682739E-3
795.997810E-3
794.656563E-3
796.129417E-3
794.050598E-3
793.880653E-3
793.771362E-3
792.967987E-3
794.693184E-3
794.849968E-3
798.067474E-3
802.833939E-3
808.203506E-3
815.995789E-3
820.666122E-3
826.013374E-3
829.582214E-3
830.510330E-3
832.314491E-3
829.807091E-3
828.411484E-3
826.496887E-3
823.350334E-3
822.891998E-3
819.527435E-3
818.560410E-3
817.781639E-3
816.640663E-3
818.338394E-3
816.878700E-3
817.712402E-3
818.328667E-3
817.708969E-3
818.877983E-3
816.475868E-3
815.277100E-3
814.107513E-3
812.129974E-3
813.272095E-3
811.429596E-3
811.797523E-3
812.568855E-3
812.508202E-3
814.742661E-3
813.552475E-3
814.340973E-3
814.578438E-3
812.629509E-3
814.226532E-3
812.109947E-3
811.650467E-3
810.848808E-3
809.120178E-3
809.827423E-3
807.203865E-3
806.699181E-3
805.952454E-3
804.475021E-3
805.735588E-3
803.470802E-3
803.268814E-3
803.059959E-3
802.091789E-3
803.625298E-3
801.741028E-3
802.159882E-3
801.947021E-3
800.458717E-3
802.473450E-3
800.812340E-3
801.187706E-3
801.247787E-3
800.492477E-3
802.102089E-3
800.502777E-3
800.843239E-3
800.504494E-3
798.987579E-3
800.825500E-3
799.391556E-3
799.759483E-3
799.852180E-3
798.857689E-3
800.207520E-3
798.385620E-3
798.533249E-3
798.236275E-3
796.995163E-3
798.129272E-3
795.902252E-3
795.645905E-3
795.252800E-3
794.154167E-3
795.227623E-3
793.460655E-3
793.678093E-3
793.895531E-3
792.424393E-3
795.545197E-3
796.498489E-3
800.867271E-3
806.500626E-3
811.435890E-3
819.178963E-3
822.897148E-3
826.847649E-3
829.032326E-3
828.690147E-3
829.646873E-3
826.356697E-3
824.551392E-3
822.204208E-3
819.226456E-3
818.963814E-3
815.901947E-3
815.004158E-3
814.518356E-3
812.724495E-3
814.896584E-3
814.288902E-3
815.156937E-3
815.133476E-3
813.886642E-3
814.120674E-3
811.130905E-3
810.014534E-3
809.407997E-3
807.514572E-3
809.854889E-3
809.542465E-3
810.726357E-3
811.966324E-3
812.057877E-3
814.078903E-3
812.872696E-3
813.205719E-3
812.807465E-3
811.304283E-3
811.883354E-3
809.211159E-3
808.434105E-3
807.712555E-3
806.037140E-3
806.753540E-3
804.551125E-3
804.128265E-3
803.735161E-3
802.478600E-3
803.576660E-3
801.640892E-3
801.560211E-3
801.557350E-3
800.683022E-3
802.091789E-3
800.764847E-3
800.848961E-3
800.890160E-3
800.066757E-3
801.583672E-3
799.980354E-3
800.489616E-3
800.448990E-3
799.753189E-3
801.101875E-3
799.402428E-3
799.645042E-3
799.846458E-3
799.024200E-3
800.580597E-3
798.869705E-3
799.041367E-3
799.094582E-3
797.935867E-3
799.008179E-3
797.248077E-3
796.999168E-3
796.664429E-3
795.225906E-3
796.275330E-3
794.267464E-3
793.951035E-3
793.856621E-3
792.783737E-3
794.478607E-3
793.254662E-3
794.486046E-3
797.623444E-3
801.239777E-3
808.505058E-3
813.442039E-3
819.795799E-3
825.195122E-3
826.894569E-3
830.913162E-3
830.163574E-3
829.493523E-3
828.215218E-3
825.268936E-3
824.633789E-3
821.112442E-3
819.612122E-3
818.639374E-3
816.078758E-3
817.947578E-3
817.075539E-3
817.627716E-3
818.384743E-3
817.005730E-3
819.445610E-3
818.138695E-3
817.259216E-3
815.946579E-3
813.500977E-3
813.783073E-3
811.762047E-3
811.758614E-3
812.197495E-3
811.202431E-3
814.016533E-3
813.510704E-3
814.197350E-3
814.860535E-3
814.034271E-3
815.110016E-3
813.276672E-3
812.726784E-3
812.047577E-3
810.479736E-3
811.011314E-3
808.889008E-3
808.036995E-3
807.188988E-3
805.520439E-3
806.403351E-3
804.618645E-3
804.127121E-3
804.018974E-3
802.717781E-3
803.791809E-3
802.626801E-3
802.461433E-3
802.834511E-3
801.857185E-3
803.184128E-3
802.111816E-3
801.920128E-3
802.005386E-3
801.153374E-3
802.567291E-3
801.405716E-3
801.468658E-3
801.577377E-3
800.546265E-3
801.774788E-3
800.541687E-3
800.307083E-3
800.787735E-3
799.837875E-3
801.215744E-3
799.946022E-3
799.659920E-3
799.573517E-3
798.150444E-3
799.187279E-3
797.585678E-3
796.769142E-3
796.413231E-3
794.946098E-3
796.002388E-3
794.906616E-3
794.343567E-3
794.860840E-3
793.525314E-3
795.901680E-3
796.998596E-3
800.774002E-3
806.331253E-3
811.285973E-3
819.071960E-3
823.493958E-3
827.614403E-3
830.336380E-3
829.621124E-3
831.060791E-3
828.924179E-3
827.070808E-3
824.977112E-3
821.502686E-3
821.202278E-3
819.046783E-3
818.167877E-3
818.104362E-3
816.432381E-3
818.561554E-3
818.399620E-3
818.796158E-3
819.528580E-3
817.733574E-3
818.628502E-3
816.333961E-3
814.608192E-3
813.583946E-3
809.934425E-3
812.012672E-3
811.853600E-3
812.307930E-3
813.329315E-3
812.432098E-3
814.620209E-3
814.344406E-3
814.274025E-3
814.573860E-3
812.281609E-3
813.376236E-3
811.782646E-3
810.624504E-3
810.128975E-3
807.491112E-3
808.271599E-3
806.756401E-3
805.947876E-3
805.705261E-3
803.263664E-3
804.517365E-3
803.417587E-3
802.930069E-3
803.168106E-3
801.032639E-3
802.521515E-3
801.815414E-3
801.413727E-3
801.473808E-3
799.159813E-3
801.607704E-3
801.096153E-3
800.891304E-3
801.226616E-3
799.496269E-3
801.051521E-3
800.518799E-3
799.985504E-3
800.146866E-3
798.518944E-3
800.232697E-3
799.660492E-3
799.313164E-3
799.486542E-3
797.699547E-3
799.267960E-3
798.486900E-3
797.998238E-3
797.916985E-3
795.822716E-3
797.024918E-3
795.870209E-3
794.994164E-3
795.036507E-3
793.067551E-3
794.193077E-3
793.347931E-3
792.902184E-3
793.195724E-3
791.693687E-3
794.349289E-3
796.050453E-3
799.635315E-3
805.335617E-3
810.078621E-3
817.663193E-3
822.347832E-3
825.874901E-3
828.157425E-3
827.271080E-3
828.438377E-3
826.342392E-3
823.882484E-3
822.030258E-3
818.206215E-3
818.146706E-3
816.016388E-3
814.621353E-3
814.558411E-3
812.757111E-3
814.862251E-3
814.879417E-3
814.830780E-3
815.380096E-3
813.293839E-3
814.077187E-3
812.051582E-3
810.150719E-3
809.815979E-3
807.797813E-3
809.853172E-3
809.980774E-3
810.186195E-3
811.728287E-3
810.931206E-3
813.483810E-3
812.909889E-3
812.224388E-3
812.471008E-3
810.126686E-3
811.027908E-3
809.619141E-3
807.779503E-3
807.346344E-3
805.115891E-3
805.889511E-3
804.492187E-3
802.935219E-3
803.117752E-3
801.278687E-3
802.601051E-3
801.738167E-3
800.587463E-3
800.837517E-3
799.915123E-3
801.284981E-3
800.635529E-3
799.654770E-3
800.366592E-3
798.902321E-3
800.605774E-3
799.934578E-3
798.766708E-3
799.492836E-3
798.509216E-3
799.893379E-3
799.122047E-3
798.042297E-3
798.901749E-3
797.821426E-3
799.460220E-3
798.543549E-3
797.504997E-3
797.924995E-3
797.008324E-3
798.331833E-3
797.272682E-3
795.929146E-3
796.147728E-3
794.792175E-3
795.814705E-3
794.693756E-3
793.485260E-3
793.586540E-3
792.111397E-3
793.319893E-3
792.395210E-3
791.684532E-3
792.697334E-3
793.521881E-3
798.169899E-3
802.179337E-3
807.469940E-3
814.061737E-3
819.513702E-3
825.726128E-3
828.403473E-3
829.230881E-3
830.184746E-3
828.515625E-3
828.200912E-3
825.406837E-3
821.977043E-3
820.850945E-3
818.555832E-3
818.671989E-3
817.588806E-3
816.620064E-3
817.363930E-3
817.189980E-3
818.999863E-3
818.875694E-3
818.082619E-3
818.326950E-3
816.515923E-3
816.174316E-3
813.719559E-3
811.653328E-3
811.540604E-3
810.435677E-3
812.124252E-3
811.962318E-3
811.839294E-3
813.239479E-3
812.806892E-3
814.524078E-3
813.864899E-3
812.957382E-3
813.144493E-3
811.669922E-3
812.263870E-3
810.382462E-3
808.709908E-3
808.456421E-3
806.738663E-3
807.170677E-3
805.872345E-3
803.694534E-3
804.052734E-3
802.890587E-3
803.860474E-3
803.048515E-3
802.070618E-3
802.470016E-3
801.649475E-3
802.762985E-3
801.937866E-3
800.926208E-3
801.650047E-3
800.898743E-3
801.993370E-3
801.390266E-3
800.604057E-3
801.227188E-3
800.179482E-3
801.337051E-3
800.509644E-3
799.532318E-3
800.148582E-3
799.045372E-3
800.383759E-3
799.666214E-3
798.480034E-3
798.960686E-3
798.105812E-3
799.332047E-3
798.616791E-3
797.438622E-3
797.539902E-3
796.528816E-3
797.393990E-3
796.188927E-3
794.831085E-3
795.168686E-3
793.777657E-3
794.581032E-3
793.600845E-3
792.486763E-3
793.111610E-3
792.391205E-3
794.227982E-3
795.748901E-3
798.661995E-3
804.814339E-3
810.138702E-3
817.832565E-3
822.805023E-3
826.316071E-3
829.914093E-3
830.248833E-3
831.391525E-3
829.441452E-3
826.589584E-3
824.991989E-3
821.949005E-3
821.396828E-3
819.229317E-3
817.444611E-3
817.720985E-3
816.783714E-3
818.140411E-3
818.004227E-3
817.178535E-3
818.568420E-3
817.937851E-3
818.657112E-3
816.769409E-3
814.355278E-3
813.435173E-3
811.524010E-3
812.118530E-3
811.421585E-3
810.567856E-3
811.974335E-3
811.883926E-3
813.701820E-3
813.629150E-3
812.415504E-3
813.503265E-3
812.331390E-3
812.912178E-3
811.661339E-3
809.844589E-3
809.545898E-3
807.859039E-3
808.226967E-3
806.737518E-3
804.995728E-3
805.080414E-3
803.584671E-3
804.164314E-3
803.169823E-3
801.594543E-3
802.211952E-3
801.002312E-3
801.710129E-3
801.153374E-3
799.940872E-3
800.779152E-3
799.804687E-3
800.671577E-3
800.438118E-3
799.204445E-3
800.066185E-3
799.083138E-3
800.195503E-3
799.608994E-3
798.517799E-3
799.193001E-3
798.351288E-3
799.256516E-3
798.630524E-3
797.250366E-3
797.901535E-3
796.823502E-3
797.899246E-3
797.423744E-3
796.000671E-3
796.726227E-3
795.555496E-3
796.361160E-3
795.783234E-3
794.309807E-3
794.532967E-3
793.222046E-3
793.988800E-3
793.347359E-3
791.754341E-3
792.207527E-3
790.890884E-3
791.779518E-3
791.384125E-3
789.834023E-3
792.059898E-3
793.812561E-3
799.182129E-3
804.608917E-3
809.975052E-3
816.993141E-3
821.256065E-3
825.895500E-3
827.776909E-3
826.487160E-3
826.650238E-3
824.385452E-3
823.164940E-3
820.436096E-3
817.084122E-3
816.136551E-3
813.875771E-3
813.807678E-3
812.999725E-3
811.557198E-3
812.939072E-3
812.565422E-3
813.778496E-3
813.825417E-3
812.437820E-3
812.616920E-3
810.279465E-3
809.663200E-3
808.534813E-3
806.223679E-3
807.761192E-3
807.629013E-3
809.184265E-3
810.008812E-3
809.754181E-3
811.574364E-3
811.204147E-3
811.965179E-3
811.603546E-3
809.734726E-3
810.218239E-3
808.124542E-3
807.697105E-3
806.449127E-3
804.039001E-3
805.043793E-3
802.990150E-3
802.716064E-3
801.905251E-3
800.188637E-3
801.779938E-3
799.675941E-3
799.975204E-3
799.766350E-3
798.366165E-3
800.412941E-3
798.877144E-3
799.206161E-3
799.123764E-3
797.864914E-3
799.805260E-3
798.334122E-3
799.027634E-3
798.478889E-3
797.130203E-3
799.159813E-3
797.476387E-3
798.040009E-3
797.664070E-3
796.342278E-3
798.287773E-3
796.641541E-3
796.992874E-3
797.070694E-3
795.815849E-3
797.462654E-3
795.887375E-3
795.723724E-3
795.316315E-3
793.798256E-3
795.203018E-3
793.127060E-3
793.012619E-3
792.536545E-3
790.897751E-3
792.365456E-3
790.515518E-3
791.003609E-3
791.087151E-3
790.422249E-3
794.313812E-3
796.785164E-3
802.769852E-3
809.116745E-3
814.213943E-3
821.710968E-3
824.870110E-3
828.337669E-3
829.626846E-3
828.403473E-3
828.867531E-3
825.668335E-3
824.001503E-3
821.508980E-3
818.395615E-3
818.448830E-3
816.114235E-3
815.878487E-3
815.694237E-3
814.830208E-3
817.025757E-3
816.038132E-3
816.802025E-3
817.034912E-3
815.598106E-3
816.302490E-3
813.323593E-3
812.153435E-3
810.919189E-3
809.188271E-3
810.886574E-3
809.581375E-3
810.286331E-3
810.872841E-3
810.538101E-3
813.018608E-3
811.834717E-3
812.274742E-3
812.077332E-3
810.750389E-3
811.756897E-3
809.395981E-3
808.798599E-3
807.667923E-3
805.793953E-3
806.752968E-3
804.381180E-3
803.989792E-3
803.313446E-3
801.770782E-3
803.231621E-3
801.090431E-3
801.202011E-3
800.913620E-3
799.634743E-3
801.244354E-3
799.575233E-3
799.733734E-3
799.697685E-3
798.679161E-3
800.236130E-3
798.690033E-3
799.116325E-3
799.153519E-3
798.353577E-3
799.811554E-3
798.155022E-3
798.362732E-3
798.374748E-3
797.223473E-3
798.772430E-3
797.067833E-3
797.221184E-3
797.375679E-3
796.115685E-3
797.575378E-3
795.838737E-3
795.982933E-3
795.940590E-3
794.586182E-3
795.968628E-3
793.947601E-3
793.993378E-3
793.717575E-3
792.301369E-3
793.388557E-3
791.519737E-3
791.338348E-3
791.044235E-3
790.192223E-3
792.036438E-3
791.356659E-3
793.797684E-3
798.005676E-3
802.727509E-3
810.988426E-3
815.515709E-3
821.474648E-3
825.926971E-3
827.744865E-3
830.518341E-3
828.547668E-3
827.366638E-3
825.546455E-3
822.407913E-3
821.880341E-3
818.333244E-3
817.044067E-3
815.925980E-3
814.478302E-3
815.667343E-3
814.241409E-3
814.988708E-3
815.396118E-3
815.049362E-3
816.795158E-3
814.738655E-3
814.106369E-3
812.663841E-3
809.396553E-3
810.427094E-3
808.533096E-3
808.909035E-3
809.056091E-3
808.792305E-3
811.018753E-3
810.258865E-3
810.998726E-3
