Notes :


2023-11-06 ¿ÀÈÄ 10:06:14
Volts
Ch : LED 2,
534.763527E-3
535.198975E-3
535.533714E-3
535.585213E-3
535.361481E-3
535.098839E-3
534.725189E-3
534.459686E-3
534.261703E-3
533.771896E-3
533.648872E-3
533.502960E-3
533.343887E-3
533.319855E-3
533.356476E-3
533.501244E-3
533.535576E-3
533.585930E-3
533.788490E-3
533.333015E-3
532.951927E-3
532.657242E-3
532.441521E-3
532.400322E-3
532.365417E-3
532.460403E-3
532.812881E-3
532.874680E-3
532.975960E-3
532.875824E-3
532.852364E-3
532.774544E-3
532.604599E-3
532.524490E-3
532.340240E-3
532.238960E-3
532.178879E-3
531.964302E-3
531.741714E-3
531.615829E-3
531.392097E-3
531.223297E-3
531.077385E-3
530.804443E-3
530.813599E-3
530.774689E-3
530.754089E-3
530.502319E-3
530.397606E-3
530.360413E-3
530.243111E-3
530.341530E-3
530.078316E-3
530.139542E-3
530.095482E-3
530.042839E-3
530.031395E-3
529.895782E-3
529.886627E-3
529.877472E-3
529.871750E-3
529.420280E-3
529.594803E-3
529.765320E-3
529.793358E-3
529.793930E-3
529.707527E-3
529.550171E-3
529.510117E-3
529.451180E-3
529.563904E-3
529.423141E-3
529.154778E-3
528.994560E-3
528.902435E-3
528.705025E-3
528.579140E-3
528.517342E-3
528.420639E-3
528.568268E-3
528.379440E-3
528.402901E-3
528.587723E-3
529.246902E-3
530.168724E-3
531.172371E-3
532.311058E-3
533.450890E-3
534.352112E-3
534.994698E-3
535.335159E-3
535.481644E-3
535.311699E-3
535.104561E-3
534.764671E-3
534.457970E-3
534.149551E-3
533.797073E-3
533.551025E-3
533.358192E-3
533.206558E-3
533.259201E-3
533.192825E-3
533.295250E-3
533.533859E-3
533.318710E-3
533.077240E-3
532.765961E-3
532.405472E-3
532.253265E-3
532.179451E-3
532.188034E-3
532.399750E-3
532.430077E-3
532.637215E-3
532.786560E-3
532.817459E-3
532.793999E-3
532.873535E-3
532.819748E-3
532.637787E-3
532.503891E-3
531.913948E-3
532.111931E-3
531.905937E-3
531.883621E-3
531.697655E-3
531.489944E-3
531.356621E-3
531.231880E-3
531.171227E-3
531.136894E-3
531.052208E-3
530.902863E-3
530.829048E-3
530.687141E-3
530.612183E-3
530.564690E-3
530.576706E-3
530.471992E-3
530.210495E-3
530.306625E-3
530.294609E-3
530.282593E-3
530.343819E-3
530.207062E-3
530.117798E-3
530.007362E-3
530.026817E-3
529.768753E-3
529.828262E-3
529.916954E-3
529.803085E-3
529.810524E-3
529.747581E-3
529.771614E-3
529.930115E-3
529.745293E-3
529.543877E-3
529.408264E-3
529.224014E-3
529.169655E-3
528.944778E-3
528.816032E-3
528.707314E-3
528.719330E-3
528.596306E-3
528.401184E-3
528.458405E-3
528.695869E-3
529.329872E-3
530.241966E-3
531.345749E-3
532.599449E-3
533.700943E-3
534.345818E-3
534.816742E-3
535.042763E-3
534.996414E-3
534.786415E-3
534.430504E-3
534.093475E-3
533.639717E-3
533.155632E-3
533.051491E-3
532.763672E-3
532.511902E-3
532.326508E-3
532.267570E-3
532.262421E-3
532.238388E-3
532.353401E-3
532.254410E-3
531.978035E-3
531.546593E-3
531.215286E-3
531.037903E-3
530.951500E-3
531.043053E-3
531.025314E-3
531.088829E-3
531.429291E-3
531.374359E-3
531.445885E-3
531.380081E-3
531.232452E-3
530.990410E-3
530.834198E-3
530.751228E-3
530.627060E-3
530.196190E-3
530.180168E-3
529.932976E-3
529.771042E-3
529.559326E-3
529.333878E-3
529.246902E-3
529.109001E-3
529.012871E-3
528.812027E-3
528.847504E-3
528.817177E-3
528.638077E-3
528.563690E-3
528.479576E-3
528.324509E-3
528.418350E-3
528.227806E-3
528.183746E-3
528.093910E-3
527.982903E-3
528.022385E-3
527.921677E-3
527.826691E-3
527.806091E-3
527.771187E-3
527.739143E-3
527.691650E-3
527.659035E-3
527.731133E-3
527.694511E-3
527.651024E-3
527.502251E-3
527.407837E-3
527.279663E-3
527.284241E-3
527.315140E-3
527.164078E-3
527.113724E-3
527.119446E-3
526.959229E-3
526.855659E-3
526.690292E-3
526.470566E-3
526.671410E-3
526.786423E-3
527.312279E-3
528.050995E-3
529.149628E-3
530.288315E-3
531.403542E-3
532.422638E-3
533.366203E-3
533.761024E-3
533.938980E-3
533.894348E-3
533.798218E-3
533.696365E-3
533.386230E-3
533.124161E-3
532.703590E-3
532.315636E-3
532.052994E-3
531.806374E-3
531.792641E-3
531.729698E-3
531.860733E-3
532.000351E-3
532.051277E-3
532.207489E-3
532.087326E-3
531.689072E-3
531.353188E-3
531.098557E-3
530.964661E-3
530.857086E-3
530.984116E-3
531.215286E-3
531.436729E-3
531.636429E-3
531.730270E-3
531.837273E-3
531.711388E-3
531.505966E-3
531.399536E-3
531.221008E-3
531.176376E-3
531.150627E-3
530.999565E-3
530.835915E-3
530.554390E-3
530.478287E-3
530.158997E-3
529.909515E-3
529.789352E-3
529.603386E-3
529.486656E-3
529.420280E-3
529.315567E-3
529.325294E-3
529.090118E-3
528.993416E-3
528.874969E-3
528.750801E-3
528.710747E-3
528.555679E-3
528.475571E-3
528.475571E-3
528.380013E-3
528.408051E-3
528.270149E-3
528.095627E-3
528.028679E-3
527.954865E-3
527.953148E-3
527.916527E-3
528.009796E-3
527.906227E-3
527.767181E-3
527.807236E-3
527.708244E-3
527.547455E-3
527.619553E-3
527.517700E-3
527.260780E-3
527.085114E-3
526.922035E-3
526.896858E-3
526.803017E-3
526.729202E-3
526.573563E-3
526.490021E-3
526.392174E-3
526.391029E-3
526.812172E-3
527.437592E-3
528.299904E-3
529.531860E-3
530.483437E-3
531.495667E-3
532.518768E-3
533.019447E-3
533.299255E-3
533.311272E-3
533.113861E-3
532.814026E-3
532.485008E-3
532.248116E-3
531.936836E-3
531.741142E-3
531.440163E-3
531.231308E-3
530.996704E-3
530.837631E-3
530.926323E-3
530.920029E-3
531.187248E-3
531.210709E-3
531.108856E-3
530.932045E-3
530.488014E-3
530.337524E-3
530.259132E-3
530.203629E-3
530.286026E-3
530.390167E-3
530.501175E-3
530.585861E-3
530.561829E-3
530.636215E-3
530.569839E-3
530.463982E-3
530.354118E-3
530.286598E-3
530.291176E-3
530.092049E-3
530.039978E-3
529.835129E-3
529.484367E-3
529.285812E-3
528.959656E-3
528.799438E-3
528.643227E-3
528.736496E-3
528.627777E-3
528.530502E-3
528.403473E-3
528.332520E-3
528.255844E-3
528.126526E-3
528.059006E-3
528.111076E-3
527.984047E-3
528.064728E-3
528.188324E-3
528.080177E-3
527.989769E-3
528.073883E-3
528.002930E-3
528.055573E-3
528.002930E-3
528.097343E-3
528.109360E-3
528.120232E-3
528.099632E-3
528.155708E-3
528.123665E-3
528.044701E-3
527.869606E-3
527.752304E-3
527.755165E-3
527.537727E-3
527.384949E-3
527.141762E-3
526.907158E-3
526.716614E-3
526.623344E-3
526.453400E-3
526.262856E-3
526.296043E-3
526.259422E-3
526.302910E-3
526.587868E-3
527.121735E-3
527.966881E-3
529.103279E-3
530.235672E-3
531.176376E-3
531.959724E-3
532.499313E-3
532.792282E-3
532.884979E-3
532.866096E-3
532.495308E-3
532.119942E-3
531.752586E-3
531.315422E-3
530.981255E-3
530.675697E-3
530.435371E-3
530.409622E-3
530.402184E-3
530.447960E-3
530.478287E-3
530.518341E-3
530.380440E-3
530.217934E-3
529.936409E-3
529.741287E-3
529.623985E-3
529.623985E-3
529.725266E-3
529.787064E-3
529.765320E-3
529.980469E-3
529.779625E-3
529.991341E-3
530.027962E-3
529.974747E-3
529.866028E-3
529.695511E-3
529.587936E-3
529.480362E-3
529.227448E-3
529.057503E-3
528.842354E-3
528.523636E-3
528.347969E-3
528.084755E-3
527.900505E-3
527.752876E-3
527.529716E-3
527.639580E-3
527.695656E-3
527.729988E-3
527.674484E-3
527.603531E-3
527.443314E-3
527.332306E-3
527.325439E-3
527.144623E-3
527.079391E-3
527.057076E-3
526.923180E-3
526.903152E-3
526.864243E-3
526.777840E-3
526.668549E-3
526.508904E-3
526.349258E-3
526.398468E-3
526.356125E-3
526.221085E-3
526.060295E-3
525.972748E-3
525.794792E-3
525.694656E-3
525.548172E-3
525.416565E-3
525.244331E-3
525.034904E-3
524.818611E-3
524.717903E-3
524.507904E-3
524.266434E-3
524.191475E-3
524.220085E-3
524.154282E-3
524.102211E-3
524.337959E-3
524.896431E-3
525.718117E-3
526.897430E-3
528.054428E-3
529.038620E-3
529.832268E-3
530.470276E-3
530.855370E-3
530.789566E-3
530.753517E-3
530.504036E-3
530.173874E-3
529.729271E-3
529.434586E-3
529.149055E-3
528.876686E-3
528.669548E-3
528.476143E-3
528.302193E-3
528.123665E-3
528.288460E-3
528.407478E-3
528.418922E-3
528.295326E-3
528.092194E-3
527.791786E-3
527.393532E-3
527.296257E-3
527.120590E-3
527.208138E-3
527.279663E-3
527.306557E-3
527.404976E-3
527.461052E-3
527.383804E-3
527.356339E-3
527.235603E-3
527.081108E-3
527.055931E-3
527.085686E-3
527.026749E-3
526.815033E-3
526.627350E-3
526.312065E-3
526.067162E-3
525.709534E-3
525.531578E-3
525.479507E-3
525.231743E-3
525.228310E-3
525.135040E-3
525.036621E-3
524.946785E-3
524.755669E-3
524.591446E-3
524.450684E-3
524.274445E-3
524.212646E-3
524.325371E-3
524.170876E-3
524.201202E-3
524.053001E-3
524.058723E-3
523.970604E-3
523.838997E-3
523.863602E-3
523.713684E-3
523.785782E-3
523.753738E-3
523.751450E-3
523.604393E-3
523.567200E-3
523.490524E-3
523.421288E-3
523.412704E-3
523.362350E-3
523.204994E-3
523.087692E-3
522.913742E-3
522.808456E-3
522.640800E-3
522.552109E-3
522.513199E-3
522.367287E-3
522.454834E-3
522.281456E-3
522.283173E-3
522.417068E-3
522.828484E-3
523.789215E-3
524.834061E-3
525.952721E-3
527.108002E-3
528.072166E-3
528.845215E-3
529.250908E-3
529.289818E-3
529.367065E-3
529.109001E-3
528.884125E-3
528.479004E-3
527.864456E-3
527.729988E-3
527.478790E-3
527.314568E-3
527.095985E-3
526.918030E-3
526.895714E-3
526.871109E-3
526.925468E-3
527.022743E-3
526.952362E-3
526.829338E-3
526.399612E-3
526.128960E-3
525.813103E-3
525.629425E-3
525.793076E-3
525.776482E-3
525.920677E-3
526.069450E-3
526.139832E-3
526.269722E-3
526.092339E-3
526.066589E-3
526.021385E-3
526.075745E-3
526.199341E-3
526.096916E-3
525.975037E-3
525.735283E-3
525.484085E-3
525.268936E-3
524.952507E-3
524.773979E-3
524.574852E-3
524.494171E-3
524.652672E-3
524.609756E-3
524.648094E-3
524.554825E-3
524.388885E-3
524.311638E-3
524.127388E-3
524.202919E-3
524.297905E-3
524.407196E-3
524.474716E-3
524.468994E-3
524.451828E-3
524.399185E-3
524.241829E-3
524.267578E-3
524.476433E-3
524.345398E-3
524.213791E-3
524.307060E-3
524.570847E-3
524.474144E-3
524.440384E-3
524.303055E-3
524.162865E-3
524.293327E-3
524.139404E-3
524.127960E-3
524.142838E-3
524.083328E-3
524.090767E-3
523.809814E-3
523.688507E-3
523.580360E-3
523.529434E-3
523.535728E-3
523.464203E-3
523.571777E-3
523.718262E-3
523.796082E-3
524.456978E-3
525.284958E-3
526.355553E-3
527.807808E-3
528.693581E-3
529.578781E-3
530.089760E-3
530.296326E-3
530.427933E-3
530.291748E-3
530.164719E-3
529.801941E-3
529.474068E-3
529.187965E-3
528.796577E-3
528.543663E-3
528.168869E-3
527.990341E-3
527.931976E-3
527.659035E-3
527.890205E-3
527.985764E-3
528.045845E-3
527.969742E-3
527.601242E-3
527.452469E-3
527.318001E-3
527.291679E-3
527.348328E-3
527.519417E-3
527.810669E-3
527.973747E-3
527.981758E-3
528.056717E-3
527.852440E-3
527.840996E-3
527.787781E-3
527.860451E-3
527.866745E-3
527.621269E-3
527.490234E-3
527.232742E-3
526.878548E-3
526.687431E-3
526.355553E-3
526.222229E-3
526.172447E-3
526.086044E-3
526.008224E-3
525.872040E-3
525.777054E-3
525.660896E-3
525.411415E-3
525.227737E-3
525.069809E-3
524.959946E-3
525.115585E-3
525.173950E-3
525.192833E-3
525.072098E-3
524.950218E-3
524.799728E-3
524.574280E-3
524.664688E-3
524.466705E-3
524.792290E-3
524.820900E-3
524.766541E-3
524.747658E-3
524.695587E-3
524.724197E-3
524.644661E-3
524.587440E-3
524.715614E-3
524.635506E-3
524.600601E-3
524.577141E-3
524.396324E-3
524.352837E-3
524.160576E-3
524.149704E-3
524.023247E-3
523.970604E-3
524.095345E-3
524.004936E-3
524.225807E-3
524.713898E-3
525.409698E-3
526.568413E-3
527.529144E-3
528.855515E-3
529.719543E-3
530.196190E-3
530.532646E-3
530.422211E-3
530.275154E-3
529.923820E-3
529.550171E-3
529.135895E-3
528.757095E-3
528.445244E-3
528.140259E-3
527.883339E-3
527.519417E-3
527.182961E-3
527.054214E-3
526.958084E-3
526.786995E-3
526.950073E-3
526.851654E-3
526.626205E-3
526.266289E-3
525.777626E-3
525.617409E-3
525.351334E-3
525.363350E-3
525.411987E-3
525.464630E-3
525.543594E-3
525.518990E-3
525.435448E-3
525.350189E-3
525.092697E-3
524.852371E-3
524.594307E-3
524.394035E-3
524.281311E-3
523.930550E-3
523.843575E-3
523.515701E-3
523.295975E-3
523.023605E-3
522.665405E-3
522.568703E-3
522.615051E-3
522.513199E-3
522.437096E-3
522.351265E-3
522.437096E-3
522.344398E-3
522.253990E-3
522.241402E-3
522.003937E-3
522.051430E-3
522.004509E-3
522.203064E-3
522.338104E-3
522.329521E-3
522.320938E-3
522.124100E-3
522.221375E-3
522.151566E-3
522.021103E-3
521.995926E-3
522.005653E-3
522.080612E-3
522.004509E-3
522.020531E-3
522.018242E-3
522.088051E-3
521.992493E-3
521.862030E-3
521.715546E-3
521.647453E-3
521.547890E-3
521.475220E-3
521.458626E-3
521.351051E-3
521.479225E-3
521.300697E-3
521.197128E-3
521.653748E-3
522.370720E-3
523.334885E-3
524.215508E-3
525.255203E-3
526.257706E-3
526.829910E-3
527.556610E-3
527.829552E-3
527.832985E-3
527.636147E-3
527.228165E-3
526.873398E-3
526.488304E-3
526.170158E-3
525.945854E-3
525.550461E-3
525.343895E-3
525.105858E-3
525.057793E-3
525.101280E-3
525.139046E-3
525.278664E-3
525.214577E-3
525.016022E-3
524.812889E-3
524.388885E-3
524.061012E-3
523.782349E-3
523.789787E-3
523.876762E-3
523.952293E-3
524.133682E-3
524.067307E-3
524.062157E-3
524.111366E-3
524.026108E-3
524.059296E-3
523.970604E-3
523.908234E-3
524.047279E-3
523.845291E-3
523.813248E-3
523.640442E-3
523.485374E-3
523.375511E-3
523.140335E-3
523.000717E-3
522.921753E-3
523.196411E-3
523.023033E-3
522.747803E-3
522.719765E-3
522.569847E-3
522.585869E-3
522.569275E-3
522.499466E-3
522.484016E-3
522.451401E-3
522.477150E-3
522.560692E-3
522.525787E-3
522.592163E-3
522.518921E-3
522.475433E-3
522.642517E-3
522.643661E-3
522.494316E-3
522.612190E-3
522.521782E-3
522.617912E-3
522.678566E-3
522.772980E-3
522.839355E-3
522.812462E-3
522.968674E-3
522.950363E-3
522.879982E-3
522.734070E-3
522.714043E-3
522.720337E-3
522.521210E-3
522.588158E-3
522.739220E-3
522.707748E-3
522.881126E-3
522.831345E-3
523.394966E-3
524.208641E-3
525.241470E-3
526.428795E-3
527.464485E-3
528.394318E-3
529.083824E-3
529.246902E-3
529.546738E-3
529.365349E-3
529.084396E-3
528.690147E-3
528.182030E-3
527.947998E-3
527.525139E-3
527.364349E-3
527.064514E-3
526.717758E-3
526.727486E-3
526.602173E-3
526.607323E-3
526.559258E-3
526.558685E-3
526.175308E-3
525.927544E-3
525.714684E-3
525.541306E-3
525.311852E-3
525.413132E-3
525.439453E-3
525.514984E-3
525.474930E-3
525.668907E-3
525.682068E-3
525.607109E-3
525.698090E-3
525.617981E-3
525.566483E-3
525.472069E-3
525.248909E-3
525.132751E-3
524.935913E-3
524.639511E-3
524.423790E-3
524.180603E-3
523.975754E-3
523.740578E-3
523.607254E-3
523.593521E-3
523.480225E-3
523.403549E-3
523.207855E-3
522.903442E-3
522.917747E-3
522.696877E-3
522.661400E-3
522.619057E-3
522.464561E-3
522.596741E-3
522.400475E-3
522.440529E-3
522.476578E-3
522.395897E-3
522.367859E-3
522.337532E-3
522.409058E-3
522.493744E-3
522.438812E-3
522.703171E-3
