Notes :


2023-11-10 ¿ÀÈÄ 11:29:26
Volts
Ch : LED 2,
64.308357E-3
64.168739E-3
64.179611E-3
63.944435E-3
64.021111E-3
63.951302E-3
63.728714E-3
63.720131E-3
63.456917E-3
63.512421E-3
63.375092E-3
63.347054E-3
63.292122E-3
63.202286E-3
63.461494E-3
63.230324E-3
63.068962E-3
63.084412E-3
62.964249E-3
63.033485E-3
62.966537E-3
62.839508E-3
62.845802E-3
62.688446E-3
62.754250E-3
62.695313E-3
62.688446E-3
62.658691E-3
62.595749E-3
62.651253E-3
62.562561E-3
62.499619E-3
62.262726E-3
62.302780E-3
62.356567E-3
62.353706E-3
62.299347E-3
62.492752E-3
62.347984E-3
62.343407E-3
62.285614E-3
62.302780E-3
62.299919E-3
62.187767E-3
62.199211E-3
62.155724E-3
62.239265E-3
62.160873E-3
62.112236E-3
62.059593E-3
62.741089E-3
62.224960E-3
62.120819E-3
61.939430E-3
61.965752E-3
61.883354E-3
61.786652E-3
61.798096E-3
61.616707E-3
61.843872E-3
61.584663E-3
61.433601E-3
61.515999E-3
61.438751E-3
61.562347E-3
61.640739E-3
61.863899E-3
62.555122E-3
63.094711E-3
64.048576E-3
64.897156E-3
65.622139E-3
66.317368E-3
66.567993E-3
66.796303E-3
66.723061E-3
66.474724E-3
66.472435E-3
66.022110E-3
65.711975E-3
65.429306E-3
65.140343E-3
65.067101E-3
64.927483E-3
64.941788E-3
65.004730E-3
65.033913E-3
65.195847E-3
65.211868E-3
65.345764E-3
65.349197E-3
65.378952E-3
65.363503E-3
65.074539E-3
64.847374E-3
64.552116E-3
64.302635E-3
64.214516E-3
64.041138E-3
64.144707E-3
64.173889E-3
64.315224E-3
64.412498E-3
64.497185E-3
64.614487E-3
64.593315E-3
64.522362E-3
64.593315E-3
64.363861E-3
64.346695E-3
64.235687E-3
63.937569E-3
64.089203E-3
63.901520E-3
63.900375E-3
63.813400E-3
63.680077E-3
63.660622E-3
63.560486E-3
63.542175E-3
63.511276E-3
63.337898E-3
63.430595E-3
63.251495E-3
63.342476E-3
63.258362E-3
63.131332E-3
63.213730E-3
63.012886E-3
63.084984E-3
63.062096E-3
62.995148E-3
63.028908E-3
62.923622E-3
62.913895E-3
62.911606E-3
62.828064E-3
62.890434E-3
62.618637E-3
62.826347E-3
62.714195E-3
62.658119E-3
62.790871E-3
62.656403E-3
62.666702E-3
62.573433E-3
62.468147E-3
62.656975E-3
62.409782E-3
62.365723E-3
62.347984E-3
62.261009E-3
62.329102E-3
62.322235E-3
62.265015E-3
62.223816E-3
62.226677E-3
62.232399E-3
62.051010E-3
62.150002E-3
62.095642E-3
62.028694E-3
62.040710E-3
61.923981E-3
61.941147E-3
61.951447E-3
61.824989E-3
61.882782E-3
61.690521E-3
61.605835E-3
61.592674E-3
61.598969E-3
61.622429E-3
61.519432E-3
61.677361E-3
61.862755E-3
62.022972E-3
62.614632E-3
63.222313E-3
64.120102E-3
64.937782E-3
65.623283E-3
66.236687E-3
66.542816E-3
66.660118E-3
66.670990E-3
66.410637E-3
66.214371E-3
65.771484E-3
65.595818E-3
65.252495E-3
64.974976E-3
64.982414E-3
64.736938E-3
64.770126E-3
64.779854E-3
64.731789E-3
64.976692E-3
64.933205E-3
64.990425E-3
65.015602E-3
64.940071E-3
64.890862E-3
64.546967E-3
64.339828E-3
64.101219E-3
63.944435E-3
64.096069E-3
64.029694E-3
64.108086E-3
64.328384E-3
64.312935E-3
64.518929E-3
64.539528E-3
64.595032E-3
64.625359E-3
64.461708E-3
64.304924E-3
64.240837E-3
64.192772E-3
64.090347E-3
63.840294E-3
63.859177E-3
63.668060E-3
63.626862E-3
63.573647E-3
63.331604E-3
63.472366E-3
63.320160E-3
63.355637E-3
63.282394E-3
63.173676E-3
63.267517E-3
63.084412E-3
63.065529E-3
63.226318E-3
63.013458E-3
63.035774E-3
62.909317E-3
62.925339E-3
62.953377E-3
62.813187E-3
62.818336E-3
62.734222E-3
62.899017E-3
62.845802E-3
62.649536E-3
62.663841E-3
62.520790E-3
62.491035E-3
62.582588E-3
62.427521E-3
62.479019E-3
62.432671E-3
62.359428E-3
62.386894E-3
62.250710E-3
62.338257E-3
62.186050E-3
62.188911E-3
62.145996E-3
62.063599E-3
62.123108E-3
61.986923E-3
62.049294E-3
62.025833E-3
61.968613E-3
61.996078E-3
61.914253E-3
61.934853E-3
61.886215E-3
61.669350E-3
61.642456E-3
61.521721E-3
61.534309E-3
61.558342E-3
61.462784E-3
61.525154E-3
61.443901E-3
61.529732E-3
61.901665E-3
62.244987E-3
62.992287E-3
63.657188E-3
64.562988E-3
65.415001E-3
65.923691E-3
66.452408E-3
66.604614E-3
66.644096E-3
66.617203E-3
66.231537E-3
65.989494E-3
65.632439E-3
65.364647E-3
65.194130E-3
64.995575E-3
64.932632E-3
64.730644E-3
64.845657E-3
64.908028E-3
65.027046E-3
65.237617E-3
65.141487E-3
65.207291E-3
65.257072E-3
65.085411E-3
65.044212E-3
64.637375E-3
64.449120E-3
64.266586E-3
64.009094E-3
64.040565E-3
64.032555E-3
64.227676E-3
64.305496E-3
64.303207E-3
64.490891E-3
64.464569E-3
64.501190E-3
64.517212E-3
64.434242E-3
64.462852E-3
64.137840E-3
64.189339E-3
64.074326E-3
63.864899E-3
63.907242E-3
63.673782E-3
63.653755E-3
63.599396E-3
63.460922E-3
63.491249E-3
63.331032E-3
63.298416E-3
63.352203E-3
63.190842E-3
63.170242E-3
63.092995E-3
63.163376E-3
63.166809E-3
63.158798E-3
63.087273E-3
62.913895E-3
62.840080E-3
62.877846E-3
62.769127E-3
62.876129E-3
62.734795E-3
62.765694E-3
62.829208E-3
62.643242E-3
62.711334E-3
62.555122E-3
62.551117E-3
62.680435E-3
62.532234E-3
62.528229E-3
62.446404E-3
62.314224E-3
62.388039E-3
62.318802E-3
62.386894E-3
62.291908E-3
62.237549E-3
62.277031E-3
62.145996E-3
62.203217E-3
62.253571E-3
62.155151E-3
62.130547E-3
62.078476E-3
62.102509E-3
61.968613E-3
62.000656E-3
62.052155E-3
61.886787E-3
61.968040E-3
61.779785E-3
61.697388E-3
61.701393E-3
61.578369E-3
61.608124E-3
61.520576E-3
61.481094E-3
61.484528E-3
61.296272E-3
61.431313E-3
61.481094E-3
61.750603E-3
62.199783E-3
62.834930E-3
63.683510E-3
64.513206E-3
65.316010E-3
66.004372E-3
66.361427E-3
66.743088E-3
66.729927E-3
66.602325E-3
66.344833E-3
66.061592E-3
65.865326E-3
65.459061E-3
65.277672E-3
65.124893E-3
64.945793E-3
65.025330E-3
64.995575E-3
65.056801E-3
65.204430E-3
65.219879E-3
65.399551E-3
65.332603E-3
65.352058E-3
65.408134E-3
65.239906E-3
65.023041E-3
64.675140E-3
64.425659E-3
64.167023E-3
64.109230E-3
64.196777E-3
64.250565E-3
64.269447E-3
64.423370E-3
64.495468E-3
64.686012E-3
64.616203E-3
64.692879E-3
64.685440E-3
64.633942E-3
64.627075E-3
64.419365E-3
64.340401E-3
64.193344E-3
64.039421E-3
64.021111E-3
63.883781E-3
63.755608E-3
63.718414E-3
63.662338E-3
63.621140E-3
63.526154E-3
63.497543E-3
63.460922E-3
63.360214E-3
63.424873E-3
63.281822E-3
63.250923E-3
63.230324E-3
63.119888E-3
63.169098E-3
63.129616E-3
63.113594E-3
63.094139E-3
63.023758E-3
62.991142E-3
62.937355E-3
62.873840E-3
62.986565E-3
62.852097E-3
62.941360E-3
62.850380E-3
62.806892E-3
62.638092E-3
62.568283E-3
62.723923E-3
62.607765E-3
62.538528E-3
62.630653E-3
62.457848E-3
62.515640E-3
62.375450E-3
62.361145E-3
62.404060E-3
62.358284E-3
62.408066E-3
62.368584E-3
62.307358E-3
62.365150E-3
62.225533E-3
62.303352E-3
62.173462E-3
62.139130E-3
62.159157E-3
62.004662E-3
62.100792E-3
61.997795E-3
61.968040E-3
61.972046E-3
61.716270E-3
61.798668E-3
61.743164E-3
61.673927E-3
61.779213E-3
61.658478E-3
61.815834E-3
61.848450E-3
62.209511E-3
62.813759E-3
63.407135E-3
64.266586E-3
65.019035E-3
65.716553E-3
66.296768E-3
66.443825E-3
66.709900E-3
66.422081E-3
66.220093E-3
66.060448E-3
65.650177E-3
65.419006E-3
65.189552E-3
64.929199E-3
64.913750E-3
64.715195E-3
64.806175E-3
64.706612E-3
64.807892E-3
64.977264E-3
64.958954E-3
65.066528E-3
65.033913E-3
64.854813E-3
64.782715E-3
64.505196E-3
64.270020E-3
63.955307E-3
63.931847E-3
64.023972E-3
63.917542E-3
64.134979E-3
64.196777E-3
64.370155E-3
64.615059E-3
64.469719E-3
64.608765E-3
64.478874E-3
64.409637E-3
64.348984E-3
64.150429E-3
64.160728E-3
64.011955E-3
63.875771E-3
63.766479E-3
63.653183E-3
63.609123E-3
63.486099E-3
63.394547E-3
63.405418E-3
63.250923E-3
63.312149E-3
63.132477E-3
63.178825E-3
63.143921E-3
63.014030E-3
63.076973E-3
62.944221E-3
62.905884E-3
63.014030E-3
62.837219E-3
62.921333E-3
62.803459E-3
62.724495E-3
62.774849E-3
62.662125E-3
62.690163E-3
62.632942E-3
62.504196E-3
62.612915E-3
62.447548E-3
62.570572E-3
62.519646E-3
62.416077E-3
62.503052E-3
62.303925E-3
62.411499E-3
62.377167E-3
62.267303E-3
62.266159E-3
62.152863E-3
62.207794E-3
62.172318E-3
62.150574E-3
62.188339E-3
62.001228E-3
62.100792E-3
62.068176E-3
61.978912E-3
62.048149E-3
61.833572E-3
61.905098E-3
61.870766E-3
61.767769E-3
61.757469E-3
61.696243E-3
61.661339E-3
61.531448E-3
61.448479E-3
61.545753E-3
61.406708E-3
61.578369E-3
61.814117E-3
62.238693E-3
62.864113E-3
63.633728E-3
64.575005E-3
65.322876E-3
65.978622E-3
66.420364E-3
66.489029E-3
66.655540E-3
66.493034E-3
66.334534E-3
66.020966E-3
65.588951E-3
65.436172E-3
65.136337E-3
64.952087E-3
64.940071E-3
64.864540E-3
64.986992E-3
64.857101E-3
64.960098E-3
65.214729E-3
65.205574E-3
65.398979E-3
65.303421E-3
65.230179E-3
65.175247E-3
64.780426E-3
64.580727E-3
64.356995E-3
64.070892E-3
64.072609E-3
64.018822E-3
64.233971E-3
64.218521E-3
64.268303E-3
64.392471E-3
64.419365E-3
64.597321E-3
64.542389E-3
64.507484E-3
64.489746E-3
64.322090E-3
64.319801E-3
64.142418E-3
64.014244E-3
64.121819E-3
63.874626E-3
63.791084E-3
63.633156E-3
63.515282E-3
63.523865E-3
63.310432E-3
63.363647E-3
63.366508E-3
63.351631E-3
63.377953E-3
63.221169E-3
63.194847E-3
63.060379E-3
63.049507E-3
62.984848E-3
62.907600E-3
62.938499E-3
62.895012E-3
62.785149E-3
62.823486E-3
62.728500E-3
62.770271E-3
62.733078E-3
62.627220E-3
62.719917E-3
62.612915E-3
62.674713E-3
62.590027E-3
62.509346E-3
62.519073E-3
62.433815E-3
62.480164E-3
62.414932E-3
62.409782E-3
62.390327E-3
62.226677E-3
62.322807E-3
62.199783E-3
62.123680E-3
62.158585E-3
62.070465E-3
62.083054E-3
62.004089E-3
61.999512E-3
62.077332E-3
62.032700E-3
62.043571E-3
61.993217E-3
61.922836E-3
61.944580E-3
61.776924E-3
61.880493E-3
61.726570E-3
61.613274E-3
61.633873E-3
61.540604E-3
61.557198E-3
61.524582E-3
61.515427E-3
61.618423E-3
61.885643E-3
62.363434E-3
62.847519E-3
63.563919E-3
64.488602E-3
65.223312E-3
65.907097E-3
66.400909E-3
66.620636E-3
66.792297E-3
66.463280E-3
66.327667E-3
66.118240E-3
65.854454E-3
65.682220E-3
65.358925E-3
65.279961E-3
65.136337E-3
65.066528E-3
65.228462E-3
65.167236E-3
65.311432E-3
65.348625E-3
65.404129E-3
65.581512E-3
65.492821E-3
65.452766E-3
65.245056E-3
64.953232E-3
64.791870E-3
64.480019E-3
64.391327E-3
64.242554E-3
64.199638E-3
64.355850E-3
64.403343E-3
64.560127E-3
64.636803E-3
64.622498E-3
64.756966E-3
64.603043E-3
64.633942E-3
64.574432E-3
64.423943E-3
64.481163E-3
64.229393E-3
64.294624E-3
64.240265E-3
64.031982E-3
64.029121E-3
63.825417E-3
63.751030E-3
63.776779E-3
63.660049E-3
63.644600E-3
63.495827E-3
63.558769E-3
63.438034E-3
63.290977E-3
63.361931E-3
63.238335E-3
63.247490E-3
63.284111E-3
63.189697E-3
63.260078E-3
63.125038E-3
63.075829E-3
63.115311E-3
63.003731E-3
63.079834E-3
63.051224E-3
63.029480E-3
62.979698E-3
62.917328E-3
62.880135E-3
62.737083E-3
62.803459E-3
62.762833E-3
62.670708E-3
62.781715E-3
62.590599E-3
62.643814E-3
62.678146E-3
62.541962E-3
62.615204E-3
62.529945E-3
62.511635E-3
62.537956E-3
62.367439E-3
62.484741E-3
62.330246E-3
62.383461E-3
62.382889E-3
62.286758E-3
62.384033E-3
62.189484E-3
62.188911E-3
62.104797E-3
62.000084E-3
62.074471E-3
61.989784E-3
61.952591E-3
61.893654E-3
61.830711E-3
61.903381E-3
61.828423E-3
61.949730E-3
62.130547E-3
62.514496E-3
63.166809E-3
63.884926E-3
64.698601E-3
65.324593E-3
65.905952E-3
66.395760E-3
66.619492E-3
66.635513E-3
66.454697E-3
66.129112E-3
66.058159E-3
65.642166E-3
65.414429E-3
65.142059E-3
64.984131E-3
64.948082E-3
64.818764E-3
64.901161E-3
64.920044E-3
64.841652E-3
65.117455E-3
65.106583E-3
65.081406E-3
65.073395E-3
64.799309E-3
64.653397E-3
64.466858E-3
64.279175E-3
64.149284E-3
64.014244E-3
64.208221E-3
64.252281E-3
64.341545E-3
64.480019E-3
64.552116E-3
64.718628E-3
64.605331E-3
64.647102E-3
64.562988E-3
64.476013E-3
64.340401E-3
64.214516E-3
64.165306E-3
64.036560E-3
63.863754E-3
63.879204E-3
63.654900E-3
63.646317E-3
63.573647E-3
63.522148E-3
63.570213E-3
63.428879E-3
63.358498E-3
63.418579E-3
63.166237E-3
63.248062E-3
63.159370E-3
63.106155E-3
63.055229E-3
63.039207E-3
63.082123E-3
62.959099E-3
62.996864E-3
62.934494E-3
62.844086E-3
62.908745E-3
62.870979E-3
62.909889E-3
62.874985E-3
62.716484E-3
62.771416E-3
62.606049E-3
62.636375E-3
62.652397E-3
62.508774E-3
62.609482E-3
62.321091E-3
62.383461E-3
62.310219E-3
62.247276E-3
62.336540E-3
62.257576E-3
62.285042E-3
62.246704E-3
62.243271E-3
62.153435E-3
62.131119E-3
62.178612E-3
62.209511E-3
62.068748E-3
62.134552E-3
61.918831E-3
61.953163E-3
61.984634E-3
61.833572E-3
61.840439E-3
61.675644E-3
61.707687E-3
61.755180E-3
61.680794E-3
61.657906E-3
61.631584E-3
61.902809E-3
62.362289E-3
63.020325E-3
63.775635E-3
64.488602E-3
65.374374E-3
66.030693E-3
66.362000E-3
66.668129E-3
66.704178E-3
66.629219E-3
66.420364E-3
66.074181E-3
65.897369E-3
65.520859E-3
65.433884E-3
65.276527E-3
65.172958E-3
65.103722E-3
65.055656E-3
65.187263E-3
65.325737E-3
65.342331E-3
65.479660E-3
65.463066E-3
65.457344E-3
65.390968E-3
65.145493E-3
65.013313E-3
64.683151E-3
64.467430E-3
64.337540E-3
64.208794E-3
64.292908E-3
64.278030E-3
64.431381E-3
64.536667E-3
64.559555E-3
64.678001E-3
64.699173E-3
64.730072E-3
64.753532E-3
64.509773E-3
64.581299E-3
64.421082E-3
64.248276E-3
64.233971E-3
64.089775E-3
64.010811E-3
63.825989E-3
63.726997E-3
63.717842E-3
63.611412E-3
63.658905E-3
63.534164E-3
63.447762E-3
63.559914E-3
63.400269E-3
63.424873E-3
63.313293E-3
63.205147E-3
63.213730E-3
63.216591E-3
63.159370E-3
63.076973E-3
62.991142E-3
62.969398E-3
63.054657E-3
63.042068E-3
62.963104E-3
62.902451E-3
62.973404E-3
62.793159E-3
62.818336E-3
62.738228E-3
62.650681E-3
62.703896E-3
62.626076E-3
62.734795E-3
62.647820E-3
62.713051E-3
62.681580E-3
62.511635E-3
62.589455E-3
62.490463E-3
62.333679E-3
62.317085E-3
62.195206E-3
62.271309E-3
62.211227E-3
62.194633E-3
62.115097E-3
62.079048E-3
62.188911E-3
62.099648E-3
62.136841E-3
62.111092E-3
62.059593E-3
62.112236E-3
62.009811E-3
61.905098E-3
61.871338E-3
