Notes :


2023-11-04 ¿ÀÈÄ 6:57:24
Volts
Ch : LED 2,
324.116135E-3
324.780464E-3
326.062775E-3
328.467751E-3
331.028366E-3
333.785820E-3
336.496353E-3
338.829803E-3
340.450859E-3
341.322899E-3
341.564369E-3
341.199303E-3
340.446281E-3
339.485550E-3
338.365746E-3
337.177277E-3
336.075211E-3
335.234070E-3
334.543991E-3
334.156609E-3
333.885956E-3
333.883095E-3
334.055901E-3
334.155464E-3
334.237289E-3
334.251022E-3
333.983803E-3
333.460236E-3
332.727814E-3
332.268906E-3
332.124138E-3
331.995392E-3
332.120132E-3
332.292366E-3
332.763290E-3
333.171844E-3
333.517456E-3
333.792114E-3
333.847618E-3
333.797264E-3
333.617592E-3
333.182716E-3
332.792473E-3
332.304955E-3
331.864929E-3
331.335640E-3
330.795479E-3
330.278778E-3
329.759216E-3
329.421616E-3
329.013634E-3
328.742981E-3
328.504944E-3
328.377914E-3
328.201675E-3
328.084946E-3
328.136444E-3
328.034592E-3
327.900696E-3
327.822304E-3
327.786255E-3
327.778816E-3
327.789688E-3
327.844620E-3
327.738762E-3
327.805710E-3
327.833748E-3
327.771950E-3
327.668953E-3
327.676964E-3
327.529907E-3
327.569962E-3
327.451515E-3
327.522469E-3
327.309036E-3
327.125359E-3
327.076149E-3
327.030945E-3
326.867867E-3
326.669884E-3
326.550865E-3
326.375771E-3
326.424980E-3
326.093102E-3
325.987816E-3
325.976372E-3
325.910568E-3
325.736046E-3
325.489998E-3
325.333214E-3
325.089455E-3
324.805069E-3
324.654007E-3
324.465752E-3
324.414253E-3
324.343300E-3
324.496651E-3
324.627686E-3
325.163269E-3
326.545143E-3
328.714943E-3
331.297874E-3
334.165192E-3
337.080574E-3
339.734459E-3
341.745186E-3
343.062401E-3
343.656921E-3
343.554497E-3
342.958260E-3
342.011833E-3
340.884590E-3
339.839745E-3
338.750839E-3
337.833595E-3
337.131500E-3
336.677170E-3
336.457443E-3
336.389351E-3
336.621094E-3
336.924362E-3
337.184143E-3
337.510300E-3
337.518883E-3
337.362099E-3
336.894035E-3
336.165619E-3
335.481262E-3
334.852982E-3
334.727097E-3
334.530830E-3
334.577179E-3
334.853554E-3
335.053253E-3
335.420609E-3
335.525322E-3
335.604286E-3
335.496712E-3
335.291862E-3
335.129356E-3
334.767151E-3
334.313965E-3
333.878517E-3
333.402443E-3
332.775879E-3
332.117271E-3
331.623459E-3
331.157112E-3
330.747414E-3
330.414963E-3
330.151176E-3
330.073357E-3
330.060768E-3
329.781532E-3
329.704285E-3
329.583549E-3
329.431343E-3
329.330063E-3
329.213333E-3
329.294586E-3
329.277420E-3
329.346657E-3
329.165840E-3
329.074860E-3
329.035378E-3
328.968430E-3
328.924370E-3
328.779030E-3
328.666878E-3
328.566170E-3
328.544426E-3
328.261185E-3
328.003693E-3
327.732468E-3
327.611732E-3
327.460670E-3
327.322769E-3
327.224350E-3
327.059555E-3
327.144814E-3
326.945686E-3
326.825523E-3
326.576614E-3
326.226997E-3
326.019287E-3
325.918007E-3
325.697708E-3
325.610161E-3
325.199890E-3
325.112915E-3
324.886894E-3
324.654007E-3
324.622536E-3
324.611092E-3
324.672318E-3
324.706650E-3
325.162697E-3
325.938606E-3
327.752495E-3
330.289078E-3
333.011055E-3
335.824585E-3
338.519096E-3
340.618515E-3
342.229271E-3
342.933655E-3
343.056107E-3
342.340279E-3
341.303444E-3
340.188789E-3
338.918495E-3
337.817574E-3
336.905479E-3
335.997391E-3
335.490990E-3
335.198021E-3
335.141373E-3
335.242653E-3
335.410309E-3
335.670662E-3
335.846329E-3
335.855484E-3
335.604286E-3
335.013199E-3
334.300232E-3
333.664513E-3
333.206177E-3
333.114052E-3
333.199883E-3
333.429909E-3
333.732605E-3
334.065628E-3
334.387779E-3
334.529686E-3
334.614372E-3
334.559441E-3
334.350586E-3
334.086800E-3
333.612442E-3
333.099747E-3
332.653999E-3
332.093239E-3
331.599426E-3
331.089592E-3
330.701065E-3
330.352592E-3
330.026436E-3
329.846191E-3
329.699135E-3
329.701424E-3
329.486275E-3
329.236221E-3
329.092598E-3
328.988457E-3
328.978157E-3
329.037666E-3
328.929520E-3
328.995323E-3
328.956985E-3
328.974152E-3
328.910065E-3
328.875732E-3
328.809357E-3
328.627968E-3
328.493500E-3
328.463173E-3
328.459167E-3
328.253746E-3
328.232002E-3
328.248596E-3
328.241158E-3
328.111839E-3
328.070068E-3
327.960777E-3
327.850342E-3
327.523613E-3
327.119637E-3
327.032661E-3
326.792908E-3
326.635551E-3
326.381493E-3
326.168060E-3
325.900841E-3
325.696564E-3
325.659943E-3
325.794411E-3
325.669670E-3
325.635338E-3
325.815582E-3
326.367187E-3
327.591705E-3
329.392433E-3
331.913567E-3
334.625816E-3
337.155533E-3
339.887810E-3
341.926003E-3
343.249512E-3
343.768501E-3
343.628883E-3
342.943382E-3
342.053604E-3
340.902901E-3
339.868355E-3
338.727379E-3
337.829018E-3
337.098312E-3
336.654282E-3
336.403084E-3
336.400795E-3
336.464310E-3
336.634827E-3
336.841393E-3
336.756134E-3
336.581612E-3
336.031151E-3
335.338211E-3
334.843254E-3
334.358597E-3
334.415817E-3
334.280205E-3
334.387207E-3
334.756851E-3
335.138512E-3
335.577393E-3
335.822868E-3
335.905266E-3
335.845757E-3
335.818291E-3
335.347939E-3
334.955978E-3
334.514809E-3
334.115982E-3
333.655357E-3
333.090591E-3
332.581902E-3
332.124138E-3
331.708717E-3
331.113052E-3
330.790901E-3
330.443001E-3
330.213547E-3
330.100822E-3
329.961205E-3
329.913139E-3
329.858208E-3
329.915428E-3
329.807854E-3
329.711723E-3
329.656792E-3
329.649925E-3
329.671097E-3
329.675674E-3
329.561806E-3
329.504585E-3
329.708290E-3
329.510307E-3
329.366684E-3
329.217911E-3
329.182434E-3
329.152679E-3
329.063416E-3
328.911781E-3
328.720093E-3
328.606796E-3
328.613663E-3
328.424263E-3
328.285789E-3
328.156471E-3
327.943611E-3
327.842331E-3
327.613449E-3
327.384567E-3
327.127647E-3
326.769447E-3
326.649857E-3
326.327133E-3
326.212692E-3
325.968361E-3
325.976944E-3
326.031303E-3
326.070786E-3
326.133156E-3
326.768303E-3
328.130722E-3
330.209541E-3
332.782173E-3
335.693550E-3
338.688469E-3
341.350365E-3
343.522453E-3
345.149803E-3
345.730019E-3
345.541191E-3
344.874573E-3
343.944168E-3
342.688179E-3
341.555214E-3
340.446854E-3
339.588547E-3
339.016342E-3
338.548279E-3
338.418388E-3
338.485336E-3
338.750267E-3
338.941383E-3
339.196587E-3
339.337349E-3
339.261246E-3
338.816071E-3
338.162613E-3
337.391853E-3
336.605644E-3
336.153603E-3
335.880089E-3
335.822868E-3
336.055183E-3
336.266899E-3
336.558723E-3
336.687469E-3
336.765289E-3
336.657715E-3
336.638832E-3
336.300087E-3
335.993385E-3
335.675812E-3
335.149956E-3
334.659576E-3
334.165192E-3
333.591843E-3
333.102036E-3
332.477188E-3
332.021713E-3
331.631470E-3
331.143379E-3
331.052399E-3
330.700493E-3
330.624390E-3
330.492210E-3
330.477905E-3
330.346870E-3
330.264473E-3
330.247307E-3
329.985809E-3
330.012131E-3
329.970360E-3
329.963493E-3
329.973793E-3
329.881096E-3
329.877090E-3
329.751205E-3
329.593277E-3
329.368973E-3
329.433632E-3
329.349518E-3
329.411888E-3
329.233360E-3
329.179001E-3
329.112625E-3
328.928375E-3
328.819084E-3
328.904343E-3
328.641129E-3
328.420830E-3
328.256035E-3
328.129005E-3
327.963066E-3
327.722168E-3
327.396011E-3
327.131653E-3
327.002335E-3
326.652718E-3
326.400948E-3
326.205826E-3
326.144600E-3
326.207542E-3
326.171494E-3
326.207542E-3
326.739693E-3
327.914429E-3
329.859352E-3
332.300377E-3
335.070419E-3
337.958908E-3
340.521812E-3
342.641830E-3
343.884659E-3
344.453430E-3
344.302368E-3
343.605995E-3
342.647552E-3
341.486549E-3
340.315247E-3
339.241219E-3
338.323402E-3
337.767220E-3
337.109184E-3
336.901474E-3
336.817360E-3
336.853409E-3
337.212753E-3
337.313461E-3
337.429047E-3
337.125206E-3
336.549568E-3
335.838890E-3
335.092735E-3
334.756279E-3
334.530830E-3
334.582329E-3
334.890747E-3
335.204315E-3
335.635185E-3
336.156464E-3
336.334991E-3
336.425972E-3
336.344147E-3
336.173630E-3
335.839462E-3
335.410881E-3
334.942818E-3
334.324265E-3
333.738327E-3
333.144379E-3
332.658005E-3
332.143593E-3
331.650352E-3
331.285858E-3
331.035805E-3
330.790901E-3
330.639839E-3
330.588341E-3
330.402374E-3
330.327415E-3
330.284500E-3
330.253029E-3
330.137444E-3
330.120277E-3
330.010414E-3
329.893112E-3
329.983521E-3
329.859352E-3
329.891396E-3
329.969788E-3
329.913139E-3
329.916573E-3
329.906273E-3
329.911423E-3
329.791260E-3
329.668236E-3
329.653358E-3
329.563522E-3
329.426193E-3
329.348373E-3
329.207039E-3
329.070282E-3
328.508949E-3
328.499222E-3
328.278923E-3
327.969360E-3
327.776527E-3
327.407455E-3
327.065277E-3
326.961708E-3
326.732254E-3
326.465034E-3
326.712799E-3
326.822662E-3
327.129936E-3
327.969933E-3
329.568100E-3
331.748199E-3
334.340858E-3
337.324905E-3
339.997673E-3
342.748833E-3
344.696617E-3
345.849037E-3
346.282196E-3
345.868492E-3
345.101738E-3
343.923569E-3
342.684174E-3
341.558647E-3
340.423393E-3
339.545631E-3
338.925362E-3
338.610649E-3
338.474464E-3
338.501930E-3
338.686752E-3
338.872719E-3
338.816071E-3
338.953972E-3
338.599777E-3
337.889099E-3
336.973000E-3
336.363029E-3
335.830879E-3
335.552788E-3
335.608864E-3
335.944748E-3
336.197662E-3
336.570740E-3
336.843681E-3
337.007904E-3
337.037086E-3
336.984444E-3
336.847115E-3
336.517525E-3
336.104393E-3
335.628891E-3
335.016060E-3
334.464455E-3
333.808136E-3
333.286285E-3
332.724953E-3
332.242584E-3
331.846046E-3
331.581688E-3
331.273842E-3
331.014061E-3
330.877876E-3
330.837250E-3
330.822372E-3
330.711365E-3
330.659866E-3
330.519676E-3
330.541420E-3
330.435562E-3
330.508804E-3
330.451012E-3
330.391502E-3
330.389214E-3
330.334282E-3
330.033302E-3
330.214691E-3
330.171204E-3
330.281067E-3
330.143738E-3
330.000114E-3
329.855919E-3
329.749489E-3
329.731178E-3
329.300880E-3
329.320335E-3
329.100037E-3
328.871155E-3
328.742981E-3
328.642845E-3
328.449440E-3
328.222275E-3
328.034592E-3
327.863503E-3
327.493286E-3
327.222061E-3
326.956558E-3
326.762009E-3
326.499367E-3
326.448441E-3
326.581764E-3
326.783752E-3
327.025795E-3
327.944756E-3
329.544640E-3
331.947327E-3
334.704208E-3
337.723732E-3
340.796471E-3
343.468666E-3
345.533180E-3
346.747971E-3
347.254944E-3
346.943665E-3
346.075058E-3
344.819069E-3
343.438911E-3
342.027855E-3
340.554428E-3
339.710426E-3
339.215469E-3
338.909912E-3
338.718224E-3
338.842964E-3
339.053535E-3
339.352226E-3
339.476395E-3
339.575958E-3
339.228630E-3
338.513947E-3
337.734604E-3
336.829376E-3
336.084366E-3
335.730171E-3
335.524178E-3
335.631180E-3
335.853767E-3
336.150169E-3
336.461449E-3
336.590195E-3
336.728096E-3
336.735535E-3
336.441422E-3
336.163902E-3
335.778236E-3
335.511017E-3
334.923935E-3
334.211540E-3
333.798981E-3
333.139801E-3
332.581329E-3
332.114410E-3
331.673813E-3
331.331062E-3
330.789757E-3
330.758858E-3
330.718231E-3
330.519676E-3
330.400658E-3
330.281639E-3
330.254745E-3
330.186653E-3
330.030441E-3
329.771233E-3
329.781532E-3
329.829597E-3
329.861069E-3
329.783821E-3
329.771233E-3
329.708862E-3
329.735184E-3
329.656792E-3
329.806709E-3
329.623032E-3
329.270554E-3
329.153824E-3
328.895187E-3
328.712082E-3
328.641129E-3
328.423119E-3
328.349304E-3
328.139877E-3
327.989960E-3
327.904701E-3
327.652359E-3
327.599716E-3
327.411461E-3
327.062416E-3
327.064133E-3
326.546288E-3
326.301956E-3
326.098251E-3
325.778389E-3
325.658798E-3
325.601578E-3
325.761223E-3
325.752640E-3
325.885391E-3
326.088524E-3
326.917076E-3
328.430557E-3
330.788040E-3
333.516884E-3
336.594200E-3
339.511299E-3
342.015839E-3
343.680382E-3
344.939804E-3
345.303726E-3
344.870567E-3
343.848610E-3
342.507362E-3
340.932655E-3
339.533043E-3
338.273621E-3
337.336349E-3
336.654854E-3
336.143875E-3
336.270905E-3
336.322403E-3
336.572456E-3
336.807632E-3
336.873436E-3
336.874008E-3
336.126709E-3
335.584831E-3
334.910202E-3
334.173775E-3
333.881378E-3
333.815002E-3
333.890533E-3
334.240150E-3
334.718513E-3
335.360527E-3
335.691833E-3
335.837173E-3
335.750198E-3
335.562515E-3
335.311317E-3
334.823799E-3
334.401512E-3
333.930588E-3
333.654213E-3
332.940102E-3
332.234573E-3
331.670952E-3
331.130791E-3
330.653000E-3
330.258751E-3
329.889679E-3
329.679108E-3
329.099464E-3
329.177856E-3
329.218483E-3
329.209900E-3
329.185295E-3
329.072571E-3
328.996468E-3
328.926659E-3
328.718376E-3
328.624535E-3
328.610802E-3
328.595924E-3
328.649712E-3
328.597069E-3
328.589630E-3
328.562737E-3
328.388214E-3
328.321266E-3
328.079224E-3
328.050041E-3
327.959633E-3
327.834320E-3
327.722740E-3
327.551651E-3
327.457237E-3
327.240372E-3
327.057266E-3
326.933670E-3
326.819229E-3
326.671600E-3
326.392365E-3
326.024437E-3
325.693703E-3
325.382423E-3
324.930382E-3
324.824524E-3
324.709511E-3
324.731827E-3
324.786186E-3
324.870300E-3
325.295448E-3
326.125717E-3
327.791405E-3
330.279350E-3
332.934952E-3
335.938454E-3
338.835526E-3
341.695404E-3
343.755913E-3
345.069695E-3
345.488548E-3
345.138359E-3
344.673157E-3
343.136787E-3
341.444206E-3
339.875221E-3
338.525391E-3
337.437630E-3
336.694908E-3
336.359024E-3
336.162758E-3
336.353302E-3
336.517525E-3
336.821938E-3
337.191582E-3
337.298584E-3
336.985016E-3
336.491776E-3
335.787392E-3
335.006905E-3
334.061623E-3
333.916855E-3
333.901405E-3
334.021568E-3
334.322548E-3
334.664726E-3
335.005760E-3
335.319901E-3
335.426903E-3
335.221481E-3
335.129356E-3
334.826088E-3
334.461021E-3
333.943748E-3
333.530617E-3
333.009338E-3
332.296371E-3
331.823158E-3
331.311607E-3
330.828094E-3
330.396652E-3
329.981804E-3
329.697418E-3
329.533768E-3
329.344368E-3
329.372978E-3
329.145813E-3
329.125214E-3
329.030800E-3
328.969574E-3
329.021072E-3
329.046822E-3
329.009628E-3
328.851128E-3
328.959846E-3
328.859138E-3
328.617668E-3
328.544998E-3
328.447151E-3
328.276634E-3
328.301239E-3
328.202248E-3
328.137589E-3
328.107834E-3
327.836609E-3
327.557373E-3
327.242661E-3
327.137375E-3
327.001762E-3
326.757431E-3
326.634407E-3
326.490784E-3
325.972366E-3
326.137161E-3
325.948334E-3
325.972366E-3
325.757217E-3
325.527763E-3
325.246811E-3
324.921799E-3
324.700356E-3
324.333572E-3
324.173355E-3
324.042320E-3
323.986816E-3
324.063492E-3
324.063492E-3
324.399376E-3
325.292587E-3
326.880455E-3
329.037666E-3
331.983376E-3
335.088730E-3
338.156891E-3
340.915489E-3
343.047523E-3
344.203377E-3
344.502640E-3
343.996811E-3
342.965126E-3
341.574669E-3
339.897537E-3
338.381195E-3
337.135506E-3
335.953903E-3
335.165977E-3
334.714508E-3
334.564018E-3
334.809494E-3
334.831810E-3
335.109901E-3
335.351944E-3
335.466957E-3
335.303879E-3
334.772873E-3
334.105682E-3
333.342934E-3
332.977295E-3
332.716370E-3
332.703209E-3
332.868576E-3
333.185005E-3
333.475113E-3
333.826447E-3
334.184647E-3
334.142303E-3
334.037590E-3
333.846474E-3
333.475113E-3
333.071136E-3
332.595634E-3
331.924438E-3
331.507301E-3
330.860710E-3
330.247307E-3
329.639626E-3
329.092598E-3
328.758430E-3
328.419113E-3
328.074074E-3
327.896118E-3
327.664375E-3
327.400589E-3
327.310753E-3
327.089310E-3
327.064133E-3
327.056694E-3
326.991463E-3
326.869583E-3
326.802635E-3
326.782036E-3
326.713371E-3
326.732826E-3
326.660156E-3
326.636696E-3
326.577187E-3
326.613235E-3
326.435280E-3
326.267624E-3
326.114845E-3
326.093674E-3
325.978661E-3
325.798988E-3
