Notes :


2023-10-21 ¿ÀÈÄ 11:34:14
Volts
Ch : LED 2,Ch : LED 3,
691.194534E-3,154.559898E-3
690.395737E-3,153.567123E-3
690.751076E-3,153.781128E-3
691.733551E-3,154.743576E-3
690.853500E-3,153.410912E-3
693.408966E-3,156.448174E-3
692.940331E-3,156.201553E-3
693.650436E-3,156.409836E-3
694.920731E-3,157.650375E-3
693.756294E-3,156.030464E-3
696.084023E-3,158.357048E-3
695.145035E-3,157.487297E-3
695.206261E-3,157.495880E-3
696.148682E-3,158.776474E-3
694.508171E-3,157.027245E-3
696.852493E-3,159.820175E-3
695.974159E-3,158.734703E-3
696.297455E-3,158.845711E-3
697.213554E-3,159.719467E-3
695.847702E-3,157.654381E-3
697.669601E-3,159.926605E-3
696.653938E-3,158.906364E-3
695.971298E-3,158.621407E-3
696.279144E-3,158.889771E-3
694.504166E-3,156.431580E-3
696.268272E-3,158.664894E-3
695.324707E-3,157.296181E-3
695.023727E-3,156.920815E-3
695.310402E-3,158.042336E-3
693.834686E-3,155.899429E-3
696.359825E-3,158.917236E-3
695.483208E-3,158.274078E-3
695.761299E-3,158.013153E-3
696.572113E-3,159.145546E-3
695.205116E-3,157.283592E-3
697.968292E-3,160.367775E-3
697.290230E-3,159.305191E-3
697.206688E-3,159.436226E-3
697.931099E-3,160.234451E-3
696.524620E-3,158.597946E-3
699.280930E-3,161.938477E-3
698.248672E-3,160.657883E-3
698.094177E-3,160.164642E-3
698.951340E-3,161.378288E-3
697.378922E-3,159.732056E-3
699.991035E-3,162.825966E-3
698.972511E-3,161.569405E-3
698.444366E-3,160.822678E-3
699.113846E-3,161.850929E-3
697.330856E-3,159.953499E-3
699.939537E-3,162.764168E-3
698.943901E-3,161.669540E-3
698.131371E-3,160.774612E-3
699.195099E-3,161.259842E-3
697.572327E-3,159.720612E-3
699.936104E-3,162.678337E-3
698.931313E-3,161.706161E-3
698.470116E-3,161.075020E-3
698.955917E-3,161.701012E-3
697.513390E-3,160.054207E-3
699.758720E-3,162.317276E-3
699.069214E-3,161.608315E-3
698.520470E-3,160.443878E-3
699.231148E-3,162.098694E-3
698.265266E-3,160.614967E-3
700.650215E-3,162.976456E-3
700.067711E-3,161.989975E-3
699.551010E-3,161.612320E-3
700.043678E-3,162.967873E-3
698.971939E-3,161.836624E-3
701.093102E-3,163.774681E-3
700.092316E-3,163.057137E-3
699.732399E-3,161.948204E-3
700.116348E-3,162.563324E-3
698.308182E-3,160.166359E-3
699.138451E-3,161.388588E-3
696.496010E-3,159.239960E-3
694.263840E-3,156.807518E-3
693.334579E-3,156.344032E-3
690.506172E-3,153.540802E-3
691.005707E-3,154.345894E-3
689.710236E-3,153.176308E-3
688.398743E-3,151.928902E-3
689.033890E-3,152.713394E-3
688.066864E-3,151.384163E-3
690.218925E-3,153.817177E-3
690.174294E-3,153.416634E-3
690.076447E-3,153.204346E-3
691.482925E-3,154.800797E-3
690.796852E-3,153.810883E-3
693.487358E-3,156.304550E-3
693.146896E-3,155.808449E-3
692.564964E-3,155.368423E-3
693.590355E-3,156.701088E-3
692.336655E-3,155.457687E-3
694.462395E-3,157.144547E-3
693.869019E-3,156.731987E-3
693.188095E-3,156.177521E-3
693.895912E-3,157.583427E-3
693.061066E-3,156.128883E-3
695.226860E-3,158.287239E-3
694.826317E-3,157.730484E-3
694.264412E-3,156.993484E-3
695.368767E-3,158.294678E-3
693.880463E-3,156.421280E-3
695.523262E-3,158.247185E-3
695.027733E-3,157.794571E-3
693.700218E-3,156.140327E-3
694.552803E-3,157.521629E-3
692.964363E-3,155.854797E-3
694.485283E-3,157.716179E-3
693.916512E-3,157.244110E-3
693.172073E-3,155.306625E-3
694.220924E-3,157.447243E-3
693.130302E-3,155.900574E-3
694.911003E-3,158.198547E-3
694.615173E-3,157.950783E-3
694.057846E-3,156.288528E-3
695.468903E-3,157.918739E-3
694.481850E-3,157.257271E-3
696.397591E-3,159.789276E-3
695.852852E-3,159.255981E-3
695.145035E-3,158.369637E-3
696.648788E-3,160.045624E-3
695.459175E-3,158.430862E-3
697.343445E-3,160.489082E-3
696.890259E-3,160.269356E-3
696.156693E-3,159.226799E-3
697.450447E-3,160.953712E-3
696.301460E-3,159.581566E-3
698.120499E-3,161.149979E-3
697.733116E-3,160.884476E-3
696.821594E-3,159.722328E-3
698.005486E-3,161.254120E-3
696.656799E-3,159.437370E-3
698.268127E-3,161.563683E-3
697.912788E-3,161.466980E-3
696.749496E-3,160.125732E-3
698.000908E-3,161.925316E-3
696.839905E-3,159.990120E-3
698.143387E-3,161.030388E-3
698.016930E-3,160.610390E-3
696.895409E-3,159.744644E-3
698.105049E-3,161.616898E-3
696.766663E-3,159.985542E-3
698.432922E-3,161.418915E-3
698.086739E-3,161.309052E-3
697.164917E-3,159.960937E-3
698.680687E-3,162.312698E-3
697.519112E-3,160.567474E-3
699.091530E-3,161.925316E-3
698.793983E-3,162.597084E-3
697.711945E-3,161.213493E-3
699.563599E-3,163.319778E-3
698.308754E-3,161.630058E-3
699.784470E-3,163.276863E-3
699.697495E-3,162.907219E-3
698.634911E-3,161.172295E-3
700.359535E-3,163.638496E-3
698.308182E-3,161.136246E-3
698.762512E-3,161.468124E-3
697.217560E-3,160.247612E-3
694.556808E-3,157.946777E-3
694.744492E-3,158.449173E-3
691.397095E-3,154.932976E-3
690.752792E-3,154.646301E-3
689.021873E-3,154.083252E-3
686.866951E-3,151.669121E-3
688.741493E-3,153.428078E-3
687.408257E-3,151.220512E-3
688.794136E-3,152.874756E-3
688.919449E-3,153.204918E-3
688.577271E-3,152.680206E-3
691.257477E-3,155.392456E-3
690.110779E-3,153.773117E-3
691.688347E-3,155.305481E-3
692.160988E-3,155.877686E-3
691.456032E-3,153.593445E-3
693.652153E-3,157.176018E-3
691.952705E-3,155.309486E-3
692.990112E-3,156.259346E-3
692.920876E-3,156.787491E-3
691.819382E-3,155.792427E-3
694.285583E-3,158.214569E-3
692.604446E-3,155.865669E-3
693.625832E-3,156.988335E-3
693.981743E-3,157.373428E-3
693.481636E-3,156.902504E-3
695.536995E-3,159.423637E-3
693.667030E-3,156.985474E-3
694.119644E-3,157.890701E-3
694.333076E-3,158.167648E-3
693.128586E-3,157.017517E-3
695.088959E-3,158.931541E-3
692.941475E-3,155.782127E-3
693.767738E-3,156.949997E-3
693.374062E-3,157.218933E-3
691.240311E-3,156.202126E-3
694.362831E-3,158.667183E-3
692.401314E-3,156.116867E-3
693.279076E-3,157.121658E-3
693.957138E-3,158.232307E-3
693.518829E-3,156.197548E-3
695.895195E-3,159.531212E-3
693.939972E-3,157.413483E-3
694.794273E-3,158.236885E-3
695.263481E-3,159.223938E-3
694.676399E-3,158.320427E-3
697.107697E-3,161.080742E-3
695.189667E-3,158.548164E-3
696.184731E-3,159.702301E-3
696.620750E-3,160.251045E-3
694.791412E-3,159.498596E-3
697.856712E-3,161.704445E-3
695.778465E-3,159.538078E-3
696.663666E-3,160.724258E-3
697.205544E-3,160.617256E-3
696.256828E-3,158.100700E-3
698.424911E-3,161.687279E-3
696.295166E-3,159.560966E-3
697.073936E-3,160.996628E-3
697.253609E-3,161.407471E-3
696.546936E-3,160.338593E-3
698.626328E-3,162.005997E-3
696.614456E-3,159.600449E-3
697.297668E-3,160.792351E-3
697.385788E-3,161.126518E-3
696.722031E-3,160.209274E-3
698.753357E-3,162.523270E-3
696.744347E-3,160.173798E-3
697.429276E-3,161.211205E-3
697.599792E-3,161.406898E-3
696.554375E-3,160.276794E-3
698.843765E-3,162.818527E-3
697.203255E-3,160.679054E-3
698.270988E-3,161.523056E-3
698.538208E-3,162.213707E-3
697.824669E-3,161.367989E-3
699.896049E-3,163.327789E-3
698.134804E-3,161.731339E-3
698.750496E-3,162.741852E-3
699.223709E-3,163.478279E-3
698.510742E-3,162.380219E-3
700.404739E-3,164.239311E-3
698.569107E-3,162.281227E-3
698.753929E-3,162.137604E-3
698.224640E-3,161.817169E-3
696.127510E-3,159.749794E-3
696.318626E-3,160.465622E-3
692.889404E-3,156.941986E-3
691.901207E-3,155.936623E-3
690.598297E-3,155.514336E-3
688.780975E-3,153.488159E-3
690.087891E-3,154.859734E-3
687.732124E-3,152.593231E-3
688.120651E-3,153.247833E-3
688.975525E-3,153.931618E-3
688.540077E-3,152.859879E-3
690.949059E-3,155.816460E-3
689.842415E-3,154.254341E-3
691.017723E-3,155.645370E-3
691.789627E-3,156.857872E-3
691.639709E-3,154.305840E-3
693.907356E-3,157.614899E-3
692.218781E-3,156.071663E-3
692.410469E-3,156.891632E-3
692.988968E-3,157.401466E-3
691.823387E-3,156.319427E-3
694.306755E-3,158.643723E-3
693.083954E-3,156.817245E-3
693.760872E-3,157.963371E-3
694.356537E-3,158.838844E-3
693.466759E-3,157.607460E-3
695.484352E-3,160.122871E-3
694.062996E-3,158.156776E-3
693.985176E-3,158.496666E-3
694.363976E-3,158.801079E-3
692.980957E-3,156.095123E-3
694.586563E-3,158.681488E-3
692.802429E-3,156.612968E-3
692.998123E-3,157.054138E-3
693.253899E-3,157.993126E-3
692.084885E-3,156.701088E-3
693.727112E-3,158.490944E-3
692.528915E-3,156.702805E-3
692.821312E-3,157.296753E-3
693.376350E-3,158.461761E-3
692.692566E-3,155.356979E-3
695.055771E-3,159.031677E-3
693.582916E-3,157.629204E-3
694.302750E-3,158.492661E-3
695.138168E-3,159.840202E-3
694.089317E-3,158.347893E-3
696.197891E-3,160.821533E-3
694.976807E-3,159.361839E-3
695.498085E-3,160.232162E-3
696.055984E-3,160.601807E-3
695.048904E-3,158.753586E-3
696.930313E-3,161.245537E-3
695.869446E-3,160.074234E-3
696.023369E-3,160.442162E-3
696.546936E-3,161.411476E-3
695.623398E-3,159.396744E-3
697.705078E-3,161.654091E-3
696.299744E-3,160.612106E-3
696.255684E-3,160.856438E-3
696.829033E-3,161.584282E-3
695.508957E-3,159.796143E-3
697.352028E-3,161.997986E-3
696.266556E-3,160.483932E-3
696.272850E-3,160.653877E-3
696.906853E-3,161.722755E-3
695.603371E-3,159.652519E-3
697.828674E-3,162.225723E-3
696.718597E-3,161.210632E-3
696.533775E-3,161.283302E-3
697.468758E-3,162.360191E-3
695.583344E-3,160.418129E-3
698.224068E-3,163.078880E-3
697.140884E-3,161.852646E-3
697.484207E-3,162.004280E-3
698.300171E-3,162.740707E-3
696.641350E-3,160.664177E-3
698.626900E-3,163.051987E-3
697.798347E-3,161.972809E-3
697.977448E-3,162.585068E-3
698.484421E-3,163.077736E-3
696.014786E-3,160.193825E-3
697.180939E-3,161.440086E-3
694.761658E-3,159.540939E-3
693.572617E-3,157.937622E-3
692.680550E-3,157.158852E-3
689.971161E-3,154.040337E-3
690.797997E-3,155.708313E-3
689.112854E-3,153.905296E-3
688.608170E-3,153.414917E-3
688.887978E-3,154.087830E-3
687.508392E-3,152.397537E-3
689.948273E-3,155.132675E-3
689.607811E-3,154.648018E-3
690.353966E-3,154.846001E-3
691.594505E-3,156.044197E-3
690.799141E-3,154.866028E-3
692.919731E-3,157.618332E-3
692.800713E-3,157.194901E-3
692.889404E-3,157.398033E-3
693.747139E-3,158.302689E-3
692.602730E-3,156.265068E-3
694.581985E-3,159.070587E-3
693.896484E-3,158.567619E-3
694.013214E-3,158.370209E-3
695.294952E-3,159.434509E-3
693.924522E-3,157.522202E-3
696.322060E-3,160.664177E-3
695.152473E-3,159.392166E-3
694.727898E-3,159.146118E-3
695.248032E-3,159.817886E-3
693.630409E-3,157.482147E-3
695.654297E-3,160.201263E-3
694.414330E-3,158.818245E-3
693.851852E-3,157.737923E-3
694.211197E-3,158.445168E-3
692.365265E-3,156.167221E-3
694.612312E-3,158.928108E-3
693.465042E-3,157.878113E-3
693.387794E-3,157.550240E-3
694.287300E-3,158.647156E-3
692.910004E-3,156.407547E-3
695.408821E-3,159.558678E-3
694.793701E-3,159.281158E-3
694.492722E-3,158.655739E-3
695.762444E-3,159.593010E-3
694.271278E-3,157.854080E-3
696.992683E-3,161.013222E-3
696.376991E-3,160.358620E-3
696.094322E-3,160.061646E-3
696.909714E-3,161.224937E-3
695.234299E-3,159.386444E-3
697.900772E-3,162.095261E-3
697.157478E-3,161.159706E-3
696.780968E-3,160.504532E-3
697.443581E-3,161.486435E-3
696.010208E-3,159.972382E-3
698.723030E-3,162.573051E-3
697.559166E-3,161.750793E-3
696.911430E-3,160.968018E-3
697.600937E-3,161.884689E-3
696.249390E-3,160.238457E-3
698.483276E-3,162.535286E-3
697.277641E-3,161.455536E-3
696.692848E-3,160.380363E-3
697.381783E-3,161.474991E-3
696.046829E-3,159.750366E-3
698.388290E-3,162.429428E-3
697.560883E-3,161.631775E-3
696.944618E-3,160.080528E-3
698.024940E-3,161.592865E-3
696.748352E-3,160.543442E-3
699.020004E-3,162.867737E-3
698.197174E-3,161.991692E-3
697.598648E-3,160.910797E-3
697.932243E-3,162.760162E-3
697.296524E-3,161.565399E-3
699.751854E-3,163.831902E-3
699.062347E-3,163.288307E-3
698.428345E-3,162.551308E-3
698.904419E-3,163.300896E-3
697.055054E-3,160.898209E-3
698.340225E-3,162.450600E-3
696.236229E-3,160.641861E-3
693.913078E-3,158.018875E-3
692.939186E-3,157.571411E-3
690.272713E-3,154.603958E-3
690.945625E-3,155.364418E-3
689.221573E-3,153.755379E-3
688.035965E-3,152.633858E-3
688.922310E-3,153.708458E-3
687.618256E-3,152.059937E-3
689.941406E-3,154.417992E-3
689.600372E-3,153.805733E-3
688.933182E-3,153.766251E-3
690.788269E-3,155.859947E-3
690.439224E-3,154.610825E-3
692.726326E-3,157.412910E-3
692.335510E-3,157.063293E-3
691.124725E-3,156.440163E-3
692.645645E-3,157.467842E-3
691.722679E-3,155.708313E-3
693.488503E-3,157.915306E-3
693.188667E-3,157.153702E-3
692.407608E-3,156.574059E-3
693.432999E-3,157.731056E-3
692.440796E-3,156.219292E-3
694.386292E-3,158.771896E-3
693.930244E-3,158.687210E-3
693.248749E-3,158.008575E-3
694.255829E-3,159.030533E-3
693.004417E-3,157.341957E-3
694.592857E-3,158.846283E-3
693.835831E-3,158.029175E-3
692.830467E-3,156.111145E-3
693.495369E-3,157.830048E-3
691.926956E-3,156.017303E-3
693.754005E-3,157.747078E-3
692.998695E-3,157.525635E-3
692.011642E-3,156.299973E-3
693.280792E-3,157.819176E-3
692.051125E-3,156.116295E-3
693.782043E-3,158.422279E-3
693.575478E-3,158.099556E-3
692.884254E-3,157.493019E-3
694.371986E-3,158.864021E-3
693.365479E-3,157.579994E-3
695.274353E-3,159.697723E-3
695.358467E-3,159.546661E-3
694.531059E-3,158.336449E-3
695.785904E-3,159.910011E-3
694.543076E-3,158.586502E-3
696.438789E-3,160.442734E-3
696.109200E-3,160.384369E-3
695.236015E-3,159.294319E-3
696.431351E-3,160.524559E-3
694.993401E-3,159.617043E-3
696.868515E-3,161.519623E-3
696.519470E-3,161.171150E-3
695.533562E-3,159.797287E-3
696.830177E-3,160.768318E-3
695.407104E-3,159.562683E-3
697.107124E-3,161.565971E-3
696.706581E-3,161.017227E-3
695.602226E-3,159.815025E-3
697.083092E-3,161.440659E-3
695.879745E-3,159.818459E-3
697.347450E-3,161.718178E-3
697.048759E-3,161.256409E-3
694.922447E-3,159.934616E-3
696.673393E-3,161.668968E-3
695.765877E-3,160.128593E-3
697.716522E-3,161.831474E-3
697.105980E-3,161.545944E-3
696.277428E-3,160.427856E-3
697.826385E-3,162.589645E-3
696.779251E-3,160.981750E-3
698.525620E-3,162.812233E-3
698.101044E-3,162.164497E-3
697.054482E-3,161.150551E-3
698.665237E-3,163.469696E-3
697.294807E-3,161.821175E-3
698.635483E-3,162.968445E-3
697.876167E-3,162.249184E-3
696.055984E-3,160.169220E-3
696.315193E-3,161.050415E-3
693.431282E-3,157.875252E-3
692.940903E-3,157.785416E-3
691.066933E-3,155.872536E-3
688.333511E-3,153.815460E-3
689.156342E-3,154.919815E-3
687.158775E-3,152.320290E-3
687.818527E-3,153.383446E-3
687.819099E-3,153.253555E-3
686.779404E-3,152.286530E-3
689.242744E-3,154.928970E-3
688.241959E-3,153.474426E-3
689.868736E-3,154.833984E-3
690.265274E-3,155.241394E-3
689.678764E-3,154.501534E-3
692.248535E-3,157.216072E-3
690.779114E-3,155.423355E-3
691.974449E-3,156.649017E-3
691.682625E-3,156.863594E-3
690.896988E-3,155.687714E-3
692.597580E-3,157.830048E-3
691.185379E-3,155.774689E-3
692.255974E-3,156.875610E-3
692.532921E-3,157.576561E-3
691.833687E-3,154.988480E-3
694.275284E-3,158.325577E-3
692.646790E-3,157.133102E-3
693.498802E-3,158.049774E-3
693.401527E-3,158.318138E-3
692.293739E-3,157.034683E-3
694.208336E-3,159.244537E-3
692.413902E-3,156.699944E-3
693.014717E-3,157.617760E-3
692.424202E-3,157.810593E-3
691.350746E-3,156.570053E-3
693.400955E-3,158.928680E-3
691.601944E-3,156.521988E-3
692.528343E-3,157.589722E-3
692.561531E-3,157.914734E-3
691.834259E-3,156.964874E-3
693.704224E-3,159.421349E-3
692.389297E-3,157.044411E-3
693.602371E-3,158.505821E-3
693.783760E-3,158.674049E-3
693.156624E-3,157.903862E-3
695.508385E-3,160.999489E-3
693.857574E-3,158.471489E-3
695.201683E-3,159.992981E-3
695.139313E-3,160.537148E-3
694.279289E-3,159.274292E-3
696.750641E-3,161.484718E-3
694.536209E-3,159.082031E-3
695.555878E-3,160.232735E-3
695.599365E-3,160.696220E-3
694.500732E-3,159.547806E-3
696.966362E-3,162.247467E-3
694.810295E-3,159.828186E-3
695.860291E-3,160.540581E-3
695.908356E-3,160.841560E-3
694.977379E-3,159.853935E-3
697.013855E-3,162.364197E-3
694.775963E-3,159.394455E-3
695.547867E-3,160.351181E-3
695.467186E-3,160.848999E-3
694.560242E-3,159.878540E-3
696.830177E-3,162.182808E-3
694.571114E-3,159.648514E-3
695.299530E-3,160.657310E-3
695.577621E-3,161.097336E-3
694.957924E-3,160.224724E-3
697.357750E-3,162.553024E-3
695.067787E-3,159.674835E-3
695.826530E-3,161.394310E-3
696.325493E-3,161.771393E-3
695.691490E-3,160.895920E-3
697.771454E-3,163.322639E-3
695.651436E-3,160.880470E-3
696.826744E-3,162.106133E-3
697.146034E-3,162.373352E-3
696.449089E-3,161.302757E-3
698.337936E-3,163.458252E-3
695.801926E-3,160.665894E-3
695.862579E-3,161.321068E-3
695.027161E-3,160.371208E-3
692.778397E-3,157.993698E-3
693.574905E-3,158.509254E-3
689.563751E-3,155.221367E-3
688.808441E-3,154.871178E-3
688.005638E-3,154.185104E-3
686.566544E-3,152.634430E-3
688.142967E-3,154.486656E-3
686.156845E-3,152.307129E-3
686.976814E-3,153.596878E-3
687.970161E-3,153.708458E-3
687.847710E-3,153.490448E-3
690.236092E-3,156.190109E-3
688.830757E-3,154.417419E-3
689.836121E-3,156.221581E-3
690.532494E-3,156.691933E-3
690.177155E-3,155.842781E-3
692.310905E-3,158.048630E-3
690.486717E-3,156.053925E-3
691.428566E-3,157.380867E-3
691.672897E-3,157.759666E-3
690.212631E-3,156.733704E-3
692.835045E-3,158.815384E-3
691.475487E-3,156.961441E-3
692.558098E-3,158.108139E-3
693.050194E-3,158.688354E-3
692.446518E-3,157.709885E-3
694.287872E-3,159.490585E-3
692.074013E-3,157.534790E-3
692.352676E-3,158.052635E-3
692.460823E-3,158.227730E-3
691.333580E-3,156.745720E-3
692.852783E-3,158.848572E-3
690.602875E-3,156.747437E-3
691.137314E-3,157.186890E-3
691.496658E-3,157.670403E-3
690.834045E-3,156.542015E-3
692.619324E-3,158.748436E-3
691.110420E-3,157.030678E-3
691.937256E-3,157.563400E-3
692.611885E-3,158.582497E-3
691.837692E-3,157.467270E-3
694.124222E-3,160.238457E-3
692.403030E-3,158.189964E-3
693.094254E-3,159.251404E-3
694.044113E-3,159.963226E-3
693.367195E-3,158.718109E-3
695.326424E-3,160.798073E-3
694.067574E-3,159.152412E-3
694.379425E-3,159.836197E-3
695.051193E-3,160.446167E-3
694.412041E-3,159.274292E-3
696.375275E-3,161.725044E-3
694.671822E-3,160.003853E-3
695.332146E-3,160.396385E-3
695.716667E-3,161.208916E-3
694.651222E-3,159.653091E-3
696.664238E-3,161.650085E-3
695.209122E-3,160.125732E-3
695.674324E-3,160.455322E-3
696.132660E-3,161.133385E-3
695.229149E-3,159.840202E-3
697.245026E-3,162.288666E-3
695.614243E-3,160.534859E-3
696.013641E-3,160.637283E-3
696.613312E-3,161.818314E-3
695.586205E-3,160.391808E-3
697.547150E-3,162.861443E-3
696.227646E-3,160.908508E-3
696.619606E-3,161.366844E-3
697.315979E-3,162.113571E-3
696.267128E-3,161.176872E-3
698.577690E-3,163.298607E-3
696.705437E-3,161.734200E-3
697.330856E-3,162.040329E-3
697.789192E-3,162.733841E-3
696.621323E-3,161.718178E-3
698.413467E-3,163.634491E-3
696.435356E-3,161.152267E-3
695.703506E-3,160.489082E-3
695.085526E-3,159.985542E-3
692.400169E-3,157.218933E-3
692.694283E-3,157.912445E-3
689.762878E-3,155.677986E-3
689.016151E-3,154.825974E-3
688.714600E-3,155.113792E-3
686.978531E-3,152.299118E-3
688.744926E-3,154.618835E-3
687.660027E-3,153.410339E-3
687.900352E-3,153.479576E-3
689.009857E-3,154.918671E-3
688.342667E-3,153.306198E-3
690.696716E-3,155.855370E-3
689.713097E-3,154.949570E-3
690.209770E-3,155.736351E-3
690.953064E-3,157.058716E-3
688.482285E-3,155.331230E-3
691.814804E-3,157.601738E-3
691.223717E-3,156.422997E-3
691.113281E-3,156.450462E-3
691.908646E-3,157.566833E-3
690.659523E-3,155.893135E-3
692.870522E-3,158.493805E-3
692.364693E-3,157.715607E-3
692.709160E-3,157.838058E-3
693.678474E-3,158.960152E-3
690.672112E-3,157.100487E-3
692.988968E-3,158.988190E-3
691.836548E-3,157.752228E-3
691.880608E-3,157.504463E-3
692.222214E-3,158.021164E-3
690.470123E-3,155.653954E-3
692.115784E-3,157.982826E-3
691.021156E-3,156.854439E-3
690.961647E-3,156.821251E-3
691.811943E-3,157.827759E-3
690.335083E-3,155.388451E-3
692.495728E-3,157.840347E-3
691.869736E-3,157.135963E-3
692.361259E-3,157.598305E-3
692.991829E-3,158.864594E-3
692.166710E-3,156.780052E-3
694.793129E-3,159.717751E-3
693.861580E-3,159.385872E-3
694.135666E-3,159.718323E-3
694.919586E-3,160.446167E-3
692.848778E-3,158.571053E-3
695.496941E-3,161.118507E-3
695.076942E-3,160.217857E-3
695.107269E-3,160.601234E-3
695.738411E-3,161.294746E-3
694.250107E-3,159.362984E-3
696.170425E-3,161.753082E-3
695.345306E-3,160.602951E-3
695.382500E-3,160.122299E-3
695.761871E-3,160.426712E-3
694.301033E-3,158.814240E-3
696.068573E-3,161.537933E-3
695.322990E-3,160.663605E-3
695.218277E-3,160.366631E-3
695.761299E-3,160.743141E-3
694.255829E-3,158.721542E-3
696.248817E-3,161.639786E-3
695.115280E-3,160.486221E-3
694.581985E-3,160.253334E-3
695.569038E-3,161.101341E-3
693.974304E-3,158.746147E-3
696.378708E-3,161.606026E-3
695.495224E-3,160.423851E-3
695.480919E-3,159.947777E-3
696.219635E-3,161.310768E-3
694.628906E-3,159.482002E-3
697.164345E-3,162.512970E-3
696.366692E-3,161.413193E-3
696.237373E-3,161.381149E-3
697.147751E-3,162.276077E-3
695.605087E-3,160.002708E-3
698.019218E-3,163.106346E-3
697.109413E-3,162.157631E-3
696.785545E-3,161.621475E-3
697.353745E-3,162.472343E-3
695.029449E-3,159.840775E-3
696.112633E-3,161.573410E-3
693.965721E-3,159.345818E-3
691.692352E-3,157.065010E-3
690.754509E-3,156.340027E-3
687.591934E-3,153.176308E-3
688.855934E-3,154.931259E-3
686.688995E-3,153.124237E-3
685.609818E-3,152.106285E-3
686.458969E-3,153.095627E-3
685.023308E-3,151.555824E-3
687.866020E-3,154.104996E-3
687.474632E-3,153.321648E-3
687.377357E-3,153.520775E-3
688.655090E-3,154.617691E-3
687.866020E-3,153.282738E-3
690.262413E-3,156.414986E-3
690.051270E-3,155.748940E-3
689.508820E-3,155.122948E-3
689.994049E-3,156.042480E-3
688.706589E-3,154.487801E-3
690.935326E-3,157.266426E-3
690.057564E-3,156.034470E-3
689.679909E-3,155.388451E-3
690.735054E-3,156.358337E-3
689.535713E-3,154.895782E-3
691.912651E-3,157.658386E-3
691.687202E-3,157.077026E-3
691.124153E-3,156.604958E-3
691.751289E-3,157.842636E-3
690.476990E-3,155.871964E-3
692.627907E-3,158.157349E-3
691.811943E-3,157.133675E-3
690.602303E-3,156.521416E-3
691.291809E-3,157.333374E-3
689.773750E-3,155.311203E-3
691.659164E-3,157.784271E-3
690.941048E-3,156.540298E-3
690.268707E-3,155.119514E-3
691.291237E-3,156.099129E-3
690.083885E-3,155.545807E-3
692.328644E-3,157.906723E-3
691.738701E-3,157.339096E-3
691.335297E-3,156.724548E-3
692.103195E-3,158.010864E-3
691.351891E-3,156.886482E-3
693.523407E-3,159.421349E-3
693.079948E-3,158.326721E-3
692.698288E-3,157.951927E-3
693.720818E-3,159.217644E-3
692.627907E-3,158.050346E-3
694.639778E-3,160.011292E-3
693.807220E-3,159.368706E-3
693.234444E-3,158.726692E-3
694.097900E-3,160.081100E-3
692.918015E-3,158.438301E-3
695.118141E-3,160.533142E-3
694.433784E-3,160.034180E-3
693.816376E-3,159.270287E-3
694.748497E-3,160.742569E-3
693.333435E-3,159.225655E-3
695.275497E-3,161.060143E-3
694.561958E-3,160.405540E-3
693.955994E-3,159.472275E-3
694.815445E-3,160.538864E-3
693.608665E-3,158.863449E-3
695.130157E-3,160.881615E-3
694.646645E-3,160.007286E-3
693.730545E-3,158.320427E-3
694.659805E-3,160.382080E-3
693.848419E-3,159.098625E-3
695.439720E-3,161.188889E-3
695.072937E-3,160.839272E-3
694.798279E-3,159.992981E-3
695.708656E-3,161.958504E-3
694.373703E-3,160.176086E-3
696.350098E-3,162.126160E-3
696.132660E-3,161.818886E-3
695.631981E-3,160.691071E-3
696.818161E-3,162.385941E-3
695.419121E-3,160.796356E-3
697.218132E-3,162.782478E-3
696.607590E-3,162.460327E-3
695.471764E-3,159.963799E-3
696.140671E-3,161.818886E-3
693.910789E-3,159.488297E-3
694.623756E-3,160.366631E-3
692.419624E-3,158.481789E-3
689.936256E-3,156.003571E-3
689.436150E-3,156.147194E-3
686.983109E-3,153.028679E-3
687.516403E-3,154.155350E-3
686.196899E-3,153.083038E-3
684.887695E-3,151.947784E-3
686.041832E-3,153.260994E-3
685.018158E-3,151.952362E-3
687.279510E-3,154.222870E-3
687.329865E-3,154.422569E-3
686.714745E-3,153.215218E-3
688.688850E-3,155.342674E-3
687.690353E-3,154.101562E-3
689.447594E-3,156.521988E-3
689.273643E-3,156.088257E-3
688.608170E-3,154.677773E-3
689.825249E-3,156.088257E-3
688.490868E-3,154.696655E-3
690.158844E-3,156.811523E-3
689.963150E-3,156.605530E-3
687.906647E-3,155.278587E-3
690.164566E-3,157.461548E-3
689.514542E-3,155.982971E-3
691.698074E-3,157.697868E-3
691.503525E-3,157.486153E-3
690.291595E-3,156.794357E-3
691.541290E-3,158.195686E-3
690.201187E-3,156.511688E-3
691.385651E-3,158.087540E-3
690.761948E-3,157.672691E-3
689.485359E-3,156.071091E-3
690.721893E-3,157.874107E-3
689.295959E-3,155.683136E-3
690.703583E-3,157.448959E-3
690.454102E-3,157.199478E-3
689.374352E-3,155.563545E-3
691.014290E-3,158.193398E-3
689.795494E-3,156.715965E-3
691.101837E-3,157.942772E-3
691.397667E-3,157.917023E-3
690.287590E-3,156.987762E-3
692.469406E-3,159.488297E-3
691.265488E-3,157.516479E-3
692.958641E-3,159.027100E-3
692.837334E-3,159.431648E-3
691.998482E-3,157.403183E-3
693.756866E-3,160.509682E-3
692.561531E-3,158.758736E-3
693.822670E-3,159.982109E-3
693.739128E-3,160.081100E-3
692.052269E-3,158.816528E-3
694.460106E-3,160.928535E-3
692.888260E-3,159.376144E-3
694.014931E-3,160.631561E-3
693.956566E-3,160.606956E-3
692.736626E-3,159.338379E-3
694.799423E-3,161.749649E-3
693.118858E-3,159.593010E-3
694.157982E-3,160.617828E-3
694.034386E-3,160.511398E-3
692.216492E-3,159.302902E-3
694.675827E-3,161.592293E-3
692.871666E-3,159.193039E-3
693.604660E-3,160.245323E-3
693.518257E-3,160.439873E-3
692.513466E-3,159.191322E-3
694.638634E-3,161.815453E-3
693.123436E-3,159.733200E-3
694.318199E-3,160.792351E-3
694.330788E-3,161.240959E-3
693.603516E-3,160.407829E-3
695.666885E-3,162.652588E-3
694.035530E-3,160.135460E-3
695.159340E-3,161.736488E-3
694.892120E-3,161.660957E-3
694.218063E-3,160.921669E-3
696.279144E-3,163.457680E-3
694.609451E-3,160.937691E-3
695.671463E-3,161.898422E-3
695.682335E-3,162.052917E-3
694.338799E-3,158.996773E-3
695.644569E-3,162.005424E-3
692.548943E-3,158.898926E-3
691.965866E-3,158.880615E-3
690.645790E-3,157.518196E-3
688.306618E-3,154.939270E-3
688.958359E-3,156.390953E-3
685.430145E-3,152.498245E-3
685.620689E-3,153.112221E-3
685.574913E-3,153.422356E-3
684.415054E-3,152.486801E-3
687.024307E-3,155.132675E-3
685.252190E-3,152.477074E-3
686.532211E-3,153.803444E-3
687.135315E-3,154.984474E-3
686.935043E-3,154.138756E-3
689.817810E-3,156.830406E-3
687.867737E-3,155.025673E-3
688.703156E-3,155.980110E-3
689.174652E-3,156.571198E-3
688.384438E-3,155.666542E-3
690.952492E-3,158.104706E-3
688.769531E-3,155.579567E-3
689.755440E-3,156.510544E-3
690.538788E-3,157.237244E-3
689.916229E-3,156.893921E-3
692.597008E-3,159.810448E-3
690.566254E-3,157.198906E-3
691.464615E-3,158.239746E-3
691.700935E-3,158.346176E-3
690.773964E-3,156.278801E-3
692.797852E-3,158.819962E-3
689.931679E-3,156.238174E-3
690.332222E-3,157.258987E-3
690.230370E-3,157.660103E-3
689.287949E-3,156.312561E-3
691.293526E-3,158.308983E-3
689.294243E-3,155.631065E-3
689.894485E-3,157.115364E-3
690.218353E-3,157.500458E-3
689.764023E-3,156.422424E-3
692.005348E-3,158.817101E-3
690.349388E-3,156.955147E-3
691.347885E-3,158.097839E-3
691.980743E-3,158.840561E-3
690.806580E-3,158.211708E-3
693.442726E-3,160.635567E-3
691.906357E-3,158.308983E-3
692.827034E-3,159.432220E-3
693.093681E-3,160.344887E-3
692.539215E-3,158.154488E-3
694.667816E-3,161.040115E-3
692.887688E-3,158.900070E-3
693.791199E-3,160.166359E-3
693.963432E-3,161.020660E-3
693.252754E-3,159.819603E-3
695.270348E-3,161.717033E-3
693.293381E-3,159.590721E-3
694.119644E-3,160.465050E-3
694.393730E-3,160.847282E-3
693.217278E-3,159.939766E-3
694.966507E-3,162.228584E-3
693.284225E-3,160.200691E-3
694.071007E-3,160.316277E-3
694.117928E-3,160.613251E-3
693.175507E-3,158.356476E-3
695.019150E-3,161.493874E-3
693.249321E-3,159.740067E-3
694.238663E-3,160.650444E-3
694.383430E-3,160.673332E-3
693.544006E-3,159.737778E-3
695.535851E-3,162.333870E-3
694.085884E-3,160.390663E-3
694.563103E-3,160.890198E-3
695.226860E-3,161.548233E-3
694.638062E-3,160.469055E-3
696.747208E-3,163.059425E-3
695.059776E-3,161.141968E-3
695.496368E-3,161.503029E-3
696.101189E-3,162.462616E-3
694.993973E-3,161.462402E-3
696.918297E-3,163.627625E-3
695.140457E-3,161.675262E-3
695.452881E-3,161.516190E-3
694.940186E-3,161.850929E-3
692.276573E-3,159.229088E-3
693.340302E-3,159.828186E-3
690.135956E-3,156.804657E-3
688.958931E-3,155.771255E-3
687.385368E-3,155.104065E-3
685.125160E-3,152.584648E-3
686.591148E-3,154.186821E-3
684.462547E-3,151.953506E-3
684.588432E-3,152.394104E-3
685.205841E-3,153.149414E-3
684.412766E-3,152.031326E-3
686.830902E-3,154.786491E-3
685.816383E-3,153.568840E-3
687.038040E-3,154.341888E-3
687.938118E-3,155.497742E-3
687.095261E-3,154.088402E-3
689.603806E-3,156.381226E-3
688.187027E-3,154.832840E-3
688.758087E-3,155.241966E-3
688.943481E-3,155.987549E-3
687.963867E-3,155.008507E-3
690.168571E-3,157.062149E-3
689.041328E-3,155.816460E-3
689.435005E-3,156.479645E-3
690.335655E-3,157.275581E-3
689.511681E-3,156.203270E-3
691.640854E-3,158.657455E-3
690.220070E-3,156.968880E-3
690.460968E-3,157.417488E-3
690.911865E-3,158.172226E-3
689.521408E-3,156.070518E-3
691.271782E-3,158.139038E-3
689.568901E-3,156.781197E-3
689.581490E-3,156.685066E-3
689.897346E-3,157.114220E-3
688.489151E-3,155.453110E-3
