Notes :


2023-11-06 ¿ÀÈÄ 11:04:55
Volts
Ch : LED 2,
441.225815E-3
441.057014E-3
440.956306E-3
440.815544E-3
440.610695E-3
440.542603E-3
440.349770E-3
440.231895E-3
440.266800E-3
440.111732E-3
440.044212E-3
439.970970E-3
439.956665E-3
439.889145E-3
439.763260E-3
439.701462E-3
439.768982E-3
439.661980E-3
439.617920E-3
439.538956E-3
439.507484E-3
439.569855E-3
439.504051E-3
439.464569E-3
439.392471E-3
439.399338E-3
439.334106E-3
439.212227E-3
439.255142E-3
439.294052E-3
439.224815E-3
439.276314E-3
439.181328E-3
439.177895E-3
439.067459E-3
439.042854E-3
439.097786E-3
439.035988E-3
439.001656E-3
438.910103E-3
438.799095E-3
438.706398E-3
438.729286E-3
438.662910E-3
438.545609E-3
438.506126E-3
438.438034E-3
438.309288E-3
438.433456E-3
438.434601E-3
438.682938E-3
439.136124E-3
439.974976E-3
440.745163E-3
441.415787E-3
442.138481E-3
442.639732E-3
442.991066E-3
443.392181E-3
443.447685E-3
443.631363E-3
443.352699E-3
443.093491E-3
442.878914E-3
442.599678E-3
442.400551E-3
442.319870E-3
442.141342E-3
442.093849E-3
441.964531E-3
441.934204E-3
442.012596E-3
442.114449E-3
442.188835E-3
442.101288E-3
442.040062E-3
441.896439E-3
441.752815E-3
441.482162E-3
441.415215E-3
441.510773E-3
441.547966E-3
441.558266E-3
441.641235E-3
441.679001E-3
441.732788E-3
441.831779E-3
441.860962E-3
441.884422E-3
441.876984E-3
441.871834E-3
441.728210E-3
441.565704E-3
441.511345E-3
441.323090E-3
441.221809E-3
441.294479E-3
441.044998E-3
440.928841E-3
440.881348E-3
440.730286E-3
440.666199E-3
440.503693E-3
440.531158E-3
440.376663E-3
440.417290E-3
440.335464E-3
440.198135E-3
440.237617E-3
440.148926E-3
440.076828E-3
440.082550E-3
440.014458E-3
439.974403E-3
439.983559E-3
440.007591E-3
439.924049E-3
439.862823E-3
439.834213E-3
439.763260E-3
439.858818E-3
439.839935E-3
439.710045E-3
439.752388E-3
439.695740E-3
439.644241E-3
439.624786E-3
439.564705E-3
439.558411E-3
439.536095E-3
439.565277E-3
439.517212E-3
439.409065E-3
439.397049E-3
439.267731E-3
439.117813E-3
439.066887E-3
438.939285E-3
438.891220E-3
438.721848E-3
438.776779E-3
438.724709E-3
438.686943E-3
438.823700E-3
439.067459E-3
439.554977E-3
440.278816E-3
440.996361E-3
441.858101E-3
442.374229E-3
442.858887E-3
443.358994E-3
443.602180E-3
443.700600E-3
443.566132E-3
443.497467E-3
443.382454E-3
443.112373E-3
442.941856E-3
442.673492E-3
442.553329E-3
442.431450E-3
442.367935E-3
442.338753E-3
442.321014E-3
442.458916E-3
442.299843E-3
442.404556E-3
442.454910E-3
442.426300E-3
442.225456E-3
442.191124E-3
441.957092E-3
441.875839E-3
441.788292E-3
441.833496E-3
441.926193E-3
441.923904E-3
442.022324E-3
442.042351E-3
442.050362E-3
442.121887E-3
442.142487E-3
442.136765E-3
442.189407E-3
442.038345E-3
441.948509E-3
441.842079E-3
441.779709E-3
441.567421E-3
441.449547E-3
441.377449E-3
441.215515E-3
441.198921E-3
441.057014E-3
440.934563E-3
440.853310E-3
440.733719E-3
440.725136E-3
440.651321E-3
440.578651E-3
440.583229E-3
440.495110E-3
440.485382E-3
440.432739E-3
440.369225E-3
440.339470E-3
440.264511E-3
440.250206E-3
440.259933E-3
440.116882E-3
440.163803E-3
440.068245E-3
440.093422E-3
440.071106E-3
439.944077E-3
439.962959E-3
439.908028E-3
439.997292E-3
439.843369E-3
439.887428E-3
439.869118E-3
439.743233E-3
439.832497E-3
439.723206E-3
439.583015E-3
439.633942E-3
439.447975E-3
439.408493E-3
439.312935E-3
439.226532E-3
439.240837E-3
439.109802E-3
439.112663E-3
439.043999E-3
438.949585E-3
438.978767E-3
438.995934E-3
438.987923E-3
439.266014E-3
439.838219E-3
440.508270E-3
441.185188E-3
441.901016E-3
442.573929E-3
443.035126E-3
443.452835E-3
443.492889E-3
443.654251E-3
443.638802E-3
443.478012E-3
443.249130E-3
442.934990E-3
442.710114E-3
442.431450E-3
442.284966E-3
442.211151E-3
442.085266E-3
442.027473E-3
442.104149E-3
442.087555E-3
442.169380E-3
442.029190E-3
442.025185E-3
441.844940E-3
441.628647E-3
441.584015E-3
441.539383E-3
441.495323E-3
441.501045E-3
441.562271E-3
441.618919E-3
441.608047E-3
441.870117E-3
441.869545E-3
441.939926E-3
441.960526E-3
441.935921E-3
441.919899E-3
441.875839E-3
441.726494E-3
441.692162E-3
441.544533E-3
441.466713E-3
441.369438E-3
441.210938E-3
441.086197E-3
440.891075E-3
440.833282E-3
440.715981E-3
440.638161E-3
440.586662E-3
440.497971E-3
440.432739E-3
440.390968E-3
440.275955E-3
440.203285E-3
440.103722E-3
440.120888E-3
440.055656E-3
440.015602E-3
439.962959E-3
439.863968E-3
439.832497E-3
439.833641E-3
439.785004E-3
439.711189E-3
439.715195E-3
439.718628E-3
439.642525E-3
439.575005E-3
439.664841E-3
439.617920E-3
439.575577E-3
439.497185E-3
439.345551E-3
439.461136E-3
439.370155E-3
439.312363E-3
439.249420E-3
439.141846E-3
439.086914E-3
439.033127E-3
438.942146E-3
439.010239E-3
438.780785E-3
438.739014E-3
438.728142E-3
438.637161E-3
438.594818E-3
438.530731E-3
438.621140E-3
438.852882E-3
439.365578E-3
440.026474E-3
440.736580E-3
441.448402E-3
442.115021E-3
442.715263E-3
443.122673E-3
443.214798E-3
443.421364E-3
443.281174E-3
443.264008E-3
443.087769E-3
442.811966E-3
442.623711E-3
442.271805E-3
442.123032E-3
442.064095E-3
442.063522E-3
441.948509E-3
442.061806E-3
441.983414E-3
442.023468E-3
442.014885E-3
442.045784E-3
441.923332E-3
441.831207E-3
441.616058E-3
441.554260E-3
441.438103E-3
441.396332E-3
441.431236E-3
441.511917E-3
441.516495E-3
441.602325E-3
441.665268E-3
441.755104E-3
441.839218E-3
441.705322E-3
441.781425E-3
441.748238E-3
441.721916E-3
441.666412E-3
441.523933E-3
441.478157E-3
441.185760E-3
441.095352E-3
440.939140E-3
440.802956E-3
440.805244E-3
440.651321E-3
440.617561E-3
440.481377E-3
440.273666E-3
440.306854E-3
440.250778E-3
440.206718E-3
440.199280E-3
440.099716E-3
440.064812E-3
439.985847E-3
439.934349E-3
439.908600E-3
439.863968E-3
439.948654E-3
439.851379E-3
439.872551E-3
439.804459E-3
439.787865E-3
439.802742E-3
439.762688E-3
439.768410E-3
439.756393E-3
439.581871E-3
439.593315E-3
439.543533E-3
439.538383E-3
439.455986E-3
439.371872E-3
439.377594E-3
439.151573E-3
439.233971E-3
439.265442E-3
439.199066E-3
439.214516E-3
439.072037E-3
438.996506E-3
438.939285E-3
438.836288E-3
438.939857E-3
438.793373E-3
438.685226E-3
438.648033E-3
438.644600E-3
438.724709E-3
438.899231E-3
439.235115E-3
439.850807E-3
440.582085E-3
441.325378E-3
442.033768E-3
442.651176E-3
443.165588E-3
443.440819E-3
443.696594E-3
443.744659E-3
443.684578E-3
443.717766E-3
443.314934E-3
443.095207E-3
442.829704E-3
442.694664E-3
442.520142E-3
442.433167E-3
442.531586E-3
442.462921E-3
442.546463E-3
442.588806E-3
442.577362E-3
442.581940E-3
442.552757E-3
442.453766E-3
442.345619E-3
441.966820E-3
441.962242E-3
441.816902E-3
441.879845E-3
441.946793E-3
441.888428E-3
441.989708E-3
441.978264E-3
441.985703E-3
442.076683E-3
442.050362E-3
442.028046E-3
441.983986E-3
441.978264E-3
441.931343E-3
441.832352E-3
441.821480E-3
441.621780E-3
441.459846E-3
441.358566E-3
441.174316E-3
441.148567E-3
441.045570E-3
440.969467E-3
440.888214E-3
440.857315E-3
440.848160E-3
440.625572E-3
440.654182E-3
440.659332E-3
440.646744E-3
440.617561E-3
440.505409E-3
440.402412E-3
440.343475E-3
440.370941E-3
440.401268E-3
440.298843E-3
440.226746E-3
440.200996E-3
440.143204E-3
440.117455E-3
440.083694E-3
440.045929E-3
439.940071E-3
440.043068E-3
439.976692E-3
439.882851E-3
439.807892E-3
439.832497E-3
439.778137E-3
439.806747E-3
439.688301E-3
439.668274E-3
439.751816E-3
439.665985E-3
439.612770E-3
439.498329E-3
439.512062E-3
439.427376E-3
439.394188E-3
439.336967E-3
439.236832E-3
439.148140E-3
439.102936E-3
438.997650E-3
439.043427E-3
438.909531E-3
438.904953E-3
438.906670E-3
439.088631E-3
439.651108E-3
440.228462E-3
441.074181E-3
441.794586E-3
442.398834E-3
442.999649E-3
443.475723E-3
443.696594E-3
443.649673E-3
443.623924E-3
443.627930E-3
443.444252E-3
443.193626E-3
442.991066E-3
442.751884E-3
442.617416E-3
442.416000E-3
442.316437E-3
442.247200E-3
442.206001E-3
442.322159E-3
442.295265E-3
442.255783E-3
442.272377E-3
442.197990E-3
442.161942E-3
442.089272E-3
441.824341E-3
441.768265E-3
441.722488E-3
441.831207E-3
441.883850E-3
441.935349E-3
441.910744E-3
441.933632E-3
442.066956E-3
442.101288E-3
442.068100E-3
442.086983E-3
441.996002E-3
441.890144E-3
441.773987E-3
441.615486E-3
441.467857E-3
441.421509E-3
441.340828E-3
441.165161E-3
441.007233E-3
440.929985E-3
440.821838E-3
440.785217E-3
440.766907E-3
440.687370E-3
440.629005E-3
440.480232E-3
440.449905E-3
440.404129E-3
440.449333E-3
440.341759E-3
440.353203E-3
440.334320E-3
440.168953E-3
440.229034E-3
440.211296E-3
440.138626E-3
440.099716E-3
440.081978E-3
440.000153E-3
440.057373E-3
439.913177E-3
439.907455E-3
439.851952E-3
439.811897E-3
439.763832E-3
439.613914E-3
439.568710E-3
439.528656E-3
439.492035E-3
439.497757E-3
439.369011E-3
439.355278E-3
439.270592E-3
439.153290E-3
439.116669E-3
439.007950E-3
439.043999E-3
438.910103E-3
438.816261E-3
438.758469E-3
438.715553E-3
438.664055E-3
438.610840E-3
438.589096E-3
438.538742E-3
438.728142E-3
439.122391E-3
439.789009E-3
440.402412E-3
441.121101E-3
441.695023E-3
442.401695E-3
442.779922E-3
443.036842E-3
443.236542E-3
443.168449E-3
442.989349E-3
442.794800E-3
442.672348E-3
442.359924E-3
442.097282E-3
442.001724E-3
441.801453E-3
441.646957E-3
441.696739E-3
441.787148E-3
441.703606E-3
441.614342E-3
441.583443E-3
441.607475E-3
441.539383E-3
441.424942E-3
441.134262E-3
441.007805E-3
441.048431E-3
440.955162E-3
440.987206E-3
440.934563E-3
441.046143E-3
441.130829E-3
441.218376E-3
441.263008E-3
441.220665E-3
441.214371E-3
441.222382E-3
441.188049E-3
441.142845E-3
441.082191E-3
440.980911E-3
440.934563E-3
440.631294E-3
440.552902E-3
440.398407E-3
440.187263E-3
440.156937E-3
440.025330E-3
440.011597E-3
439.857674E-3
439.730644E-3
439.720917E-3
439.654541E-3
439.638519E-3
439.502907E-3
439.415932E-3
439.448547E-3
439.355278E-3
439.346695E-3
439.318657E-3
439.283752E-3
439.272881E-3
439.290047E-3
439.253426E-3
439.193916E-3
439.146423E-3
439.082336E-3
439.090347E-3
439.163589E-3
439.204788E-3
439.101219E-3
439.040565E-3
438.980484E-3
438.939285E-3
438.829994E-3
438.827133E-3
438.809395E-3
438.773346E-3
438.793373E-3
438.748741E-3
438.737297E-3
438.740158E-3
438.581657E-3
438.491249E-3
438.419151E-3
438.379669E-3
438.321304E-3
438.121033E-3
438.129044E-3
438.048363E-3
438.031769E-3
438.058090E-3
437.954521E-3
438.152504E-3
438.507271E-3
439.068604E-3
439.936066E-3
440.586662E-3
441.364861E-3
441.936493E-3
442.467499E-3
442.838860E-3
442.932701E-3
443.068314E-3
443.067741E-3
442.866325E-3
442.758751E-3
442.484093E-3
442.221451E-3
442.044640E-3
441.902161E-3
441.827202E-3
441.780281E-3
441.784286E-3
441.786575E-3
441.768837E-3
441.896439E-3
441.855240E-3
441.894150E-3
441.715050E-3
441.669846E-3
441.365433E-3
441.226387E-3
441.293335E-3
441.168594E-3
441.170311E-3
441.320801E-3
441.249847E-3
441.309929E-3
441.276169E-3
441.358566E-3
441.436958E-3
441.400337E-3
441.388321E-3
441.376877E-3
441.319084E-3
441.261864E-3
441.068459E-3
441.005516E-3
440.736580E-3
440.707397E-3
440.586090E-3
440.470505E-3
440.416718E-3
440.256500E-3
440.169525E-3
440.139198E-3
439.969254E-3
439.933777E-3
439.920044E-3
439.879990E-3
439.797592E-3
439.739227E-3
439.683151E-3
439.583588E-3
439.545250E-3
439.550972E-3
439.468575E-3
439.523506E-3
439.528656E-3
439.385605E-3
439.360428E-3
439.285469E-3
439.284897E-3
439.220810E-3
439.168167E-3
439.091492E-3
439.127541E-3
439.148140E-3
439.101219E-3
439.054871E-3
439.143562E-3
439.036560E-3
438.953590E-3
438.938713E-3
439.029694E-3
439.012527E-3
438.829994E-3
438.842010E-3
438.795662E-3
438.825989E-3
438.722992E-3
438.650894E-3
438.605118E-3
438.489532E-3
438.385391E-3
438.442039E-3
438.288116E-3
438.248634E-3
438.228035E-3
438.149071E-3
438.303566E-3
438.355637E-3
438.724709E-3
439.312935E-3
440.041351E-3
440.780640E-3
441.421509E-3
442.110443E-3
442.553902E-3
442.815971E-3
443.088913E-3
443.153000E-3
443.082047E-3
442.950439E-3
442.727280E-3
442.477798E-3
442.223167E-3
442.123604E-3
441.876984E-3
441.776848E-3
441.814041E-3
441.768837E-3
441.750526E-3
441.848373E-3
441.883850E-3
441.819191E-3
441.804314E-3
441.799164E-3
441.601181E-3
441.352844E-3
441.208649E-3
441.193771E-3
441.214943E-3
441.222954E-3
441.224670E-3
441.368294E-3
441.319084E-3
441.431808E-3
441.451263E-3
441.506195E-3
441.503906E-3
441.398621E-3
441.380882E-3
441.267586E-3
441.210365E-3
440.956879E-3
440.844727E-3
440.756035E-3
440.743446E-3
440.568924E-3
440.499687E-3
440.280533E-3
440.259933E-3
440.183258E-3
440.163231E-3
440.117455E-3
440.012169E-3
439.978981E-3
439.895439E-3
439.874268E-3
439.826202E-3
439.709473E-3
439.660835E-3
439.640808E-3
439.531517E-3
439.680290E-3
439.576149E-3
439.549255E-3
439.480591E-3
439.484024E-3
439.373589E-3
439.269447E-3
439.363861E-3
439.334679E-3
439.259720E-3
439.288330E-3
439.210510E-3
439.157295E-3
439.156723E-3
439.121819E-3
439.116096E-3
438.982201E-3
439.078331E-3
439.005089E-3
438.926697E-3
438.914680E-3
438.811684E-3
438.807678E-3
438.747597E-3
438.638306E-3
438.530731E-3
438.482094E-3
438.419724E-3
438.330460E-3
438.273239E-3
438.229179E-3
438.175964E-3
438.393402E-3
438.645744E-3
439.090347E-3
439.724922E-3
440.393257E-3
441.052437E-3
441.674995E-3
442.089272E-3
442.525864E-3
442.600250E-3
442.682076E-3
442.588806E-3
442.428017E-3
442.251205E-3
441.994858E-3
441.773987E-3
441.513062E-3
441.249847E-3
441.091347E-3
441.039848E-3
441.064453E-3
440.956306E-3
440.910530E-3
440.959167E-3
440.937424E-3
440.880775E-3
440.769768E-3
440.719986E-3
440.480804E-3
440.286255E-3
440.246773E-3
440.318298E-3
440.342903E-3
440.436745E-3
440.538025E-3
440.646744E-3
440.641594E-3
440.606689E-3
440.666199E-3
440.687370E-3
440.670204E-3
440.685654E-3
440.552902E-3
440.277100E-3
440.229607E-3
440.139198E-3
440.035629E-3
439.938354E-3
439.838791E-3
439.659119E-3
439.637375E-3
439.576149E-3
439.430809E-3
439.323807E-3
439.175606E-3
439.145851E-3
439.084053E-3
438.929558E-3
438.986206E-3
438.916397E-3
438.800240E-3
438.758469E-3
438.630295E-3
438.624001E-3
438.592529E-3
438.535881E-3
438.446045E-3
438.447189E-3
438.405991E-3
438.203430E-3
438.271523E-3
438.161087E-3
438.145638E-3
438.153076E-3
438.130760E-3
438.096428E-3
438.104439E-3
438.018036E-3
437.984276E-3
437.981415E-3
437.904167E-3
437.849808E-3
437.785721E-3
437.852097E-3
437.763977E-3
437.806320E-3
437.729645E-3
437.596893E-3
437.808037E-3
437.531090E-3
437.405777E-3
437.239265E-3
437.169456E-3
437.105370E-3
437.010384E-3
437.210083E-3
437.141991E-3
437.328529E-3
437.880135E-3
438.581085E-3
439.348984E-3
440.043640E-3
440.601540E-3
441.201210E-3
441.733932E-3
441.909599E-3
441.979408E-3
441.949081E-3
441.761398E-3
441.583443E-3
441.442680E-3
441.352844E-3
441.049576E-3
