Notes :


2023-11-06 ¿ÀÈÄ 11:06:10
Volts
Ch : LED 2,
421.254730E-3
421.321678E-3
421.270180E-3
421.177483E-3
421.216965E-3
421.076202E-3
421.071625E-3
420.850182E-3
420.875931E-3
420.711708E-3
420.594406E-3
420.573235E-3
420.551491E-3
420.525742E-3
420.520592E-3
420.465088E-3
420.500565E-3
420.518303E-3
420.986366E-3
421.505356E-3
422.169113E-3
422.998810E-3
423.621941E-3
424.306297E-3
424.660492E-3
424.928284E-3
425.101089E-3
424.861336E-3
424.701691E-3
424.395561E-3
424.077415E-3
423.835945E-3
423.508072E-3
423.223686E-3
423.072624E-3
423.066330E-3
422.976494E-3
422.811127E-3
422.910690E-3
422.906113E-3
422.829437E-3
422.805405E-3
422.682381E-3
422.616005E-3
422.533607E-3
422.359085E-3
422.468376E-3
422.364235E-3
422.471809E-3
422.564507E-3
422.732735E-3
422.834587E-3
422.937012E-3
423.012543E-3
423.062325E-3
423.052025E-3
423.009682E-3
422.851181E-3
422.784805E-3
422.660637E-3
422.527313E-3
422.416878E-3
422.069550E-3
422.099304E-3
422.035217E-3
421.935081E-3
421.822357E-3
421.702194E-3
421.618080E-3
421.666145E-3
421.572876E-3
421.360016E-3
421.340561E-3
421.401787E-3
421.374321E-3
421.304512E-3
421.212387E-3
421.202087E-3
421.337700E-3
421.227264E-3
421.023560E-3
421.079636E-3
421.026993E-3
421.042442E-3
421.034431E-3
420.881081E-3
420.859909E-3
420.893669E-3
420.853043E-3
420.854759E-3
420.754623E-3
420.758057E-3
420.621300E-3
420.629311E-3
420.554924E-3
420.468521E-3
420.535469E-3
420.450211E-3
420.307732E-3
420.292854E-3
420.283699E-3
420.209885E-3
420.012474E-3
419.966125E-3
419.974136E-3
419.745255E-3
419.888878E-3
419.925499E-3
420.086861E-3
420.363808E-3
420.876503E-3
421.674156E-3
422.393990E-3
423.114395E-3
423.688889E-3
424.117470E-3
424.425316E-3
424.423027E-3
424.372101E-3
424.211311E-3
423.948669E-3
423.642540E-3
423.339272E-3
423.203659E-3
422.915840E-3
422.641182E-3
422.539330E-3
422.409439E-3
422.418594E-3
422.442055E-3
422.502708E-3
422.562790E-3
422.494698E-3
422.467804E-3
422.412300E-3
422.206879E-3
422.168541E-3
422.023201E-3
422.209167E-3
422.304153E-3
422.252083E-3
422.319603E-3
422.394562E-3
422.531891E-3
422.506142E-3
422.503853E-3
422.612572E-3
422.526741E-3
422.567940E-3
422.465515E-3
422.334480E-3
422.317314E-3
422.080994E-3
421.953392E-3
421.813202E-3
421.721649E-3
421.708488E-3
421.590614E-3
421.510506E-3
421.444130E-3
421.345139E-3
421.397209E-3
421.274185E-3
421.224976E-3
421.230698E-3
421.109390E-3
421.201515E-3
421.044731E-3
421.016693E-3
420.940018E-3
420.965767E-3
420.945168E-3
420.795822E-3
420.929718E-3
420.970917E-3
420.775795E-3
420.851898E-3
420.832443E-3
420.772934E-3
420.757484E-3
420.754051E-3
420.772934E-3
420.695114E-3
420.612144E-3
420.640182E-3
420.592117E-3
420.653343E-3
420.491409E-3
420.566940E-3
420.556641E-3
420.405579E-3
420.395279E-3
420.364380E-3
420.287704E-3
420.223045E-3
420.169258E-3
420.140076E-3
420.112610E-3
420.023918E-3
419.890022E-3
419.819641E-3
419.812775E-3
419.812202E-3
420.143509E-3
420.505714E-3
421.123695E-3
421.929359E-3
422.519302E-3
423.347855E-3
423.891449E-3
424.314880E-3
424.670219E-3
424.732018E-3
424.606705E-3
424.345207E-3
424.010468E-3
423.863411E-3
423.467445E-3
423.126411E-3
422.983360E-3
422.641754E-3
422.701263E-3
422.643471E-3
422.636032E-3
422.660637E-3
422.717285E-3
422.752762E-3
422.841454E-3
422.751045E-3
422.685814E-3
422.515869E-3
422.408295E-3
422.343063E-3
422.296715E-3
422.299576E-3
422.325897E-3
422.543335E-3
422.499847E-3
422.526741E-3
422.567368E-3
422.614288E-3
422.783661E-3
422.676659E-3
422.641754E-3
422.629738E-3
422.572517E-3
422.515869E-3
422.354507E-3
422.262955E-3
422.163963E-3
422.068405E-3
422.150230E-3
421.965408E-3
421.977997E-3
421.919632E-3
421.755981E-3
421.772575E-3
421.826363E-3
421.824646E-3
421.834946E-3
421.726799E-3
422.020340E-3
421.840668E-3
421.651268E-3
421.651840E-3
421.553993E-3
421.646118E-3
421.576881E-3
421.630669E-3
421.616936E-3
421.535683E-3
421.642685E-3
421.603203E-3
421.561432E-3
421.610641E-3
421.571732E-3
421.583176E-3
421.483612E-3
421.470451E-3
421.523666E-3
421.381187E-3
421.393776E-3
421.375465E-3
421.356010E-3
421.353149E-3
421.283340E-3
421.365166E-3
421.157455E-3
421.071053E-3
421.077347E-3
420.981789E-3
420.962334E-3
420.933151E-3
420.942307E-3
420.890236E-3
420.734024E-3
420.787239E-3
420.555496E-3
420.569801E-3
420.637321E-3
420.781517E-3
421.139717E-3
421.484756E-3
422.207451E-3
423.094940E-3
423.747826E-3
424.346352E-3
424.893379E-3
425.282478E-3
425.341988E-3
425.173759E-3
425.053024E-3
424.857903E-3
424.523163E-3
424.198723E-3
423.902321E-3
423.631096E-3
423.310661E-3
423.223686E-3
423.269463E-3
423.109245E-3
423.104668E-3
423.128700E-3
423.161888E-3
423.137283E-3
423.027420E-3
423.104668E-3
423.034286E-3
422.842598E-3
422.771072E-3
422.744179E-3
422.914124E-3
422.856903E-3
423.017120E-3
423.044586E-3
423.038864E-3
423.125839E-3
423.138428E-3
423.260880E-3
423.224258E-3
423.084641E-3
423.104095E-3
423.019981E-3
422.922134E-3
422.748756E-3
422.645187E-3
422.637749E-3
422.431183E-3
422.238922E-3
422.377396E-3
422.157097E-3
422.064972E-3
421.998596E-3
421.959686E-3
421.941376E-3
421.778297E-3
421.916199E-3
421.813774E-3
421.532822E-3
421.588326E-3
421.592331E-3
421.679878E-3
421.519661E-3
421.490479E-3
421.536255E-3
421.576881E-3
421.469879E-3
421.533394E-3
421.648407E-3
421.584892E-3
421.486473E-3
421.519661E-3
421.467590E-3
421.446419E-3
421.511078E-3
421.375465E-3
421.423531E-3
421.280479E-3
421.206093E-3
421.272469E-3
421.215248E-3
421.067619E-3
420.974350E-3
421.029854E-3
421.033287E-3
420.890808E-3
420.839882E-3
420.788383E-3
420.790672E-3
420.654488E-3
420.546341E-3
420.555496E-3
420.606995E-3
420.469093E-3
420.453644E-3
420.516014E-3
420.780945E-3
421.117973E-3
421.740532E-3
422.511292E-3
423.122406E-3
423.811340E-3
424.263954E-3
424.610710E-3
424.780655E-3
424.659348E-3
424.567795E-3
424.357224E-3
424.031639E-3
423.706055E-3
423.381042E-3
423.252869E-3
422.889519E-3
422.647476E-3
422.566795E-3
422.509003E-3
422.450066E-3
422.432899E-3
422.470093E-3
422.434616E-3
422.376823E-3
422.305870E-3
422.192574E-3
422.056961E-3
422.065544E-3
422.031784E-3
422.116470E-3
422.149658E-3
422.161102E-3
422.352219E-3
422.446060E-3
422.549057E-3
422.582817E-3
422.573662E-3
422.562790E-3
422.495842E-3
422.497559E-3
422.345352E-3
422.353363E-3
422.330475E-3
422.099304E-3
422.013474E-3
421.818352E-3
421.734810E-3
421.523094E-3
421.493912E-3
421.512794E-3
421.361732E-3
421.362305E-3
421.355438E-3
421.275330E-3
421.341133E-3
421.297073E-3
421.250725E-3
421.274757E-3
421.227837E-3
421.256447E-3
421.129417E-3
421.147156E-3
421.093941E-3
421.098518E-3
421.110535E-3
421.138000E-3
421.088219E-3
421.003532E-3
420.973778E-3
421.088791E-3
421.003532E-3
421.037292E-3
420.996094E-3
420.898247E-3
420.911407E-3
420.831871E-3
420.820999E-3
420.808411E-3
420.751190E-3
420.763206E-3
420.691681E-3
420.754051E-3
420.740891E-3
420.635605E-3
420.582962E-3
420.569229E-3
420.503998E-3
420.438194E-3
420.452499E-3
420.364380E-3
420.205307E-3
420.243645E-3
420.479393E-3
420.222473E-3
420.241928E-3
420.269966E-3
420.516014E-3
421.045303E-3
421.665001E-3
422.393990E-3
423.121834E-3
423.671722E-3
424.275970E-3
424.618721E-3
424.830437E-3
424.804687E-3
424.609566E-3
424.456787E-3
424.135780E-3
423.861694E-3
423.564148E-3
423.350143E-3
423.158455E-3
423.110390E-3
422.973061E-3
422.969055E-3
423.022842E-3
423.036003E-3
423.031425E-3
423.140144E-3
423.185349E-3
423.134995E-3
422.981071E-3
422.832298E-3
422.781372E-3
422.729874E-3
422.565079E-3
422.717857E-3
422.775650E-3
422.831726E-3
422.882652E-3
422.937584E-3
423.096085E-3
423.093224E-3
423.175049E-3
422.933578E-3
423.081207E-3
422.973061E-3
422.801399E-3
422.873497E-3
422.717857E-3
422.558784E-3
422.507286E-3
422.368240E-3
422.383118E-3
422.148514E-3
422.048950E-3
422.043228E-3
421.963120E-3
421.895599E-3
421.899605E-3
421.914482E-3
421.844673E-3
421.930504E-3
421.848679E-3
421.762848E-3
421.757126E-3
421.718216E-3
421.632385E-3
421.754837E-3
421.684456E-3
421.689606E-3
421.551704E-3
421.636963E-3
421.577454E-3
421.587181E-3
421.660995E-3
421.689034E-3
421.557426E-3
421.553993E-3
421.657562E-3
421.511078E-3
421.467018E-3
421.413803E-3
421.523094E-3
421.394348E-3
421.269608E-3
421.353722E-3
421.309662E-3
421.337700E-3
421.283913E-3
421.247864E-3
421.295357E-3
421.069336E-3
421.067047E-3
420.978928E-3
420.965767E-3
420.978355E-3
420.860481E-3
420.868492E-3
420.855904E-3
420.814705E-3
420.855331E-3
420.867348E-3
421.119118E-3
421.537399E-3
422.036362E-3
422.812843E-3
423.568153E-3
424.262810E-3
424.808121E-3
425.174904E-3
425.339127E-3
425.200653E-3
425.141144E-3
424.977493E-3
424.682236E-3
424.344635E-3
424.106598E-3
423.952103E-3
423.699188E-3
423.505783E-3
423.482323E-3
423.464584E-3
423.494339E-3
423.430252E-3
423.454857E-3
423.541832E-3
423.481178E-3
423.370743E-3
423.315239E-3
423.136711E-3
423.117828E-3
423.302078E-3
423.141861E-3
423.237991E-3
423.243141E-3
423.322678E-3
423.361015E-3
423.463440E-3
423.414803E-3
423.488045E-3
423.679733E-3
423.470306E-3
423.424530E-3
423.347855E-3
423.239708E-3
423.161316E-3
423.000526E-3
422.995949E-3
422.877502E-3
422.809982E-3
422.654915E-3
422.550201E-3
422.533035E-3
422.396851E-3
422.291565E-3
422.320175E-3
422.381973E-3
422.376823E-3
422.320175E-3
422.169113E-3
422.118187E-3
422.078705E-3
422.139931E-3
422.098732E-3
422.152519E-3
422.252083E-3
422.138786E-3
422.094154E-3
422.040367E-3
422.086143E-3
422.087288E-3
421.992874E-3
422.020912E-3
421.961975E-3
422.250366E-3
422.041512E-3
421.773148E-3
421.905899E-3
421.876717E-3
421.781731E-3
421.835518E-3
421.840668E-3
421.733093E-3
421.834946E-3
421.683884E-3
421.750259E-3
421.572304E-3
421.493340E-3
421.499062E-3
421.480751E-3
421.391487E-3
421.235847E-3
420.981216E-3
421.108246E-3
421.152878E-3
421.138000E-3
421.170616E-3
421.494484E-3
421.904182E-3
422.463799E-3
423.139000E-3
423.989296E-3
424.519730E-3
424.847031E-3
425.146866E-3
425.292206E-3
425.255585E-3
425.122833E-3
425.122261E-3
424.707413E-3
424.566078E-3
424.128342E-3
423.914909E-3
423.670578E-3
423.556709E-3
423.501778E-3
423.403358E-3
423.419380E-3
423.359871E-3
423.405647E-3
423.459435E-3
423.365593E-3
423.262024E-3
423.039436E-3
422.980499E-3
422.939873E-3
422.962761E-3
423.071480E-3
423.112106E-3
423.130417E-3
423.213387E-3
423.325539E-3
423.418236E-3
423.480606E-3
423.441696E-3
423.657990E-3
423.480606E-3
423.298645E-3
423.353577E-3
423.228836E-3
423.137283E-3
422.920418E-3
422.754478E-3
422.725868E-3
422.592545E-3
422.597122E-3
422.428322E-3
422.467804E-3
422.341347E-3
422.307014E-3
422.323036E-3
422.129631E-3
422.155380E-3
421.961975E-3
422.111320E-3
422.079849E-3
422.012329E-3
422.058105E-3
422.038078E-3
422.028923E-3
422.040367E-3
422.016335E-3
421.911049E-3
421.957970E-3
421.915627E-3
422.027206E-3
421.944237E-3
421.990013E-3
421.915054E-3
421.643829E-3
421.729088E-3
421.785736E-3
421.805191E-3
421.773720E-3
421.745110E-3
421.727943E-3
421.599770E-3
421.687317E-3
421.732521E-3
421.669579E-3
421.668434E-3
421.669579E-3
421.599197E-3
421.445274E-3
421.424103E-3
421.360588E-3
421.243286E-3
421.311378E-3
421.238136E-3
421.161461E-3
421.170044E-3
421.089935E-3
421.310806E-3
421.590614E-3
422.072411E-3
422.686386E-3
423.487473E-3
424.155235E-3
424.738312E-3
425.205231E-3
425.473595E-3
425.604630E-3
425.596046E-3
425.486755E-3
425.328255E-3
425.178909E-3
424.806404E-3
424.548340E-3
424.397850E-3
424.209595E-3
424.054527E-3
423.953819E-3
424.013901E-3
424.023628E-3
423.981285E-3
424.078560E-3
424.136925E-3
424.161530E-3
424.119759E-3
424.000168E-3
423.962975E-3
423.744965E-3
423.756981E-3
423.746109E-3
423.793602E-3
423.803902E-3
423.825073E-3
423.893166E-3
423.972702E-3
423.972130E-3
423.849678E-3
423.989296E-3
424.048233E-3
423.972702E-3
423.945236E-3
423.847389E-3
423.664284E-3
423.658562E-3
423.524094E-3
423.560143E-3
423.336983E-3
423.179054E-3
423.163033E-3
423.086357E-3
422.960472E-3
422.939301E-3
422.767639E-3
422.879219E-3
422.875214E-3
422.697258E-3
422.674370E-3
422.651482E-3
422.723579E-3
422.575951E-3
422.574234E-3
422.644615E-3
422.496986E-3
422.472382E-3
422.460365E-3
422.446632E-3
422.402000E-3
422.395134E-3
422.381401E-3
422.400284E-3
422.325897E-3
422.340775E-3
422.066689E-3
422.235489E-3
422.315025E-3
422.261810E-3
422.192001E-3
422.188568E-3
422.249222E-3
422.135353E-3
422.074699E-3
422.173119E-3
422.024345E-3
422.051239E-3
421.943665E-3
421.904182E-3
421.912766E-3
421.893883E-3
421.807480E-3
421.741104E-3
421.653557E-3
421.644974E-3
421.608925E-3
421.620369E-3
421.592331E-3
421.505928E-3
421.539688E-3
421.682167E-3
421.863556E-3
422.359085E-3
422.840309E-3
423.590469E-3
424.155807E-3
424.849892E-3
425.337410E-3
425.664711E-3
425.886726E-3
425.857544E-3
425.781441E-3
425.638390E-3
425.401497E-3
425.184059E-3
424.911118E-3
424.662781E-3
424.484253E-3
424.310875E-3
424.364090E-3
424.178123E-3
424.289703E-3
424.269104E-3
424.259949E-3
424.376106E-3
424.405861E-3
424.430466E-3
424.449348E-3
424.152374E-3
424.072266E-3
423.942947E-3
423.970985E-3
423.983574E-3
424.012184E-3
424.182129E-3
424.128342E-3
424.358940E-3
424.306297E-3
424.369812E-3
424.401283E-3
424.403572E-3
424.342918E-3
424.267387E-3
424.172401E-3
424.004745E-3
424.082565E-3
423.916626E-3
423.769569E-3
423.647118E-3
423.580742E-3
423.476028E-3
423.443413E-3
423.537827E-3
423.294640E-3
423.255730E-3
423.156166E-3
423.165321E-3
423.120117E-3
423.100662E-3
423.080063E-3
422.979355E-3
422.744751E-3
422.843742E-3
422.847176E-3
422.907829E-3
422.845459E-3
422.918129E-3
422.844315E-3
422.846603E-3
422.849464E-3
422.681808E-3
422.694397E-3
422.776222E-3
422.672653E-3
422.686386E-3
422.677231E-3
422.692108E-3
422.676659E-3
422.642899E-3
422.440910E-3
422.416878E-3
422.431755E-3
422.463226E-3
422.513580E-3
422.481537E-3
422.416878E-3
422.364807E-3
422.294426E-3
422.085571E-3
422.159958E-3
422.152519E-3
422.062111E-3
422.034073E-3
422.031212E-3
422.095871E-3
422.017479E-3
421.973419E-3
421.850967E-3
421.972847E-3
422.367096E-3
422.793388E-3
423.454285E-3
424.120903E-3
424.646187E-3
425.182343E-3
425.558853E-3
425.950813E-3
425.955391E-3
425.872421E-3
425.773430E-3
425.521088E-3
425.312233E-3
425.062752E-3
424.737740E-3
424.520302E-3
424.287415E-3
424.252510E-3
424.159241E-3
424.150085E-3
424.132919E-3
424.079704E-3
424.161530E-3
424.099159E-3
423.977280E-3
423.858261E-3
423.660851E-3
423.656845E-3
423.631096E-3
423.671722E-3
423.734093E-3
423.732376E-3
423.684311E-3
423.999023E-3
424.041939E-3
424.111748E-3
424.067688E-3
424.119759E-3
424.119186E-3
424.059677E-3
423.937798E-3
423.804474E-3
423.688889E-3
423.568726E-3
423.413086E-3
