Notes :


2023-11-13 ¿ÀÀü 12:52:08
Volts
Ch : LED 2,
902.734566E-3
902.387810E-3
902.018738E-3
901.976967E-3
901.781273E-3
901.738358E-3
901.607895E-3
901.373863E-3
901.407051E-3
901.579285E-3
901.276588E-3
901.162720E-3
901.044273E-3
900.964737E-3
900.837708E-3
900.706100E-3
900.741577E-3
900.533295E-3
900.280380E-3
900.168800E-3
900.172806E-3
900.325584E-3
900.105858E-3
900.147629E-3
899.887276E-3
899.772835E-3
899.667549E-3
899.206924E-3
899.322510E-3
899.188042E-3
898.944283E-3
898.687363E-3
898.452187E-3
898.295975E-3
898.059654E-3
897.893143E-3
897.899437E-3
898.289680E-3
899.497032E-3
901.371574E-3
903.878403E-3
906.777763E-3
909.554672E-3
912.302971E-3
914.235306E-3
915.675545E-3
916.592216E-3
916.794777E-3
916.847420E-3
916.530418E-3
915.958214E-3
915.313911E-3
914.246178E-3
913.890839E-3
913.255692E-3
912.726974E-3
912.401390E-3
912.068367E-3
911.997986E-3
912.077522E-3
911.967659E-3
912.059212E-3
911.879539E-3
911.920738E-3
911.536789E-3
911.092758E-3
910.386086E-3
909.836769E-3
909.538651E-3
909.218216E-3
909.159851E-3
909.090614E-3
909.110069E-3
909.340096E-3
909.515762E-3
909.654236E-3
909.923744E-3
909.852219E-3
909.887695E-3
909.663391E-3
909.560966E-3
909.312057E-3
908.921242E-3
908.654594E-3
908.310127E-3
907.894135E-3
907.733917E-3
907.198334E-3
906.626701E-3
906.499672E-3
906.338882E-3
906.286812E-3
905.935478E-3
905.860519E-3
905.572701E-3
905.295181E-3
905.204201E-3
904.993629E-3
904.922104E-3
904.681206E-3
904.417419E-3
904.389954E-3
904.240036E-3
904.181099E-3
904.261780E-3
903.860092E-3
903.734207E-3
903.526497E-3
903.544235E-3
903.480148E-3
903.388596E-3
903.330231E-3
903.130531E-3
903.353119E-3
903.084183E-3
902.937698E-3
902.814674E-3
902.536583E-3
902.493095E-3
902.355766E-3
902.105713E-3
902.031898E-3
901.405334E-3
901.510620E-3
901.175880E-3
900.892067E-3
900.746727E-3
900.421715E-3
900.174522E-3
900.002861E-3
900.008583E-3
900.197983E-3
901.159286E-3
903.092194E-3
905.443954E-3
908.048058E-3
910.826683E-3
913.134384E-3
914.945412E-3
916.090965E-3
916.712379E-3
917.061996E-3
916.731262E-3
916.522980E-3
915.759659E-3
914.959145E-3
914.247894E-3
913.494873E-3
912.955856E-3
912.525558E-3
912.056351E-3
911.737633E-3
911.458969E-3
911.523628E-3
911.331940E-3
911.306190E-3
911.149406E-3
910.689926E-3
910.215569E-3
909.461975E-3
908.905792E-3
908.489227E-3
908.186531E-3
908.106422E-3
908.192253E-3
908.397675E-3
908.571053E-3
908.750725E-3
909.022522E-3
909.031105E-3
909.005356E-3
909.060287E-3
908.902359E-3
908.753586E-3
908.108711E-3
907.888985E-3
907.474136E-3
907.074738E-3
906.708527E-3
906.193542E-3
905.719185E-3
905.366135E-3
905.046272E-3
905.001640E-3
904.374504E-3
904.133034E-3
903.994560E-3
903.612900E-3
903.530502E-3
903.217506E-3
903.033829E-3
902.870750E-3
902.388954E-3
902.398682E-3
902.255058E-3
902.202415E-3
902.062225E-3
901.896286E-3
901.875114E-3
901.683998E-3
901.627350E-3
901.285172E-3
901.427650E-3
901.475716E-3
901.475143E-3
901.320076E-3
901.266289E-3
901.085472E-3
901.279449E-3
901.031113E-3
900.791931E-3
900.723839E-3
900.332451E-3
900.170517E-3
899.801445E-3
899.525070E-3
899.247551E-3
899.077034E-3
898.776627E-3
898.543739E-3
898.336601E-3
898.586655E-3
899.553108E-3
901.536369E-3
903.774834E-3
906.529427E-3
909.485435E-3
911.821175E-3
913.925171E-3
915.330505E-3
916.043472E-3
916.453171E-3
916.299248E-3
915.947914E-3
915.541649E-3
914.867592E-3
914.145470E-3
913.378716E-3
912.994194E-3
912.557030E-3
912.225151E-3
912.146759E-3
912.011147E-3
912.143898E-3
912.485504E-3
912.108994E-3
912.162781E-3
911.984825E-3
911.819458E-3
911.418343E-3
910.583496E-3
910.075378E-3
909.496307E-3
909.558105E-3
909.266853E-3
909.186745E-3
909.263420E-3
909.365845E-3
909.529495E-3
909.627914E-3
909.849930E-3
909.851646E-3
909.684563E-3
909.810448E-3
909.424210E-3
909.077454E-3
908.920670E-3
908.315849E-3
907.989693E-3
907.641792E-3
907.202339E-3
906.806374E-3
906.423569E-3
906.168365E-3
905.920029E-3
905.595589E-3
905.486870E-3
905.272865E-3
905.259132E-3
904.907799E-3
904.577065E-3
904.415131E-3
903.993416E-3
903.924751E-3
903.726196E-3
903.567123E-3
903.461838E-3
903.134537E-3
903.243256E-3
903.176308E-3
903.001785E-3
903.038406E-3
902.843285E-3
902.915382E-3
902.781487E-3
902.599525E-3
902.915382E-3
902.612114E-3
902.552605E-3
902.356339E-3
902.133751E-3
902.165794E-3
901.893997E-3
901.711464E-3
901.401901E-3
900.634575E-3
900.642586E-3
900.290108E-3
900.176811E-3
900.020027E-3
899.832916E-3
899.934196E-3
900.245476E-3
901.448250E-3
903.202057E-3
905.640793E-3
908.445740E-3
911.042404E-3
913.318634E-3
915.050125E-3
916.179657E-3
916.402817E-3
916.809082E-3
916.861725E-3
916.546440E-3
916.073227E-3
915.538216E-3
914.782333E-3
914.315414E-3
913.804436E-3
913.037109E-3
913.187599E-3
913.185310E-3
913.155556E-3
913.171577E-3
913.142395E-3
913.318634E-3
913.195610E-3
913.039970E-3
912.361908E-3
912.086105E-3
911.398315E-3
910.790634E-3
910.388947E-3
910.213280E-3
910.228729E-3
910.343742E-3
910.458183E-3
910.954285E-3
911.038971E-3
911.110497E-3
911.059570E-3
911.013794E-3
910.930824E-3
910.778046E-3
910.566330E-3
910.250473E-3
909.358978E-3
909.360695E-3
909.118652E-3
908.793640E-3
908.592796E-3
908.144760E-3
908.102989E-3
907.737350E-3
907.474136E-3
907.765388E-3
907.237244E-3
907.000923E-3
906.757736E-3
906.576920E-3
906.498528E-3
906.192398E-3
906.225014E-3
906.041908E-3
905.842781E-3
905.741501E-3
905.613899E-3
905.615044E-3
905.445099E-3
905.302620E-3
905.260277E-3
905.226517E-3
905.235100E-3
905.120659E-3
905.129242E-3
905.105209E-3
904.882622E-3
904.844856E-3
904.824257E-3
904.669189E-3
904.801941E-3
904.406548E-3
904.234886E-3
903.886414E-3
903.564835E-3
903.331947E-3
903.024101E-3
902.885628E-3
902.637863E-3
902.353477E-3
902.536583E-3
902.792931E-3
903.941917E-3
905.620193E-3
907.965660E-3
910.585213E-3
913.013077E-3
915.236092E-3
917.083168E-3
918.017578E-3
918.584633E-3
918.609238E-3
918.543434E-3
918.074226E-3
917.452240E-3
916.908073E-3
916.189384E-3
915.545082E-3
915.134811E-3
914.584923E-3
914.504242E-3
914.369202E-3
914.388657E-3
914.422989E-3
914.516258E-3
914.432144E-3
914.223862E-3
914.051628E-3
913.546371E-3
912.804794E-3
912.398529E-3
911.793709E-3
911.692429E-3
911.414337E-3
911.589432E-3
911.888695E-3
912.099838E-3
912.410545E-3
912.567902E-3
912.718964E-3
912.794495E-3
912.622833E-3
912.601089E-3
912.240601E-3
911.935616E-3
911.558533E-3
911.079597E-3
910.794640E-3
910.417557E-3
909.964943E-3
909.749794E-3
909.321785E-3
909.110641E-3
908.829117E-3
908.464050E-3
908.480644E-3
908.184814E-3
908.010864E-3
907.761383E-3
907.416916E-3
907.387161E-3
907.120514E-3
906.948853E-3
906.923103E-3
906.586647E-3
906.570625E-3
906.361771E-3
906.222725E-3
906.122017E-3
905.857086E-3
905.893135E-3
905.795288E-3
905.764961E-3
905.659676E-3
905.506325E-3
905.572128E-3
905.172157E-3
905.098343E-3
904.903793E-3
904.595947E-3
904.500961E-3
904.169083E-3
903.766251E-3
903.573418E-3
903.219223E-3
902.635002E-3
902.528000E-3
902.406120E-3
902.334023E-3
902.551460E-3
903.434372E-3
904.977608E-3
907.346535E-3
909.890556E-3
912.543869E-3
914.683914E-3
916.332436E-3
917.503166E-3
918.061638E-3
918.247032E-3
918.208694E-3
917.784691E-3
917.258835E-3
916.878891E-3
916.056633E-3
915.518761E-3
914.947128E-3
914.542007E-3
914.412117E-3
914.140320E-3
914.152336E-3
914.023018E-3
914.182091E-3
914.143753E-3
913.925743E-3
913.825607E-3
913.318062E-3
912.806511E-3
912.105560E-3
911.575699E-3
911.305046E-3
911.375999E-3
911.180878E-3
911.285591E-3
911.195183E-3
911.513901E-3
911.543655E-3
911.769676E-3
911.834335E-3
911.610031E-3
911.567116E-3
911.265564E-3
911.112785E-3
910.681915E-3
910.229301E-3
910.055923E-3
909.549522E-3
909.661674E-3
908.972740E-3
908.435440E-3
908.332443E-3
908.002853E-3
907.757378E-3
907.515907E-3
907.279015E-3
907.188034E-3
906.492233E-3
906.616402E-3
906.499672E-3
906.255341E-3
906.306839E-3
905.933762E-3
905.922318E-3
905.708313E-3
905.483437E-3
905.812454E-3
905.316353E-3
905.200195E-3
905.263710E-3
904.924965E-3
904.907799E-3
904.767609E-3
904.687500E-3
904.733276E-3
904.640007E-3
904.692650E-3
904.366493E-3
904.312134E-3
904.111862E-3
903.884697E-3
903.805733E-3
903.526497E-3
903.192902E-3
902.976036E-3
902.653313E-3
902.491951E-3
902.136612E-3
901.835632E-3
901.674843E-3
901.694870E-3
902.154922E-3
903.135109E-3
904.954720E-3
907.323074E-3
910.084534E-3
912.813950E-3
914.911079E-3
916.625404E-3
917.828178E-3
918.205833E-3
918.678474E-3
918.347168E-3
918.090248E-3
917.515182E-3
916.946411E-3
916.598511E-3
916.083527E-3
915.708733E-3
915.697861E-3
915.337944E-3
915.194893E-3
915.174294E-3
915.279579E-3
915.407181E-3
915.355682E-3
915.458679E-3
915.365982E-3
915.303612E-3
914.587212E-3
913.922310E-3
913.332367E-3
912.755585E-3
912.435722E-3
912.246323E-3
912.218857E-3
912.364769E-3
912.352180E-3
912.585068E-3
912.717247E-3
912.685776E-3
912.718391E-3
912.554741E-3
912.433434E-3
912.106133E-3
911.826324E-3
911.813164E-3
911.335373E-3
910.858727E-3
910.412407E-3
910.048485E-3
909.826469E-3
909.455109E-3
909.295464E-3
909.041977E-3
908.457756E-3
908.481216E-3
908.139038E-3
908.117867E-3
907.862663E-3
907.758522E-3
907.625771E-3
907.256126E-3
907.184601E-3
907.016373E-3
906.682777E-3
906.666183E-3
906.514549E-3
906.405830E-3
906.314850E-3
905.954361E-3
905.968094E-3
905.900574E-3
905.797005E-3
905.742645E-3
905.795860E-3
905.778122E-3
905.761528E-3
905.558395E-3
905.478287E-3
905.504608E-3
905.474281E-3
905.136108E-3
904.990768E-3
904.811096E-3
904.506683E-3
904.408264E-3
904.070091E-3
903.896713E-3
903.271866E-3
903.222084E-3
903.080177E-3
902.894211E-3
902.960014E-3
903.091049E-3
903.834915E-3
905.414772E-3
907.542229E-3
909.820175E-3
912.764168E-3
915.075874E-3
917.003632E-3
918.199539E-3
919.116783E-3
919.287300E-3
919.186020E-3
918.953133E-3
918.394089E-3
917.966652E-3
917.511749E-3
916.892052E-3
916.596794E-3
916.198540E-3
916.006279E-3
915.987968E-3
916.004562E-3
915.807152E-3
915.953064E-3
916.095543E-3
916.124725E-3
915.980530E-3
915.593719E-3
915.031242E-3
914.333153E-3
913.795853E-3
913.443375E-3
913.234520E-3
913.068008E-3
913.187599E-3
913.418198E-3
913.619614E-3
913.867378E-3
914.095688E-3
914.093971E-3
913.987541E-3
913.752937E-3
913.726044E-3
913.392448E-3
913.089752E-3
912.871170E-3
912.511253E-3
911.813736E-3
911.682701E-3
911.613464E-3
911.393166E-3
911.047554E-3
910.951424E-3
910.611534E-3
910.446167E-3
910.335159E-3
909.691429E-3
909.902000E-3
909.552956E-3
909.472275E-3
909.480286E-3
909.325790E-3
909.294319E-3
908.965874E-3
908.936119E-3
908.375359E-3
908.586502E-3
908.568764E-3
908.425140E-3
908.385086E-3
908.337593E-3
908.204269E-3
908.250046E-3
908.140755E-3
907.748795E-3
908.040047E-3
907.858658E-3
908.001709E-3
907.656670E-3
907.660103E-3
907.416344E-3
907.134247E-3
907.002640E-3
906.677055E-3
906.355476E-3
906.114578E-3
905.830765E-3
905.642509E-3
905.408478E-3
905.252838E-3
905.391884E-3
905.286598E-3
905.710602E-3
906.813240E-3
908.686066E-3
911.055565E-3
913.395309E-3
915.763092E-3
917.515182E-3
918.614960E-3
919.551659E-3
919.857788E-3
919.937897E-3
919.604301E-3
919.132805E-3
918.574905E-3
918.032455E-3
917.475128E-3
916.992760E-3
916.538429E-3
916.258049E-3
916.063499E-3
916.199112E-3
916.111565E-3
916.258621E-3
916.294670E-3
916.231155E-3
915.736198E-3
915.406609E-3
914.832115E-3
914.403534E-3
913.712311E-3
913.408470E-3
913.055992E-3
913.059998E-3
913.171005E-3
913.207054E-3
913.564110E-3
913.775826E-3
913.823318E-3
913.845634E-3
913.773537E-3
913.558388E-3
913.204765E-3
912.943840E-3
912.979889E-3
912.318993E-3
911.881828E-3
911.445236E-3
911.022949E-3
910.873032E-3
910.506821E-3
910.176659E-3
909.810448E-3
909.582138E-3
909.346390E-3
909.107780E-3
908.996773E-3
908.602524E-3
908.557892E-3
908.383942E-3
908.442879E-3
908.131027E-3
907.820320E-3
907.765388E-3
907.530212E-3
907.275009E-3
907.181168E-3
906.911659E-3
906.962013E-3
907.155418E-3
906.829834E-3
906.822968E-3
906.508255E-3
906.485939E-3
906.446457E-3
906.244469E-3
906.244469E-3
906.172943E-3
906.150627E-3
905.862236E-3
905.427361E-3
905.293465E-3
904.994774E-3
904.631424E-3
904.417419E-3
904.004860E-3
903.974533E-3
903.443527E-3
903.441811E-3
903.520203E-3
903.858376E-3
904.921532E-3
906.583786E-3
908.924103E-3
911.516190E-3
914.005280E-3
916.165352E-3
917.667961E-3
918.689346E-3
919.268990E-3
919.154549E-3
919.151688E-3
918.688202E-3
918.262482E-3
917.848206E-3
917.086601E-3
916.874313E-3
916.551590E-3
916.255188E-3
916.175079E-3
916.084671E-3
916.195679E-3
916.244888E-3
916.351318E-3
916.509819E-3
916.395950E-3
916.276360E-3
915.836334E-3
915.206337E-3
914.578056E-3
913.855934E-3
913.172150E-3
913.002205E-3
912.906647E-3
912.960434E-3
912.969017E-3
913.211632E-3
913.287163E-3
913.397598E-3
913.353539E-3
913.273430E-3
913.346672E-3
913.012505E-3
912.835693E-3
912.496376E-3
912.137032E-3
911.842918E-3
911.489868E-3
911.215210E-3
911.365128E-3
910.650444E-3
910.182953E-3
909.876251E-3
909.705162E-3
909.584427E-3
909.364128E-3
909.163857E-3
908.949280E-3
908.743858E-3
908.611679E-3
908.239746E-3
908.217430E-3
907.896423E-3
907.652092E-3
907.616615E-3
907.395744E-3
907.406616E-3
907.495308E-3
907.146263E-3
907.017517E-3
906.829834E-3
906.804657E-3
906.624985E-3
906.478500E-3
906.436729E-3
906.471634E-3
906.365204E-3
906.282806E-3
906.167793E-3
906.032181E-3
905.882835E-3
905.652237E-3
905.269432E-3
904.769897E-3
904.708672E-3
904.421997E-3
904.138184E-3
903.893852E-3
903.569984E-3
903.501320E-3
903.202629E-3
903.464699E-3
903.877258E-3
904.815674E-3
906.475067E-3
908.726692E-3
911.317062E-3
913.702583E-3
915.717888E-3
917.261124E-3
918.313408E-3
918.842697E-3
918.914223E-3
918.784332E-3
918.537712E-3
918.143463E-3
917.618179E-3
917.063713E-3
916.682625E-3
916.408539E-3
916.224289E-3
916.239738E-3
916.059494E-3
916.156769E-3
916.248322E-3
916.407967E-3
916.389656E-3
916.412544E-3
916.139603E-3
915.486145E-3
915.039825E-3
914.558029E-3
913.980675E-3
913.542366E-3
913.306618E-3
913.107491E-3
913.279724E-3
913.166428E-3
913.076019E-3
913.430214E-3
913.570404E-3
913.803864E-3
913.748360E-3
913.536644E-3
913.351250E-3
913.382149E-3
912.998199E-3
912.565041E-3
912.309265E-3
911.979103E-3
911.693573E-3
911.337662E-3
911.013222E-3
910.750580E-3
910.303688E-3
910.274506E-3
910.214996E-3
910.017586E-3
909.799576E-3
909.625626E-3
909.407616E-3
909.272003E-3
909.045410E-3
908.790207E-3
908.828545E-3
908.551025E-3
908.571053E-3
908.383369E-3
908.319283E-3
908.169937E-3
908.074379E-3
907.955933E-3
907.664680E-3
907.783699E-3
907.919884E-3
907.686424E-3
907.674408E-3
907.505035E-3
907.446098E-3
