Notes :


2023-10-25 ¿ÀÈÄ 9:51:16
Volts
Ch : LED 2,
214.886284E-3
215.027618E-3
214.924049E-3
214.805603E-3
214.883995E-3
214.561272E-3
214.883423E-3
214.861679E-3
214.690590E-3
214.648247E-3
214.363289E-3
214.500618E-3
214.459991E-3
214.422798E-3
214.647675E-3
214.589310E-3
214.682579E-3
214.617348E-3
214.503479E-3
214.565277E-3
214.597893E-3
215.277672E-3
216.022110E-3
216.986275E-3
218.281174E-3
219.233322E-3
220.474434E-3
221.130180E-3
221.456909E-3
221.745872E-3
221.212006E-3
220.985413E-3
220.366287E-3
219.564056E-3
218.912315E-3
218.144417E-3
217.925835E-3
217.552185E-3
217.210007E-3
217.244911E-3
217.178535E-3
217.463493E-3
217.491531E-3
217.416000E-3
217.638016E-3
217.494392E-3
217.542458E-3
217.393684E-3
217.084122E-3
216.950798E-3
216.606903E-3
216.835785E-3
216.823769E-3
216.727638E-3
216.929054E-3
216.974831E-3
217.432594E-3
217.603111E-3
217.536163E-3
217.608833E-3
217.369652E-3
217.562485E-3
217.410851E-3
217.180824E-3
217.123032E-3
216.803169E-3
216.811752E-3
216.695595E-3
216.286469E-3
216.335678E-3
216.154861E-3
216.173172E-3
215.966606E-3
215.832138E-3
215.910530E-3
215.734291E-3
215.889359E-3
215.702820E-3
215.447617E-3
215.546036E-3
215.461349E-3
215.632439E-3
215.461349E-3
215.077400E-3
215.336609E-3
215.206146E-3
215.325737E-3
215.366936E-3
215.203285E-3
215.254784E-3
215.109444E-3
215.281105E-3
215.263367E-3
215.041351E-3
215.095139E-3
214.932632E-3
215.106010E-3
215.075684E-3
214.909172E-3
215.014458E-3
214.805031E-3
214.934349E-3
214.865112E-3
214.658546E-3
214.823914E-3
214.583015E-3
214.678574E-3
214.537811E-3
214.422226E-3
214.425087E-3
214.290619E-3
214.253998E-3
214.151001E-3
214.064598E-3
214.160728E-3
213.989067E-3
214.181900E-3
214.300346E-3
214.347267E-3
215.257645E-3
216.026688E-3
217.269516E-3
218.481445E-3
219.392967E-3
220.446396E-3
220.779991E-3
221.104431E-3
220.998573E-3
220.372581E-3
220.032120E-3
219.327736E-3
218.692017E-3
218.099785E-3
217.456627E-3
217.276382E-3
216.890717E-3
216.991425E-3
217.016029E-3
216.984558E-3
217.148209E-3
217.140770E-3
217.335320E-3
217.256355E-3
216.766548E-3
216.862106E-3
216.395760E-3
216.311646E-3
216.307640E-3
216.016960E-3
216.213226E-3
216.320801E-3
216.473007E-3
216.672707E-3
216.708755E-3
216.737938E-3
216.673851E-3
216.692734E-3
216.668701E-3
216.409492E-3
216.451263E-3
216.073036E-3
215.869331E-3
215.828705E-3
215.582657E-3
215.671921E-3
215.336609E-3
215.282822E-3
215.297127E-3
214.988708E-3
215.297127E-3
215.049362E-3
215.138054E-3
215.178680E-3
215.007591E-3
215.216446E-3
215.048218E-3
214.992714E-3
215.042496E-3
214.834213E-3
215.096855E-3
214.866257E-3
214.922333E-3
214.980698E-3
214.720917E-3
214.987564E-3
214.698029E-3
214.577866E-3
214.714622E-3
214.239120E-3
214.726639E-3
214.586449E-3
214.539528E-3
214.591599E-3
214.495468E-3
214.671135E-3
214.557838E-3
214.467430E-3
214.510918E-3
214.383888E-3
214.642525E-3
214.435387E-3
214.396477E-3
214.435387E-3
214.249992E-3
214.530945E-3
214.262581E-3
214.217949E-3
214.270020E-3
214.173889E-3
214.322662E-3
214.132690E-3
214.101219E-3
214.208221E-3
214.221382E-3
214.908028E-3
215.411568E-3
216.297340E-3
217.548752E-3
218.602753E-3
219.921684E-3
220.577431E-3
221.114159E-3
221.411705E-3
221.215439E-3
221.088982E-3
220.318794E-3
219.667625E-3
219.193268E-3
218.520927E-3
218.242836E-3
217.694092E-3
217.425728E-3
217.470360E-3
217.379379E-3
217.593956E-3
217.516708E-3
217.567635E-3
217.674637E-3
217.429733E-3
217.525864E-3
217.136192E-3
216.822624E-3
216.753387E-3
216.446114E-3
216.759109E-3
216.732788E-3
216.800308E-3
217.127037E-3
217.157936E-3
217.468071E-3
217.434311E-3
217.449188E-3
217.579651E-3
216.932487E-3
217.196846E-3
216.943932E-3
216.792870E-3
216.745949E-3
216.545677E-3
216.573143E-3
216.306496E-3
216.208076E-3
216.178894E-3
216.032410E-3
216.187477E-3
215.960884E-3
215.833855E-3
216.010094E-3
215.874481E-3
216.069031E-3
215.947151E-3
215.917969E-3
216.051292E-3
215.956879E-3
216.013527E-3
215.771484E-3
215.720558E-3
215.879631E-3
215.724564E-3
215.861893E-3
215.711403E-3
215.692520E-3
215.711403E-3
215.491676E-3
215.701675E-3
215.541458E-3
215.497971E-3
215.595818E-3
215.461349E-3
215.637589E-3
215.555763E-3
215.416145E-3
215.487099E-3
215.314865E-3
215.482521E-3
215.392113E-3
215.360069E-3
215.499687E-3
215.029335E-3
215.412140E-3
215.410423E-3
215.254784E-3
215.409851E-3
215.226173E-3
215.341759E-3
215.221596E-3
215.144348E-3
215.119171E-3
215.049934E-3
215.291405E-3
215.580368E-3
215.962601E-3
216.919899E-3
217.743301E-3
219.060516E-3
220.266724E-3
221.208000E-3
222.100067E-3
222.256279E-3
222.457123E-3
222.153854E-3
221.653175E-3
221.228027E-3
220.301628E-3
219.739723E-3
219.239616E-3
218.577003E-3
218.280602E-3
217.971039E-3
218.090057E-3
218.170166E-3
218.198204E-3
218.436813E-3
218.414497E-3
218.624496E-3
218.576431E-3
218.365288E-3
218.280602E-3
217.803955E-3
217.733002E-3
217.451477E-3
217.212868E-3
217.378235E-3
217.322731E-3
217.574501E-3
217.634583E-3
217.593956E-3
217.869759E-3
217.801666E-3
217.948151E-3
217.833138E-3
217.634010E-3
217.667198E-3
217.341042E-3
217.275810E-3
217.119026E-3
216.859818E-3
216.845512E-3
216.531944E-3
216.572571E-3
216.439819E-3
216.213226E-3
216.242409E-3
215.999794E-3
216.300201E-3
216.218376E-3
215.960312E-3
216.139412E-3
215.905952E-3
216.153717E-3
216.090775E-3
215.883064E-3
216.055870E-3
215.853310E-3
216.031265E-3
216.104507E-3
215.920830E-3
215.982628E-3
215.797234E-3
215.997505E-3
215.930557E-3
215.712547E-3
215.797806E-3
215.686798E-3
215.808678E-3
215.730286E-3
215.474510E-3
215.614128E-3
215.381813E-3
215.485382E-3
215.464783E-3
215.274239E-3
215.393257E-3
215.235329E-3
215.316582E-3
215.314865E-3
215.238190E-3
215.238762E-3
215.192986E-3
215.307426E-3
215.309715E-3
215.065384E-3
215.143776E-3
214.966965E-3
215.063095E-3
215.065384E-3
214.735222E-3
214.898300E-3
214.720345E-3
214.833069E-3
214.943504E-3
214.826775E-3
215.060234E-3
215.579224E-3
216.550255E-3
217.686081E-3
218.757248E-3
220.059013E-3
220.889282E-3
221.670341E-3
222.146416E-3
221.985054E-3
221.674347E-3
221.201134E-3
220.793152E-3
220.127678E-3
219.307137E-3
218.909454E-3
218.386459E-3
218.271446E-3
218.118095E-3
217.995071E-3
218.181038E-3
218.121529E-3
218.344688E-3
218.512344E-3
218.378448E-3
218.461990E-3
218.115234E-3
217.921257E-3
217.607117E-3
216.879272E-3
217.073250E-3
216.904449E-3
216.951370E-3
217.121887E-3
217.124748E-3
217.263794E-3
217.345619E-3
217.491531E-3
217.572212E-3
217.263222E-3
217.283249E-3
217.082405E-3
216.945648E-3
216.796875E-3
216.374588E-3
216.395760E-3
216.247559E-3
216.204071E-3
216.142845E-3
215.907669E-3
215.919113E-3
215.784073E-3
215.762329E-3
215.840721E-3
215.718269E-3
215.774345E-3
215.667915E-3
215.788078E-3
215.817261E-3
215.614700E-3
215.665054E-3
215.584373E-3
215.726852E-3
215.796661E-3
215.519714E-3
215.646172E-3
215.641022E-3
215.662193E-3
215.611839E-3
215.508842E-3
215.608978E-3
215.528870E-3
215.543747E-3
215.583801E-3
215.306854E-3
215.559196E-3
215.318298E-3
215.318298E-3
215.336609E-3
215.093422E-3
215.241051E-3
215.112305E-3
215.053368E-3
215.188980E-3
214.930344E-3
215.190125E-3
214.974403E-3
215.019035E-3
214.998436E-3
214.773560E-3
215.002441E-3
214.797020E-3
214.748383E-3
214.876556E-3
214.661407E-3
214.826202E-3
214.545822E-3
214.572716E-3
214.607048E-3
214.312363E-3
215.023041E-3
215.404129E-3
216.253281E-3
217.343330E-3
218.251991E-3
219.713974E-3
220.401764E-3
221.119308E-3
221.478653E-3
221.237183E-3
221.252632E-3
220.547104E-3
219.981194E-3
219.470215E-3
218.732071E-3
218.436813E-3
217.876053E-3
217.505264E-3
217.586517E-3
217.392540E-3
217.652893E-3
217.573357E-3
217.647171E-3
217.893791E-3
217.524719E-3
217.808533E-3
217.484093E-3
217.201424E-3
217.115593E-3
216.831779E-3
217.002869E-3
216.911888E-3
217.013741E-3
217.380524E-3
217.387962E-3
217.678642E-3
217.584801E-3
217.493248E-3
217.618561E-3
217.176247E-3
217.346191E-3
217.097855E-3
216.920471E-3
216.901588E-3
216.576576E-3
216.661263E-3
216.366577E-3
216.137123E-3
216.126251E-3
215.916824E-3
216.102219E-3
215.846443E-3
215.753174E-3
215.882492E-3
215.772629E-3
215.968895E-3
215.762901E-3
215.759468E-3
215.806389E-3
215.690231E-3
215.961456E-3
215.696526E-3
215.790367E-3
215.880203E-3
215.723991E-3
215.939713E-3
215.718269E-3
215.764618E-3
215.811539E-3
215.694809E-3
215.824699E-3
215.567207E-3
215.520859E-3
215.601540E-3
215.393257E-3
215.684509E-3
215.432167E-3
215.297699E-3
215.384674E-3
215.210724E-3
215.412712E-3
215.111732E-3
215.088272E-3
215.188980E-3
214.997292E-3
215.194702E-3
215.114021E-3
215.084267E-3
215.107727E-3
215.012169E-3
215.176392E-3
214.993858E-3
214.873123E-3
214.912605E-3
214.747810E-3
214.882278E-3
214.683723E-3
214.630508E-3
214.825630E-3
214.932060E-3
215.429306E-3
216.018105E-3
216.926765E-3
218.155289E-3
219.295692E-3
220.660400E-3
221.470642E-3
222.038841E-3
222.402763E-3
222.169304E-3
222.069740E-3
221.463776E-3
220.762253E-3
220.163727E-3
219.452477E-3
219.130325E-3
218.635941E-3
218.429375E-3
218.380737E-3
218.248558E-3
218.468857E-3
218.401337E-3
218.443680E-3
218.712044E-3
218.627930E-3
218.797874E-3
218.630791E-3
218.308067E-3
217.961884E-3
217.589951E-3
217.542458E-3
217.378807E-3
217.314720E-3
217.452049E-3
217.436600E-3
217.735863E-3
217.675209E-3
217.757034E-3
217.932129E-3
217.755318E-3
217.837715E-3
217.633438E-3
217.375946E-3
217.340469E-3
216.997719E-3
216.959381E-3
216.779137E-3
216.645813E-3
216.480446E-3
216.360283E-3
216.415787E-3
216.277313E-3
216.175461E-3
216.337967E-3
216.096497E-3
216.279602E-3
216.119957E-3
216.057014E-3
216.115379E-3
215.904808E-3
216.041565E-3
216.033554E-3
215.957451E-3
216.050720E-3
215.896797E-3
216.034126E-3
216.002083E-3
215.839005E-3
216.034698E-3
215.580940E-3
215.761757E-3
215.773773E-3
215.635872E-3
215.683937E-3
215.479660E-3
215.664482E-3
215.556908E-3
215.407562E-3
215.477943E-3
215.261078E-3
215.336037E-3
215.281105E-3
215.186691E-3
215.213013E-3
214.871979E-3
215.197563E-3
215.278244E-3
215.213013E-3
215.229034E-3
215.142632E-3
215.282822E-3
215.267944E-3
215.065384E-3
215.108871E-3
214.980698E-3
215.091705E-3
215.014458E-3
214.807320E-3
214.991570E-3
214.743233E-3
214.881706E-3
214.855957E-3
214.814758E-3
215.332603E-3
215.814400E-3
216.926193E-3
218.047714E-3
219.140625E-3
220.406342E-3
221.184540E-3
221.969604E-3
222.156715E-3
221.938705E-3
221.632004E-3
220.899582E-3
220.487022E-3
219.762039E-3
219.058228E-3
218.618202E-3
218.111229E-3
217.988205E-3
217.853165E-3
217.731285E-3
217.912674E-3
217.906952E-3
218.126106E-3
218.215370E-3
218.044853E-3
218.252563E-3
217.944717E-3
217.860031E-3
217.621422E-3
217.206573E-3
217.193413E-3
216.985130E-3
217.202568E-3
217.287254E-3
217.242622E-3
217.511559E-3
217.369652E-3
217.608833E-3
217.585373E-3
217.415428E-3
217.432594E-3
217.201424E-3
217.184258E-3
216.980553E-3
216.649246E-3
216.577721E-3
216.341400E-3
216.254425E-3
216.187477E-3
215.917969E-3
215.926552E-3
215.717125E-3
215.809822E-3
215.770340E-3
215.704536E-3
215.752029E-3
215.691376E-3
215.788651E-3
215.706253E-3
215.564919E-3
215.637016E-3
215.549469E-3
215.634727E-3
215.651321E-3
215.456772E-3
215.602684E-3
215.494537E-3
215.711403E-3
215.709114E-3
215.570641E-3
215.707397E-3
215.489388E-3
215.702820E-3
215.673065E-3
215.505981E-3
215.599823E-3
215.351486E-3
215.432739E-3
215.448761E-3
215.200996E-3
215.266800E-3
215.281105E-3
215.386391E-3
215.393829E-3
215.202141E-3
215.277672E-3
215.029335E-3
215.125465E-3
215.167236E-3
214.991570E-3
215.091705E-3
214.913177E-3
214.914894E-3
214.940643E-3
214.782715E-3
214.819336E-3
214.657402E-3
214.844513E-3
214.814758E-3
214.838219E-3
215.429306E-3
215.987206E-3
217.116737E-3
218.227959E-3
219.152069E-3
220.329666E-3
220.896721E-3
221.430016E-3
221.586227E-3
221.051788E-3
220.705605E-3
220.120239E-3
219.531441E-3
218.983269E-3
218.167877E-3
217.957306E-3
217.424011E-3
217.280388E-3
217.355919E-3
217.111588E-3
217.323875E-3
217.283821E-3
217.436600E-3
217.513847E-3
217.378235E-3
217.389679E-3
217.204285E-3
217.018890E-3
216.964531E-3
216.787148E-3
217.050934E-3
217.046928E-3
217.262077E-3
217.504120E-3
217.230606E-3
217.676353E-3
217.627144E-3
217.629433E-3
217.611122E-3
217.294121E-3
217.327881E-3
217.008591E-3
216.852379E-3
216.783142E-3
216.356277E-3
216.571999E-3
216.152000E-3
215.969467E-3
215.988350E-3
215.773773E-3
215.921974E-3
215.737152E-3
215.719414E-3
215.818405E-3
215.584373E-3
215.813255E-3
215.625572E-3
215.611839E-3
215.738297E-3
215.544319E-3
215.879059E-3
215.657043E-3
215.716553E-3
215.711403E-3
215.655327E-3
215.899658E-3
215.654755E-3
215.612984E-3
215.596962E-3
215.463638E-3
215.723419E-3
215.544319E-3
215.482521E-3
215.555191E-3
215.047073E-3
215.520287E-3
215.412140E-3
215.275955E-3
215.449333E-3
215.246773E-3
215.539169E-3
215.318871E-3
215.229034E-3
215.316010E-3
214.815903E-3
215.252495E-3
215.045357E-3
215.010452E-3
215.036774E-3
214.823914E-3
215.030479E-3
214.884567E-3
214.735222E-3
214.825630E-3
214.658546E-3
214.998436E-3
214.775276E-3
215.019608E-3
215.652466E-3
216.402054E-3
217.605400E-3
218.605042E-3
219.625854E-3
220.854378E-3
221.504402E-3
222.126389E-3
221.990204E-3
221.681786E-3
221.342468E-3
220.674706E-3
220.200920E-3
219.379807E-3
218.786430E-3
218.435669E-3
218.066025E-3
217.997360E-3
217.743301E-3
217.761040E-3
218.059158E-3
217.769623E-3
218.320084E-3
218.241119E-3
218.221664E-3
218.377876E-3
218.091202E-3
218.026543E-3
217.528152E-3
217.359924E-3
217.305565E-3
217.169380E-3
217.459488E-3
217.354202E-3
217.447472E-3
217.564774E-3
217.572212E-3
217.814255E-3
217.645454E-3
217.469788E-3
217.425728E-3
217.194557E-3
217.227173E-3
216.838074E-3
216.679573E-3
216.600037E-3
216.040993E-3
216.280746E-3
216.039276E-3
215.941429E-3
215.939140E-3
215.876198E-3
215.966606E-3
215.789223E-3
215.738297E-3
215.875626E-3
215.408134E-3
215.785217E-3
215.627861E-3
215.725136E-3
215.742874E-3
215.614128E-3
215.758324E-3
215.653038E-3
215.536308E-3
215.572357E-3
215.441322E-3
215.604401E-3
215.361214E-3
215.268517E-3
215.363503E-3
214.937782E-3
215.341187E-3
215.212440E-3
215.179253E-3
215.195847E-3
214.992142E-3
215.186119E-3
215.042496E-3
215.004730E-3
215.080261E-3
214.596748E-3
215.043068E-3
215.065956E-3
215.030479E-3
215.181541E-3
214.992142E-3
215.160942E-3
215.133476E-3
215.001297E-3
214.973259E-3
214.402771E-3
214.910316E-3
214.862251E-3
214.815903E-3
214.870834E-3
214.723206E-3
214.851952E-3
214.802170E-3
214.807892E-3
214.970970E-3
215.241051E-3
215.974617E-3
216.867256E-3
217.929268E-3
219.280243E-3
220.192909E-3
221.196556E-3
221.787643E-3
221.865463E-3
221.940422E-3
