Notes :


2023-11-13 ¿ÀÀü 12:26:31
Volts
Ch : LED 2,
890.368652E-3
890.361786E-3
890.196991E-3
890.005875E-3
889.861107E-3
889.677429E-3
889.442253E-3
889.116096E-3
888.875771E-3
888.781929E-3
888.333893E-3
888.071823E-3
887.869835E-3
887.373734E-3
887.553978E-3
888.281250E-3
889.778709E-3
892.127037E-3
894.605827E-3
897.225952E-3
899.410057E-3
900.906944E-3
902.049065E-3
902.350044E-3
902.486229E-3
901.954079E-3
901.600456E-3
900.983620E-3
900.118446E-3
899.372864E-3
898.495674E-3
897.913170E-3
897.372437E-3
896.645737E-3
895.702171E-3
895.892715E-3
895.564270E-3
895.656395E-3
895.377159E-3
895.306778E-3
895.149994E-3
894.720268E-3
894.130898E-3
892.712402E-3
892.396545E-3
891.872978E-3
891.419220E-3
891.060448E-3
890.950012E-3
890.979767E-3
890.883636E-3
891.019249E-3
891.296196E-3
890.968895E-3
891.084480E-3
890.867043E-3
890.691948E-3
890.285110E-3
889.846230E-3
889.468002E-3
889.065170E-3
888.450623E-3
888.039780E-3
887.436104E-3
887.127686E-3
886.736298E-3
886.253929E-3
885.877419E-3
885.206795E-3
884.948158E-3
884.586525E-3
884.363937E-3
884.142494E-3
883.569145E-3
883.276176E-3
882.955742E-3
882.778931E-3
882.234192E-3
882.242775E-3
882.294273E-3
882.362366E-3
882.424736E-3
882.464218E-3
882.423019E-3
882.698822E-3
882.812119E-3
882.411003E-3
882.756042E-3
882.874489E-3
883.000374E-3
882.925987E-3
882.901955E-3
882.745171E-3
882.562637E-3
882.522583E-3
881.619072E-3
881.684875E-3
881.244278E-3
880.800247E-3
880.343628E-3
879.761696E-3
879.355431E-3
879.018974E-3
878.627014E-3
878.491974E-3
879.319954E-3
880.774498E-3
882.905388E-3
885.268021E-3
887.708473E-3
889.854813E-3
891.482735E-3
892.625427E-3
893.389893E-3
893.461990E-3
893.254852E-3
892.922401E-3
892.568779E-3
891.907883E-3
891.311073E-3
890.761757E-3
890.428734E-3
890.151215E-3
889.878845E-3
889.751816E-3
889.651108E-3
889.760971E-3
889.866829E-3
889.864540E-3
889.837646E-3
889.728355E-3
889.534950E-3
889.163589E-3
888.324165E-3
887.693596E-3
886.981773E-3
886.642456E-3
886.408997E-3
886.073112E-3
886.228752E-3
886.328888E-3
886.388397E-3
886.463356E-3
886.498833E-3
886.585808E-3
886.493683E-3
886.485100E-3
886.298561E-3
885.988998E-3
885.577583E-3
885.171890E-3
884.798813E-3
884.698677E-3
884.307289E-3
883.951378E-3
883.703041E-3
882.880783E-3
883.001518E-3
882.718849E-3
882.633018E-3
882.386971E-3
882.233047E-3
882.090569E-3
881.677437E-3
881.415367E-3
881.697464E-3
881.276894E-3
880.950165E-3
880.517006E-3
880.429459E-3
880.032349E-3
879.923058E-3
879.794884E-3
879.464722E-3
879.748535E-3
879.483032E-3
879.218674E-3
879.055023E-3
878.763199E-3
878.624153E-3
878.453064E-3
878.313446E-3
878.203583E-3
878.350639E-3
877.922630E-3
877.781868E-3
877.588463E-3
877.395058E-3
877.159882E-3
876.849747E-3
876.527596E-3
876.305580E-3
876.145935E-3
875.689316E-3
875.514221E-3
875.152588E-3
874.950600E-3
874.821854E-3
874.556351E-3
874.108315E-3
875.077629E-3
876.476097E-3
878.734016E-3
881.361008E-3
884.096718E-3
886.521721E-3
888.470650E-3
889.629936E-3
890.336037E-3
890.740585E-3
890.746307E-3
890.634727E-3
890.334892E-3
889.699745E-3
889.253998E-3
888.709259E-3
888.301849E-3
888.449478E-3
888.018608E-3
887.846947E-3
887.778854E-3
887.791443E-3
887.810898E-3
887.888145E-3
887.962532E-3
887.853813E-3
887.179184E-3
887.072754E-3
886.652756E-3
886.074257E-3
885.507202E-3
884.971619E-3
884.868050E-3
884.629440E-3
884.767914E-3
885.134125E-3
885.151863E-3
885.280037E-3
885.253143E-3
885.297775E-3
885.207367E-3
885.015678E-3
884.815979E-3
884.467506E-3
884.524727E-3
884.160805E-3
883.700180E-3
883.473015E-3
883.144569E-3
882.931709E-3
882.766342E-3
882.433891E-3
882.222176E-3
882.495689E-3
881.921196E-3
881.748962E-3
881.707191E-3
881.473732E-3
881.101799E-3
881.009102E-3
880.587387E-3
880.383682E-3
880.247498E-3
880.063248E-3
879.909325E-3
879.655266E-3
879.455566E-3
879.402351E-3
879.090500E-3
878.873062E-3
878.792953E-3
878.747177E-3
878.739166E-3
878.392410E-3
878.377533E-3
878.276825E-3
878.096581E-3
878.055382E-3
877.898026E-3
877.880859E-3
877.564430E-3
877.359009E-3
877.205658E-3
876.985931E-3
876.758194E-3
876.516724E-3
876.097870E-3
876.214600E-3
875.642395E-3
875.022697E-3
874.913406E-3
874.778366E-3
874.750900E-3
874.871635E-3
875.543976E-3
876.863480E-3
878.194427E-3
881.089783E-3
883.672714E-3
886.091995E-3
887.865257E-3
889.206505E-3
889.945793E-3
890.246201E-3
890.256500E-3
890.603828E-3
889.619637E-3
888.973045E-3
888.245201E-3
887.768555E-3
887.254143E-3
886.740875E-3
886.421585E-3
886.224174E-3
886.812401E-3
886.300278E-3
886.054802E-3
886.105728E-3
885.836792E-3
885.878563E-3
885.330391E-3
885.065460E-3
884.333611E-3
883.722496E-3
883.106804E-3
882.883644E-3
882.678795E-3
882.727432E-3
882.671928E-3
882.917404E-3
882.286835E-3
883.003235E-3
883.264732E-3
883.434677E-3
883.434677E-3
883.327675E-3
883.065605E-3
882.984924E-3
882.496834E-3
882.367516E-3
881.862259E-3
881.404495E-3
881.019402E-3
880.670357E-3
880.345345E-3
880.042076E-3
879.779434E-3
879.459000E-3
878.360367E-3
878.723717E-3
878.335190E-3
878.332329E-3
878.270531E-3
877.926064E-3
877.792168E-3
877.583313E-3
877.221680E-3
877.502060E-3
877.063751E-3
876.802826E-3
876.678658E-3
876.405144E-3
876.319313E-3
876.156807E-3
875.990868E-3
875.929070E-3
875.256157E-3
875.313950E-3
875.228691E-3
875.145721E-3
875.063324E-3
874.913979E-3
874.829865E-3
874.725151E-3
874.648476E-3
875.248146E-3
874.564934E-3
874.294853E-3
874.033356E-3
873.901749E-3
873.687744E-3
873.508072E-3
873.512077E-3
873.053169E-3
872.912407E-3
872.396278E-3
871.959114E-3
871.643257E-3
871.283913E-3
871.223259E-3
871.089363E-3
870.653343E-3
871.701622E-3
873.014259E-3
875.321388E-3
877.993584E-3
880.871201E-3
883.309364E-3
885.308647E-3
886.760902E-3
888.039207E-3
888.148499E-3
888.205719E-3
887.989998E-3
887.718773E-3
887.168312E-3
886.595535E-3
886.170387E-3
885.638237E-3
885.441399E-3
885.035706E-3
884.406281E-3
884.639168E-3
884.605980E-3
884.696388E-3
884.704399E-3
884.699249E-3
884.811974E-3
884.208870E-3
884.283829E-3
883.803749E-3
883.039284E-3
882.555199E-3
881.884575E-3
881.700325E-3
881.426239E-3
881.327820E-3
880.298424E-3
880.880928E-3
881.241417E-3
881.448555E-3
881.572723E-3
881.660843E-3
881.661987E-3
881.439400E-3
881.220818E-3
881.344986E-3
880.752182E-3
880.412292E-3
880.161095E-3
879.705048E-3
879.358292E-3
879.036140E-3
879.060745E-3
878.579521E-3
878.205299E-3
877.793312E-3
877.643394E-3
877.447701E-3
877.122116E-3
876.926422E-3
876.607704E-3
876.247215E-3
876.059532E-3
875.913620E-3
875.838089E-3
875.558853E-3
875.394058E-3
875.191498E-3
875.082207E-3
875.078773E-3
873.976707E-3
874.488831E-3
874.484825E-3
874.552917E-3
874.382973E-3
874.202728E-3
874.232483E-3
874.029922E-3
873.886871E-3
873.795319E-3
873.568726E-3
873.344994E-3
873.241425E-3
873.267746E-3
873.133850E-3
872.947311E-3
872.870064E-3
872.783089E-3
871.874428E-3
872.242355E-3
872.167969E-3
872.280693E-3
872.073555E-3
871.858406E-3
871.588898E-3
871.225548E-3
871.093941E-3
870.582390E-3
870.596123E-3
870.277977E-3
870.244217E-3
870.235062E-3
870.522881E-3
871.669006E-3
873.510361E-3
875.784302E-3
879.152298E-3
881.373024E-3
883.695602E-3
885.379601E-3
886.391258E-3
887.005806E-3
887.099075E-3
887.141991E-3
886.874771E-3
886.289978E-3
885.939217E-3
885.279465E-3
884.777641E-3
884.258652E-3
883.642960E-3
883.436394E-3
882.734299E-3
883.079338E-3
883.232689E-3
883.069611E-3
883.236694E-3
882.998657E-3
883.034134E-3
882.860756E-3
882.266235E-3
881.992149E-3
881.198502E-3
880.777359E-3
880.440331E-3
880.139351E-3
880.031776E-3
880.068970E-3
880.255508E-3
880.414581E-3
880.179405E-3
880.521584E-3
880.237198E-3
880.328178E-3
880.289268E-3
880.179405E-3
880.066681E-3
879.712486E-3
879.457855E-3
878.832436E-3
878.669357E-3
878.354073E-3
877.926064E-3
877.678299E-3
877.445412E-3
877.326393E-3
877.047729E-3
876.729584E-3
876.336479E-3
876.185417E-3
875.977135E-3
875.670433E-3
875.574303E-3
875.301933E-3
875.081062E-3
874.913406E-3
874.880791E-3
874.491119E-3
874.354935E-3
874.186134E-3
873.929787E-3
873.893166E-3
873.787880E-3
873.743820E-3
873.712349E-3
873.474312E-3
873.482323E-3
873.221970E-3
873.098373E-3
873.014259E-3
872.822571E-3
872.680092E-3
872.516441E-3
871.885300E-3
872.231483E-3
872.029495E-3
872.004890E-3
871.866989E-3
871.599770E-3
871.396637E-3
871.159172E-3
871.067047E-3
870.467377E-3
870.353508E-3
869.920349E-3
869.566154E-3
869.369316E-3
869.073486E-3
868.952751E-3
868.893242E-3
869.205093E-3
870.708847E-3
872.287560E-3
874.536324E-3
877.171326E-3
879.700470E-3
881.888008E-3
883.461571E-3
884.576797E-3
885.034561E-3
884.866905E-3
884.986496E-3
884.636307E-3
884.333038E-3
883.748817E-3
883.066177E-3
882.441330E-3
881.722069E-3
881.355858E-3
880.690384E-3
880.372810E-3
880.395699E-3
880.291557E-3
880.297279E-3
880.112457E-3
880.060959E-3
879.860115E-3
879.327393E-3
879.119110E-3
878.466797E-3
877.837372E-3
877.440262E-3
877.009392E-3
876.967049E-3
877.080345E-3
877.035713E-3
877.322388E-3
877.470016E-3
877.665138E-3
877.683449E-3
877.596474E-3
877.682304E-3
877.457428E-3
877.357864E-3
876.785088E-3
876.649475E-3
876.560211E-3
876.151085E-3
875.750542E-3
875.269318E-3
874.875069E-3
874.694824E-3
874.331474E-3
873.694038E-3
873.674583E-3
873.493195E-3
873.355865E-3
873.042297E-3
873.018837E-3
872.860336E-3
872.523880E-3
872.412300E-3
872.174835E-3
872.076988E-3
871.896172E-3
871.794319E-3
871.706200E-3
871.476746E-3
871.457291E-3
871.203804E-3
870.949745E-3
870.459938E-3
870.572090E-3
870.360374E-3
870.425606E-3
870.245934E-3
870.266533E-3
869.992447E-3
869.996452E-3
869.840813E-3
869.718933E-3
869.512939E-3
869.284058E-3
869.256592E-3
869.051743E-3
868.845177E-3
868.844032E-3
868.656349E-3
868.603706E-3
868.037224E-3
868.152809E-3
868.327332E-3
868.045235E-3
867.903900E-3
867.685890E-3
867.351151E-3
867.215538E-3
866.728592E-3
866.737747E-3
866.443062E-3
866.020775E-3
866.029930E-3
866.285133E-3
867.026138E-3
868.780518E-3
871.516228E-3
874.119759E-3
876.891518E-3
879.306221E-3
881.358719E-3
882.719421E-3
883.685875E-3
883.981705E-3
884.037209E-3
883.414650E-3
883.136559E-3
882.627296E-3
881.862259E-3
881.290054E-3
880.720711E-3
880.214310E-3
879.782867E-3
879.572296E-3
879.479599E-3
879.398918E-3
879.229546E-3
879.417229E-3
879.427528E-3
879.420090E-3
879.325104E-3
878.996086E-3
878.665924E-3
878.312302E-3
877.637672E-3
877.114105E-3
876.735306E-3
876.608849E-3
876.481819E-3
876.654053E-3
876.701546E-3
876.810265E-3
877.419662E-3
877.347565E-3
877.180481E-3
877.254868E-3
877.009392E-3
877.015686E-3
876.685524E-3
876.471519E-3
876.187706E-3
876.111603E-3
875.648117E-3
875.244713E-3
874.831009E-3
874.469948E-3
874.301147E-3
873.961258E-3
873.584175E-3
873.391342E-3
873.107529E-3
872.916412E-3
872.645760E-3
872.416878E-3
872.139359E-3
872.040939E-3
871.777725E-3
871.767998E-3
871.726799E-3
871.525955E-3
871.296501E-3
871.172333E-3
871.084785E-3
871.014404E-3
870.867348E-3
870.715714E-3
870.833588E-3
870.705986E-3
870.637894E-3
870.580101E-3
870.350647E-3
870.085144E-3
870.072556E-3
869.811058E-3
869.831085E-3
869.577599E-3
869.494629E-3
869.464874E-3
869.369888E-3
869.205093E-3
869.256592E-3
869.000816E-3
868.932152E-3
868.691254E-3
868.841743E-3
868.704414E-3
868.365669E-3
868.258095E-3
868.033218E-3
867.848969E-3
867.656136E-3
867.347145E-3
867.300224E-3
866.783524E-3
866.687965E-3
866.618156E-3
866.473961E-3
866.702271E-3
867.279625E-3
868.804550E-3
871.030426E-3
873.633957E-3
876.801109E-3
879.073334E-3
881.104660E-3
882.570648E-3
883.578300E-3
884.156799E-3
884.066391E-3
883.811760E-3
883.265305E-3
882.444191E-3
881.914902E-3
881.099510E-3
880.432320E-3
879.945946E-3
879.506493E-3
879.151154E-3
878.812408E-3
878.751183E-3
879.271889E-3
879.074478E-3
878.981209E-3
878.683090E-3
878.477097E-3
878.142929E-3
877.532387E-3
877.210236E-3
876.635742E-3
876.262665E-3
876.127052E-3
876.071548E-3
876.297569E-3
876.354218E-3
876.600266E-3
876.905823E-3
876.504707E-3
877.036285E-3
877.028275E-3
877.111816E-3
876.882362E-3
876.567078E-3
876.422310E-3
875.945663E-3
875.646400E-3
875.617218E-3
874.974060E-3
874.673653E-3
874.294853E-3
873.981857E-3
873.708916E-3
873.414230E-3
873.236275E-3
873.097801E-3
873.075485E-3
872.788239E-3
872.531891E-3
872.435760E-3
872.162247E-3
871.904755E-3
871.906471E-3
871.734810E-3
871.474457E-3
871.467018E-3
871.099663E-3
870.740318E-3
870.735741E-3
870.612717E-3
870.405579E-3
870.299721E-3
870.256805E-3
869.981575E-3
870.142365E-3
869.805908E-3
869.610214E-3
869.590759E-3
869.462013E-3
869.358444E-3
869.146156E-3
869.068336E-3
868.944168E-3
868.524742E-3
868.470383E-3
868.351936E-3
868.385696E-3
868.123055E-3
867.819786E-3
867.638397E-3
867.406654E-3
867.181206E-3
867.156601E-3
866.558647E-3
866.329193E-3
866.059113E-3
865.965843E-3
865.898323E-3
866.143799E-3
867.392349E-3
869.167900E-3
871.648979E-3
874.428749E-3
876.939011E-3
879.243279E-3
880.891228E-3
882.073402E-3
882.706261E-3
882.463074E-3
882.562065E-3
882.151222E-3
881.696892E-3
881.165886E-3
880.325890E-3
879.589462E-3
878.898811E-3
878.404427E-3
877.691460E-3
877.621078E-3
877.630806E-3
877.368736E-3
877.312088E-3
877.588463E-3
877.518654E-3
877.463722E-3
877.009392E-3
875.913048E-3
875.709343E-3
875.331116E-3
875.000954E-3
874.872208E-3
874.690247E-3
874.747467E-3
874.796677E-3
875.081062E-3
875.538254E-3
875.578308E-3
875.724792E-3
875.531960E-3
875.543404E-3
875.403786E-3
875.451279E-3
875.140572E-3
874.943161E-3
874.055672E-3
873.919487E-3
873.809624E-3
873.416519E-3
873.005676E-3
872.902679E-3
872.474098E-3
872.128487E-3
871.944809E-3
871.896172E-3
871.479034E-3
871.264458E-3
871.056747E-3
870.895386E-3
870.519447E-3
870.451927E-3
870.376396E-3
870.105743E-3
869.954681E-3
869.657707E-3
869.645119E-3
869.361305E-3
869.126129E-3
869.011116E-3
868.886948E-3
868.165398E-3
868.485260E-3
868.465233E-3
868.434906E-3
868.343925E-3
868.264389E-3
868.025208E-3
867.881012E-3
867.814064E-3
868.260384E-3
867.918777E-3
867.740250E-3
867.527390E-3
867.454147E-3
867.364311E-3
867.350578E-3
867.245293E-3
867.144012E-3
866.649628E-3
866.732025E-3
866.675377E-3
866.600990E-3
866.533470E-3
866.302299E-3
866.059113E-3
865.906334E-3
865.532112E-3
865.393639E-3
865.141869E-3
864.931297E-3
864.969063E-3
865.083504E-3
866.007614E-3
867.957687E-3
870.280838E-3
873.160172E-3
876.150513E-3
878.484535E-3
880.543900E-3
881.916046E-3
882.840729E-3
883.190346E-3
883.339691E-3
883.075905E-3
882.536316E-3
881.138420E-3
880.856895E-3
880.413437E-3
879.906464E-3
879.293633E-3
878.991508E-3
878.714561E-3
878.691673E-3
878.604126E-3
879.294777E-3
879.037285E-3
878.785515E-3
