Notes :


2023-11-04 ¿ÀÈÄ 9:55:29
Volts
Ch : LED 2,
557.023430E-3
556.655502E-3
556.301880E-3
556.095314E-3
555.484772E-3
555.630684E-3
555.833244E-3
556.197166E-3
557.324409E-3
559.280205E-3
562.371254E-3
565.914917E-3
569.656563E-3
573.020554E-3
575.731087E-3
577.462578E-3
578.248787E-3
578.045654E-3
577.278328E-3
576.012039E-3
574.593544E-3
573.090935E-3
571.830368E-3
570.330048E-3
569.189644E-3
568.456650E-3
567.911339E-3
567.750549E-3
567.854118E-3
568.172264E-3
568.437195E-3
568.755913E-3
568.628883E-3
568.406296E-3
567.759705E-3
566.871071E-3
566.225624E-3
565.529251E-3
565.259171E-3
565.320969E-3
565.394783E-3
565.692329E-3
565.960693E-3
566.265106E-3
566.534615E-3
566.566658E-3
566.555786E-3
566.319466E-3
565.950966E-3
565.746117E-3
565.197372E-3
564.616013E-3
563.984871E-3
563.503647E-3
562.949181E-3
562.457657E-3
562.150955E-3
561.619377E-3
561.381340E-3
561.204529E-3
560.941887E-3
560.898972E-3
560.473251E-3
560.418320E-3
560.442352E-3
560.177994E-3
560.202026E-3
560.127068E-3
560.079575E-3
559.977150E-3
559.863281E-3
559.827232E-3
559.680176E-3
559.473038E-3
559.231567E-3
559.223557E-3
559.194374E-3
559.126282E-3
558.987236E-3
558.884811E-3
558.765793E-3
558.701706E-3
558.576965E-3
558.340645E-3
558.346367E-3
558.291435E-3
558.247948E-3
558.160400E-3
558.015060E-3
557.794762E-3
557.584190E-3
557.339859E-3
556.801987E-3
556.534767E-3
556.297874E-3
555.983162E-3
555.670166E-3
555.365753E-3
555.245018E-3
555.290222E-3
555.445862E-3
556.155968E-3
558.215332E-3
561.183929E-3
564.821434E-3
568.694687E-3
572.440338E-3
575.533104E-3
577.788734E-3
579.018402E-3
579.235268E-3
578.830147E-3
577.722359E-3
576.429749E-3
574.895668E-3
573.411942E-3
572.044373E-3
570.942879E-3
570.194435E-3
569.857407E-3
569.696045E-3
569.908333E-3
570.106316E-3
570.442772E-3
570.811844E-3
570.888519E-3
570.745468E-3
570.390129E-3
569.783592E-3
568.981934E-3
568.193436E-3
567.608643E-3
567.374039E-3
567.311096E-3
567.359734E-3
567.723083E-3
567.899323E-3
568.037796E-3
568.203735E-3
568.208313E-3
568.052101E-3
567.937088E-3
567.577744E-3
567.358017E-3
567.145157E-3
566.467667E-3
565.948105E-3
565.391350E-3
564.867210E-3
564.442635E-3
564.046097E-3
563.753700E-3
563.354301E-3
562.924576E-3
562.916565E-3
562.738037E-3
562.663651E-3
562.472534E-3
562.399864E-3
562.237358E-3
562.143517E-3
562.057686E-3
561.981583E-3
561.997604E-3
561.864281E-3
561.677170E-3
561.585045E-3
561.454582E-3
561.360741E-3
561.311531E-3
561.175346E-3
561.130714E-3
561.018562E-3
560.872078E-3
560.785675E-3
560.723305E-3
560.603714E-3
560.378838E-3
560.321617E-3
560.226059E-3
559.990311E-3
559.946251E-3
559.748268E-3
559.527397E-3
559.319115E-3
559.109688E-3
558.871651E-3
558.489990E-3
558.317184E-3
558.084297E-3
557.690620E-3
557.418251E-3
557.239723E-3
557.220268E-3
557.259750E-3
557.657433E-3
558.966637E-3
561.267471E-3
564.528465E-3
568.255806E-3
571.963692E-3
575.458717E-3
578.215599E-3
580.037498E-3
580.799675E-3
580.800247E-3
579.954529E-3
578.498268E-3
576.976776E-3
575.474739E-3
573.956108E-3
572.720146E-3
571.884155E-3
571.225548E-3
570.704842E-3
570.718002E-3
570.868492E-3
571.059036E-3
571.489906E-3
571.782875E-3
571.679878E-3
571.429253E-3
570.759773E-3
569.840813E-3
569.221115E-3
568.626022E-3
568.475533E-3
568.525314E-3
568.782806E-3
569.215965E-3
569.499207E-3
569.873428E-3
569.970131E-3
570.077705E-3
569.979286E-3
569.775581E-3
569.387054E-3
568.803978E-3
568.267822E-3
567.672157E-3
566.826439E-3
566.320038E-3
565.810776E-3
565.307808E-3
564.843750E-3
564.357376E-3
564.193153E-3
563.846970E-3
563.452148E-3
563.352585E-3
563.180923E-3
562.961197E-3
562.866211E-3
562.665939E-3
562.575531E-3
562.440491E-3
562.320328E-3
562.244225E-3
562.047958E-3
561.948967E-3
561.875725E-3
561.712074E-3
561.511230E-3
561.350441E-3
561.367035E-3
561.181068E-3
560.929871E-3
560.911560E-3
560.778809E-3
560.809135E-3
560.606575E-3
560.598564E-3
560.323334E-3
560.136223E-3
559.904480E-3
559.693909E-3
559.370041E-3
559.042740E-3
558.709717E-3
558.365250E-3
557.992172E-3
557.609367E-3
557.354164E-3
557.129860E-3
557.181931E-3
556.962204E-3
557.469177E-3
558.707428E-3
560.946465E-3
564.245796E-3
567.942238E-3
571.643257E-3
575.106812E-3
577.864265E-3
579.892159E-3
580.712128E-3
580.780220E-3
580.035782E-3
578.800964E-3
577.305222E-3
575.660706E-3
574.281693E-3
572.928429E-3
571.847534E-3
571.156311E-3
570.639038E-3
570.534325E-3
570.507431E-3
570.661926E-3
571.030998E-3
571.285057E-3
571.309090E-3
571.035576E-3
570.450783E-3
569.574738E-3
568.729019E-3
568.143082E-3
567.864418E-3
568.043518E-3
568.160248E-3
568.308449E-3
568.696404E-3
568.968201E-3
569.086075E-3
569.081497E-3
569.016838E-3
568.945885E-3
568.734169E-3
568.222046E-3
567.775726E-3
567.153740E-3
566.519737E-3
565.960693E-3
565.398788E-3
564.961624E-3
564.423180E-3
564.097595E-3
563.737679E-3
563.261032E-3
563.099670E-3
562.902832E-3
562.813568E-3
562.709427E-3
562.516022E-3
562.577248E-3
562.291718E-3
562.126350E-3
561.943817E-3
561.773300E-3
561.650848E-3
561.412239E-3
561.340141E-3
561.273193E-3
561.108398E-3
560.989952E-3
560.676956E-3
560.645485E-3
560.452652E-3
560.292435E-3
560.172272E-3
560.092163E-3
559.970856E-3
559.829521E-3
559.588051E-3
559.558296E-3
559.377480E-3
559.226990E-3
559.144592E-3
558.967209E-3
558.789253E-3
558.630753E-3
558.420181E-3
558.078575E-3
557.693481E-3
557.396507E-3
557.077789E-3
556.655502E-3
556.463242E-3
556.300735E-3
556.480408E-3
556.865501E-3
558.200455E-3
560.512161E-3
563.821220E-3
567.619514E-3
571.512794E-3
575.173187E-3
578.241348E-3
580.067825E-3
581.258011E-3
581.312943E-3
580.716133E-3
579.368591E-3
577.825356E-3
576.304436E-3
574.729156E-3
573.389626E-3
572.570801E-3
571.780586E-3
571.277618E-3
571.007538E-3
571.081352E-3
571.287918E-3
571.614075E-3
571.877861E-3
572.022629E-3
572.078705E-3
571.390915E-3
570.600700E-3
569.740677E-3
568.902397E-3
568.500710E-3
568.171692E-3
568.042374E-3
568.187141E-3
568.455505E-3
568.684959E-3
568.768501E-3
568.870354E-3
568.939018E-3
568.865204E-3
568.797684E-3
568.477821E-3
568.020058E-3
567.455292E-3
566.942024E-3
566.567230E-3
566.035080E-3
565.641403E-3
565.312386E-3
564.828300E-3
564.498711E-3
564.243507E-3
563.885307E-3
563.803482E-3
563.505936E-3
563.344002E-3
563.088799E-3
562.835312E-3
562.755775E-3
562.615013E-3
562.550926E-3
562.419891E-3
562.263680E-3
562.264824E-3
562.150383E-3
562.118340E-3
561.948967E-3
561.874580E-3
561.641693E-3
561.623383E-3
561.578751E-3
561.480331E-3
561.302376E-3
561.262321E-3
561.097527E-3
561.094093E-3
560.920143E-3
560.538483E-3
560.503006E-3
560.336494E-3
560.215187E-3
560.041237E-3
559.828949E-3
559.759712E-3
559.483910E-3
559.283066E-3
558.801842E-3
558.617592E-3
558.245087E-3
557.913208E-3
557.668877E-3
557.556152E-3
557.390785E-3
557.279205E-3
557.278633E-3
557.861710E-3
559.226990E-3
561.711502E-3
565.130424E-3
569.042587E-3
572.973633E-3
576.569939E-3
579.433250E-3
581.510353E-3
582.010460E-3
582.134056E-3
581.261444E-3
579.899597E-3
578.258514E-3
576.485252E-3
574.882507E-3
573.536682E-3
572.507286E-3
571.678734E-3
571.231842E-3
571.025848E-3
571.100807E-3
571.166611E-3
571.467018E-3
571.523666E-3
571.277618E-3
571.104240E-3
570.436478E-3
569.836807E-3
569.211960E-3
568.764496E-3
568.559647E-3
568.553925E-3
568.715286E-3
568.892097E-3
569.431114E-3
569.777298E-3
570.037651E-3
570.220184E-3
570.127487E-3
569.977570E-3
569.633102E-3
569.197083E-3
568.524742E-3
568.016052E-3
567.379189E-3
566.912270E-3
566.368103E-3
565.985870E-3
565.526962E-3
565.195084E-3
564.897537E-3
564.571953E-3
564.377403E-3
564.072418E-3
564.014053E-3
563.758278E-3
563.472748E-3
563.321686E-3
563.180351E-3
563.071632E-3
562.753487E-3
562.600708E-3
562.651062E-3
562.437630E-3
562.419319E-3
562.295723E-3
562.100601E-3
561.963844E-3
561.738968E-3
561.919785E-3
561.615372E-3
561.467171E-3
561.420250E-3
561.207962E-3
560.992813E-3
560.816574E-3
560.596275E-3
560.397148E-3
560.144806E-3
559.906769E-3
559.562874E-3
559.244728E-3
558.919716E-3
558.552933E-3
558.167839E-3
557.872581E-3
557.375908E-3
557.006836E-3
556.684685E-3
556.593132E-3
556.612587E-3
557.187653E-3
558.584404E-3
561.056328E-3
564.455795E-3
568.155670E-3
571.899033E-3
575.396347E-3
578.212738E-3
579.999733E-3
580.852318E-3
580.821991E-3
580.084419E-3
579.015541E-3
577.296638E-3
575.608635E-3
574.096870E-3
572.701836E-3
571.522522E-3
570.698547E-3
570.210457E-3
569.955826E-3
569.999313E-3
570.075417E-3
570.224190E-3
570.362091E-3
570.322037E-3
570.000458E-3
569.306946E-3
568.663216E-3
567.862129E-3
567.514229E-3
567.217255E-3
567.176628E-3
567.379189E-3
567.735100E-3
567.990303E-3
568.341064E-3
568.497849E-3
568.510437E-3
568.439484E-3
568.344498E-3
568.116760E-3
567.610359E-3
567.142868E-3
566.487122E-3
565.878868E-3
565.347862E-3
564.644051E-3
564.188004E-3
563.716507E-3
563.139153E-3
562.879944E-3
562.494850E-3
562.307167E-3
562.124062E-3
561.970711E-3
561.784172E-3
561.559868E-3
561.428261E-3
561.312103E-3
561.237717E-3
561.134148E-3
560.937881E-3
560.780525E-3
560.683823E-3
560.576248E-3
560.532761E-3
560.255814E-3
560.123634E-3
559.982300E-3
559.854698E-3
559.729958E-3
559.464455E-3
559.566879E-3
559.419250E-3
559.029579E-3
559.098816E-3
558.974648E-3
558.766365E-3
558.584404E-3
558.528328E-3
558.413315E-3
558.058548E-3
557.921791E-3
557.754135E-3
557.433701E-3
557.117844E-3
556.642342E-3
556.419754E-3
556.061554E-3
555.707359E-3
555.725670E-3
555.519676E-3
555.711937E-3
556.550789E-3
558.304024E-3
561.264038E-3
564.803123E-3
568.773079E-3
572.543335E-3
576.214027E-3
578.982353E-3
580.508423E-3
581.127548E-3
580.769920E-3
579.719925E-3
578.304863E-3
576.403999E-3
574.915123E-3
573.550987E-3
572.258377E-3
571.486473E-3
570.740318E-3
570.398712E-3
570.283127E-3
570.360374E-3
570.589828E-3
570.786095E-3
571.050453E-3
570.965195E-3
570.555496E-3
570.019913E-3
569.181633E-3
568.409157E-3
567.874718E-3
567.538261E-3
567.426682E-3
567.430115E-3
567.566872E-3
567.804337E-3
567.994881E-3
568.233490E-3
568.357086E-3
568.279266E-3
568.196297E-3
567.894173E-3
567.582893E-3
567.027283E-3
566.453362E-3
566.076279E-3
565.449715E-3
565.138435E-3
564.621162E-3
564.212036E-3
563.793182E-3
563.330841E-3
563.048744E-3
562.786102E-3
562.506866E-3
562.382126E-3
562.168121E-3
562.102890E-3
561.666870E-3
561.708641E-3
561.610794E-3
561.495781E-3
561.539268E-3
561.440849E-3
561.309814E-3
561.260605E-3
561.224556E-3
561.000824E-3
561.007690E-3
560.958481E-3
560.904121E-3
560.720444E-3
560.807991E-3
560.678101E-3
560.600853E-3
560.495567E-3
560.335350E-3
560.260963E-3
560.168839E-3
560.004616E-3
559.850121E-3
559.650421E-3
559.473610E-3
558.939743E-3
558.839035E-3
558.725739E-3
558.495140E-3
558.270264E-3
557.889748E-3
557.511520E-3
557.229996E-3
557.036591E-3
556.908417E-3
557.049179E-3
557.747841E-3
559.440994E-3
561.991310E-3
565.442276E-3
569.260597E-3
573.011971E-3
576.428032E-3
579.134560E-3
580.835152E-3
581.331253E-3
581.140137E-3
580.053520E-3
578.514290E-3
576.865196E-3
575.189209E-3
573.693466E-3
572.458649E-3
571.263885E-3
570.652199E-3
570.161819E-3
569.883728E-3
569.902611E-3
569.956970E-3
570.251656E-3
570.207596E-3
570.315742E-3
569.894600E-3
569.081497E-3
568.492699E-3
567.843246E-3
567.510223E-3
567.438126E-3
567.543983E-3
567.896461E-3
568.389702E-3
568.684959E-3
569.001389E-3
569.094086E-3
569.272041E-3
569.155884E-3
568.929863E-3
568.531036E-3
567.890167E-3
567.435837E-3
566.789246E-3
566.245079E-3
565.625954E-3
565.003967E-3
564.584541E-3
564.023209E-3
563.607216E-3
563.313675E-3
562.897110E-3
562.802696E-3
562.447929E-3
562.210464E-3
562.039948E-3
561.779022E-3
561.628532E-3
561.556435E-3
561.471176E-3
561.375046E-3
561.114120E-3
561.074638E-3
560.874367E-3
560.803986E-3
560.769653E-3
560.556793E-3
560.529327E-3
560.414886E-3
560.133934E-3
560.304451E-3
560.092735E-3
560.080719E-3
559.908485E-3
559.664154E-3
559.589767E-3
559.102821E-3
558.949471E-3
558.804131E-3
558.519173E-3
558.291435E-3
557.874870E-3
557.514954E-3
557.088089E-3
556.665802E-3
556.585121E-3
556.131363E-3
555.982590E-3
555.857277E-3
556.228065E-3
557.599068E-3
559.834099E-3
563.131714E-3
566.524315E-3
570.152092E-3
573.454857E-3
576.061821E-3
577.955818E-3
578.815842E-3
578.712273E-3
577.911758E-3
576.612854E-3
575.197792E-3
573.513222E-3
571.977425E-3
570.648766E-3
569.498062E-3
568.804550E-3
568.234634E-3
567.875290E-3
567.866135E-3
567.862129E-3
568.092155E-3
568.107033E-3
567.863274E-3
567.451286E-3
566.849327E-3
566.094589E-3
565.556145E-3
565.209389E-3
565.139580E-3
565.155602E-3
565.510368E-3
565.744400E-3
566.141510E-3
566.435051E-3
566.550636E-3
566.713142E-3
566.514587E-3
566.359520E-3
565.994453E-3
565.583038E-3
565.097237E-3
564.495277E-3
563.878441E-3
563.282776E-3
562.695122E-3
562.186432E-3
561.611366E-3
561.300087E-3
561.003113E-3
560.551643E-3
560.298729E-3
560.161972E-3
560.082436E-3
559.961128E-3
559.839249E-3
559.785461E-3
559.693336E-3
559.586334E-3
559.529686E-3
559.457588E-3
559.343719E-3
559.150314E-3
559.062767E-3
559.099388E-3
558.928871E-3
558.790970E-3
558.674240E-3
558.569527E-3
558.467102E-3
558.338928E-3
558.256531E-3
558.060837E-3
558.047676E-3
557.920074E-3
557.816505E-3
557.659149E-3
557.566452E-3
557.324982E-3
557.096100E-3
556.911278E-3
556.620598E-3
556.345367E-3
555.935097E-3
555.755424E-3
555.386353E-3
555.004120E-3
554.628181E-3
554.398727E-3
554.639626E-3
554.680252E-3
555.635834E-3
557.593346E-3
560.631752E-3
564.188004E-3
567.893028E-3
571.573448E-3
574.683380E-3
576.819992E-3
578.382683E-3
578.697968E-3
578.310013E-3
577.288628E-3
575.885582E-3
574.365807E-3
572.811127E-3
571.463585E-3
570.042801E-3
569.408798E-3
568.948174E-3
568.737602E-3
568.773079E-3
568.858910E-3
568.995667E-3
569.471741E-3
569.408226E-3
569.756126E-3
569.090652E-3
568.325043E-3
567.573166E-3
566.722298E-3
566.293716E-3
566.011047E-3
565.643692E-3
566.018486E-3
566.203308E-3
566.570091E-3
566.829872E-3
567.023849E-3
567.137718E-3
566.882515E-3
566.665649E-3
566.055679E-3
565.891457E-3
565.530396E-3
564.879799E-3
564.381981E-3
563.828087E-3
563.349724E-3
562.866783E-3
562.297440E-3
561.781883E-3
561.388206E-3
560.973358E-3
560.635757E-3
560.379410E-3
560.226631E-3
560.160828E-3
559.879303E-3
559.953117E-3
559.957123E-3
559.692192E-3
559.366608E-3
559.164619E-3
559.193230E-3
559.019279E-3
558.946037E-3
559.076500E-3
558.975792E-3
558.991814E-3
558.792686E-3
558.574677E-3
558.459663E-3
558.363533E-3
558.429337E-3
558.206749E-3
558.159256E-3
558.141518E-3
558.283424E-3
558.181572E-3
557.879448E-3
557.755280E-3
557.608223E-3
557.346725E-3
557.161903E-3
556.911278E-3
