Notes :


2023-11-10 ¿ÀÈÄ 11:57:55
Volts
Ch : LED 2,
690.908432E-3
690.706444E-3
690.050125E-3
689.513969E-3
688.895988E-3
688.122940E-3
687.513542E-3
686.806297E-3
686.113930E-3
685.641289E-3
684.908295E-3
684.461403E-3
684.092903E-3
683.746719E-3
683.471489E-3
683.109283E-3
683.036041E-3
682.708740E-3
682.418060E-3
681.931686E-3
681.539726E-3
681.407547E-3
681.113434E-3
680.947495E-3
680.668259E-3
680.422783E-3
680.254555E-3
679.898071E-3
679.708099E-3
679.722404E-3
679.392815E-3
679.215431E-3
678.925896E-3
678.746223E-3
678.696442E-3
678.406334E-3
678.365135E-3
678.164291E-3
678.059006E-3
678.090477E-3
678.004074E-3
678.022385E-3
677.927971E-3
677.804375E-3
677.507973E-3
677.211571E-3
676.980400E-3
676.597023E-3
676.058006E-3
675.629425E-3
674.982262E-3
674.626923E-3
674.118233E-3
674.052429E-3
674.048424E-3
674.497032E-3
676.235962E-3
679.039192E-3
683.157349E-3
688.015366E-3
693.050194E-3
697.964859E-3
701.977158E-3
705.016708E-3
706.521034E-3
706.640053E-3
705.802917E-3
703.955841E-3
701.749992E-3
699.318123E-3
696.960640E-3
695.074081E-3
693.361473E-3
692.235374E-3
691.598511E-3
691.132164E-3
691.152191E-3
691.210556E-3
691.605377E-3
691.950417E-3
691.934395E-3
691.819954E-3
690.939903E-3
689.855003E-3
688.584137E-3
687.363625E-3
686.470413E-3
685.895348E-3
685.758018E-3
685.970879E-3
686.107063E-3
686.869812E-3
687.460899E-3
688.016510E-3
688.200760E-3
688.223076E-3
688.153839E-3
687.849998E-3
687.511253E-3
687.067223E-3
686.325073E-3
685.885048E-3
685.247040E-3
684.805298E-3
684.212494E-3
683.645439E-3
683.060646E-3
682.585144E-3
682.115936E-3
681.603241E-3
681.117439E-3
680.857086E-3
680.493164E-3
680.107498E-3
679.682350E-3
679.286957E-3
678.992271E-3
678.656960E-3
678.487015E-3
678.200340E-3
677.806091E-3
677.589798E-3
677.328873E-3
677.047920E-3
676.990700E-3
676.580429E-3
676.401901E-3
676.070023E-3
675.766754E-3
675.568771E-3
675.236893E-3
675.096130E-3
674.826050E-3
674.684143E-3
674.450684E-3
674.223518E-3
674.198914E-3
673.939133E-3
673.881912E-3
673.718262E-3
673.370934E-3
673.390961E-3
673.069954E-3
672.835922E-3
672.595024E-3
672.200775E-3
672.015953E-3
671.673203E-3
671.240044E-3
670.981979E-3
670.624352E-3
670.519638E-3
670.183182E-3
670.386314E-3
670.834923E-3
672.068024E-3
674.808884E-3
678.766251E-3
683.696938E-3
689.047623E-3
694.139099E-3
698.781967E-3
702.070999E-3
703.975868E-3
704.570389E-3
703.773308E-3
702.175713E-3
700.068283E-3
697.655869E-3
695.193100E-3
692.958641E-3
691.308403E-3
689.861870E-3
688.936615E-3
688.360405E-3
688.178444E-3
688.295174E-3
688.308907E-3
688.552094E-3
688.697433E-3
688.466263E-3
687.873459E-3
686.735344E-3
685.637856E-3
684.423637E-3
683.462334E-3
683.189964E-3
683.006859E-3
683.073807E-3
683.619690E-3
684.096336E-3
684.624481E-3
684.925461E-3
685.085106E-3
685.153770E-3
684.923172E-3
684.601021E-3
684.074020E-3
683.470345E-3
682.901573E-3
682.204056E-3
681.681061E-3
680.908585E-3
680.328941E-3
679.714966E-3
678.956795E-3
678.614044E-3
678.188896E-3
677.677345E-3
677.316284E-3
676.830482E-3
676.515198E-3
676.131821E-3
675.799942E-3
675.481796E-3
675.081253E-3
674.904442E-3
674.559975E-3
674.344254E-3
674.117661E-3
673.854446E-3
673.820686E-3
673.632431E-3
673.582077E-3
673.582649E-3
673.465919E-3
673.404121E-3
673.188400E-3
673.092842E-3
673.092842E-3
672.908020E-3
672.795868E-3
672.728348E-3
672.668266E-3
672.573280E-3
672.339821E-3
672.356987E-3
672.233391E-3
671.968460E-3
671.873474E-3
671.448898E-3
671.255493E-3
670.869255E-3
670.528221E-3
670.376587E-3
669.980621E-3
669.921112E-3
669.556046E-3
669.508553E-3
669.486237E-3
669.598389E-3
670.408058E-3
672.188187E-3
675.397110E-3
679.490089E-3
683.971024E-3
688.978386E-3
693.343735E-3
696.735764E-3
699.212837E-3
700.022507E-3
699.785042E-3
698.455238E-3
696.477127E-3
694.247818E-3
691.608238E-3
689.323997E-3
687.261200E-3
685.585213E-3
684.407616E-3
683.453751E-3
683.053780E-3
682.769966E-3
682.883263E-3
682.942200E-3
682.682991E-3
682.359123E-3
681.662178E-3
680.677414E-3
679.587364E-3
678.571701E-3
678.168297E-3
677.875328E-3
678.112221E-3
678.732491E-3
679.287529E-3
680.100060E-3
680.765533E-3
681.404114E-3
681.835556E-3
681.879044E-3
681.982613E-3
681.447029E-3
680.917168E-3
680.349541E-3
679.623413E-3
678.979111E-3
678.392029E-3
677.790070E-3
677.153778E-3
676.341248E-3
676.054001E-3
675.564766E-3
675.255775E-3
674.978828E-3
674.584579E-3
674.466133E-3
674.308777E-3
674.049568E-3
673.808670E-3
673.465347E-3
673.297691E-3
673.038483E-3
672.815895E-3
672.586441E-3
672.266006E-3
672.138977E-3
671.927834E-3
671.796227E-3
671.617699E-3
671.270370E-3
671.324158E-3
671.039200E-3
670.762253E-3
670.639801E-3
670.325089E-3
670.121956E-3
669.876480E-3
669.711113E-3
669.642448E-3
669.453621E-3
669.419861E-3
669.268227E-3
669.065094E-3
669.077682E-3
668.797874E-3
668.638229E-3
668.487740E-3
668.226814E-3
668.059158E-3
667.595673E-3
667.280388E-3
666.854095E-3
666.543961E-3
666.160011E-3
665.700531E-3
665.480232E-3
665.281105E-3
665.242767E-3
665.919113E-3
667.480659E-3
670.632362E-3
674.709320E-3
679.948997E-3
685.326576E-3
690.221786E-3
694.506454E-3
697.362900E-3
698.810005E-3
699.048042E-3
697.919083E-3
696.038818E-3
693.875313E-3
691.518974E-3
689.280510E-3
687.152481E-3
685.639572E-3
684.480858E-3
683.663750E-3
683.305550E-3
683.306122E-3
683.565903E-3
683.869171E-3
683.981323E-3
684.164429E-3
683.991623E-3
683.593369E-3
682.677269E-3
681.493950E-3
680.568695E-3
679.373360E-3
678.872681E-3
678.584862E-3
678.675270E-3
679.070091E-3
679.347610E-3
679.994774E-3
680.342674E-3
680.696869E-3
680.925179E-3
680.765533E-3
680.587006E-3
680.189896E-3
679.685211E-3
679.443169E-3
678.899002E-3
678.278732E-3
677.642441E-3
676.983833E-3
676.603889E-3
676.135826E-3
675.700378E-3
675.369072E-3
674.867821E-3
674.636078E-3
674.173164E-3
674.008369E-3
673.830414E-3
673.313713E-3
673.079109E-3
672.677994E-3
672.519493E-3
672.307777E-3
672.212791E-3
671.907234E-3
671.484947E-3
671.447754E-3
671.158218E-3
670.899010E-3
670.774841E-3
670.473862E-3
670.400620E-3
670.181465E-3
670.087051E-3
670.018387E-3
669.799805E-3
669.642448E-3
669.450188E-3
669.342613E-3
669.347763E-3
669.102287E-3
669.235039E-3
669.137192E-3
668.876839E-3
668.839073E-3
668.524361E-3
668.582726E-3
668.463135E-3
668.246269E-3
668.092918E-3
667.567062E-3
667.250061E-3
666.898155E-3
666.549110E-3
666.280746E-3
665.835571E-3
665.820694E-3
665.822411E-3
665.968323E-3
666.850090E-3
668.758392E-3
672.140121E-3
676.392746E-3
681.342316E-3
686.443520E-3
690.950203E-3
694.513321E-3
696.776962E-3
697.653008E-3
697.273064E-3
695.875740E-3
693.949699E-3
691.584778E-3
689.204407E-3
687.040901E-3
685.184669E-3
683.899498E-3
682.935905E-3
682.277870E-3
682.147408E-3
682.348251E-3
682.638359E-3
682.922745E-3
683.154488E-3
683.315849E-3
683.012581E-3
682.498169E-3
681.401253E-3
680.114937E-3
679.229736E-3
678.392029E-3
678.089333E-3
678.120804E-3
678.373718E-3
679.031754E-3
679.652023E-3
680.285454E-3
680.810738E-3
681.095123E-3
681.217003E-3
681.130600E-3
680.768967E-3
680.136681E-3
679.767036E-3
679.403114E-3
678.642654E-3
678.053284E-3
677.439880E-3
676.827621E-3
676.378441E-3
675.834274E-3
675.373077E-3
675.007439E-3
674.608612E-3
674.268723E-3
673.960304E-3
673.693657E-3
673.372078E-3
673.063660E-3
672.859383E-3
672.573853E-3
672.290611E-3
672.122955E-3
671.772194E-3
671.674347E-3
671.368790E-3
671.147346E-3
671.076393E-3
670.779991E-3
670.676422E-3
670.412636E-3
670.283890E-3
670.009804E-3
669.731140E-3
669.656754E-3
669.470215E-3
669.368362E-3
669.120026E-3
668.813896E-3
668.753242E-3
668.448257E-3
668.415642E-3
668.287468E-3
668.189621E-3
668.121529E-3
667.921257E-3
667.698669E-3
667.360497E-3
667.137337E-3
666.964531E-3
666.464996E-3
666.194344E-3
665.824127E-3
665.536880E-3
665.235901E-3
665.131187E-3
665.024757E-3
664.983559E-3
665.131187E-3
665.939140E-3
667.307281E-3
670.244408E-3
674.197769E-3
678.866959E-3
683.996201E-3
688.488007E-3
692.294884E-3
694.890404E-3
696.103477E-3
696.251678E-3
695.052910E-3
693.516541E-3
691.316414E-3
689.343452E-3
687.258911E-3
685.454750E-3
684.075165E-3
683.028603E-3
682.355690E-3
682.172585E-3
682.111359E-3
682.561111E-3
682.730484E-3
682.863808E-3
682.959938E-3
682.514191E-3
681.704521E-3
680.763817E-3
679.640579E-3
678.916168E-3
678.402901E-3
678.537941E-3
678.980255E-3
679.512978E-3
680.313492E-3
681.020164E-3
681.768608E-3
682.140541E-3
682.112503E-3
682.130241E-3
681.716537E-3
681.428719E-3
680.873680E-3
680.152702E-3
679.564476E-3
678.881836E-3
678.518486E-3
677.905083E-3
677.322578E-3
677.093697E-3
676.579285E-3
676.316643E-3
675.958443E-3
675.588226E-3
675.430298E-3
675.161362E-3
674.973679E-3
674.684143E-3
674.317360E-3
674.190331E-3
673.785210E-3
673.534584E-3
673.162079E-3
672.890282E-3
672.787285E-3
672.391319E-3
672.216225E-3
671.968460E-3
671.701813E-3
671.640015E-3
671.344185E-3
671.246338E-3
671.151352E-3
670.862961E-3
670.826340E-3
670.652962E-3
670.678139E-3
670.479012E-3
670.281029E-3
670.336533E-3
670.167160E-3
670.026970E-3
669.896507E-3
669.639587E-3
669.617271E-3
669.344902E-3
669.014168E-3
668.578720E-3
668.104362E-3
667.825127E-3
667.500114E-3
667.134476E-3
666.992569E-3
666.755676E-3
666.784286E-3
666.856384E-3
667.456627E-3
668.734360E-3
671.322441E-3
675.247192E-3
679.833984E-3
684.948349E-3
689.868736E-3
693.963432E-3
697.104836E-3
698.616028E-3
698.971367E-3
698.108482E-3
696.380424E-3
694.408035E-3
692.189026E-3
690.088463E-3
688.241959E-3
686.697006E-3
685.750008E-3
685.029030E-3
684.868813E-3
684.867096E-3
685.012436E-3
685.371780E-3
685.693359E-3
686.048698E-3
685.869026E-3
685.258484E-3
684.477425E-3
683.144760E-3
681.838417E-3
680.774117E-3
680.091476E-3
680.049133E-3
680.270004E-3
680.798149E-3
681.499100E-3
682.046127E-3
682.705879E-3
683.014297E-3
683.250618E-3
683.190536E-3
682.909012E-3
682.435226E-3
681.915665E-3
681.343460E-3
680.775261E-3
680.091476E-3
679.516411E-3
678.972816E-3
678.512764E-3
678.029823E-3
677.724838E-3
677.473068E-3
677.036476E-3
676.696014E-3
676.385880E-3
676.069450E-3
675.867462E-3
675.555038E-3
675.278091E-3
674.919319E-3
674.700737E-3
674.409485E-3
674.236107E-3
674.042702E-3
673.851013E-3
673.703957E-3
673.491096E-3
673.312569E-3
673.219872E-3
673.172379E-3
672.996140E-3
672.932053E-3
672.752953E-3
672.704887E-3
672.462273E-3
672.354126E-3
672.410774E-3
672.017670E-3
671.927261E-3
671.800804E-3
671.545029E-3
671.563339E-3
671.464348E-3
671.273232E-3
671.293259E-3
671.103859E-3
671.006012E-3
670.774269E-3
670.711327E-3
670.456696E-3
670.207214E-3
670.046425E-3
669.629288E-3
669.364357E-3
668.899727E-3
668.589592E-3
668.215942E-3
667.741585E-3
667.529869E-3
667.402267E-3
667.448616E-3
667.850876E-3
668.696594E-3
671.043205E-3
674.569702E-3
678.935623E-3
684.032822E-3
688.980103E-3
693.488503E-3
696.753502E-3
698.680115E-3
699.331284E-3
698.703575E-3
697.390366E-3
695.429993E-3
693.190956E-3
691.302109E-3
689.298248E-3
687.905502E-3
686.903572E-3
686.116791E-3
685.794640E-3
685.881615E-3
686.153412E-3
686.500168E-3
686.841774E-3
687.320709E-3
687.318993E-3
687.050056E-3
686.262703E-3
684.982681E-3
683.648300E-3
682.514763E-3
681.715965E-3
681.471062E-3
681.337166E-3
681.884766E-3
682.220078E-3
682.890701E-3
683.482361E-3
683.864594E-3
684.149551E-3
684.023666E-3
683.751297E-3
683.378220E-3
682.876396E-3
682.333374E-3
681.437302E-3
681.003571E-3
680.414200E-3
679.815674E-3
679.458046E-3
678.813171E-3
678.331947E-3
677.884483E-3
677.581215E-3
677.268791E-3
676.702309E-3
676.390457E-3
676.142120E-3
675.823975E-3
675.706673E-3
675.345612E-3
675.187111E-3
674.862099E-3
674.662399E-3
674.624062E-3
674.304771E-3
674.171448E-3
673.893929E-3
673.630714E-3
673.534584E-3
673.326302E-3
673.171806E-3
673.150063E-3
672.933197E-3
672.773552E-3
672.475433E-3
672.325516E-3
672.163582E-3
671.991348E-3
671.839142E-3
671.712112E-3
671.515846E-3
671.347046E-3
671.001434E-3
671.063232E-3
670.898437E-3
670.689011E-3
670.568275E-3
670.414925E-3
670.372009E-3
670.065880E-3
669.953156E-3
669.712257E-3
669.389534E-3
669.213295E-3
668.690872E-3
668.346977E-3
668.016243E-3
667.555046E-3
667.323303E-3
666.963387E-3
666.807747E-3
666.882133E-3
666.806602E-3
667.421150E-3
668.770409E-3
671.438599E-3
675.152779E-3
679.586792E-3
684.618759E-3
689.077377E-3
692.738914E-3
695.291519E-3
696.447372E-3
696.394730E-3
695.282364E-3
693.601227E-3
691.520119E-3
689.375496E-3
687.605095E-3
685.958862E-3
684.716034E-3
683.837128E-3
683.278656E-3
683.268929E-3
683.334732E-3
683.697510E-3
684.147835E-3
684.465408E-3
684.856796E-3
684.465981E-3
683.792496E-3
682.768822E-3
681.571770E-3
680.436516E-3
679.598236E-3
679.317284E-3
679.382515E-3
679.772758E-3
680.472565E-3
681.071663E-3
681.810951E-3
682.194328E-3
682.386589E-3
682.357979E-3
682.056427E-3
681.706238E-3
681.290245E-3
680.787849E-3
680.429077E-3
679.759598E-3
679.355621E-3
678.900146E-3
678.308487E-3
677.983475E-3
677.656746E-3
677.398682E-3
677.081680E-3
676.859093E-3
676.629639E-3
676.383018E-3
676.165581E-3
676.008797E-3
675.629997E-3
675.501823E-3
675.199699E-3
674.993134E-3
674.785995E-3
674.593735E-3
674.448967E-3
674.302483E-3
674.161148E-3
674.106216E-3
673.992348E-3
673.986053E-3
673.774338E-3
673.602676E-3
673.630142E-3
673.606682E-3
673.481941E-3
673.274803E-3
673.314857E-3
673.171234E-3
673.015022E-3
672.982979E-3
673.040771E-3
672.925758E-3
672.811317E-3
672.651100E-3
672.601318E-3
672.542953E-3
672.388458E-3
672.292328E-3
671.915817E-3
671.855736E-3
671.361923E-3
670.897865E-3
670.674706E-3
670.323372E-3
670.025253E-3
669.688797E-3
669.644165E-3
669.535446E-3
669.434166E-3
669.929123E-3
670.703888E-3
672.799873E-3
675.950432E-3
679.981613E-3
684.534645E-3
689.055061E-3
693.239021E-3
696.195602E-3
697.775459E-3
698.208046E-3
697.489929E-3
696.076012E-3
694.223213E-3
692.112350E-3
690.332794E-3
688.505173E-3
687.125015E-3
686.136818E-3
685.491943E-3
685.390091E-3
685.366058E-3
685.622406E-3
686.358261E-3
686.524200E-3
686.884117E-3
686.625481E-3
685.951996E-3
684.872818E-3
683.549309E-3
682.598305E-3
681.719971E-3
681.269073E-3
681.607819E-3
681.927109E-3
682.743645E-3
683.441734E-3
684.245110E-3
684.827614E-3
685.099411E-3
685.191536E-3
685.045624E-3
684.538651E-3
684.151840E-3
683.449173E-3
682.916451E-3
682.304192E-3
681.761742E-3
681.286812E-3
680.733490E-3
680.294609E-3
679.872894E-3
679.454613E-3
679.118729E-3
678.757668E-3
678.569984E-3
678.309631E-3
678.034973E-3
677.794075E-3
677.437019E-3
677.261925E-3
676.960945E-3
676.836205E-3
676.649094E-3
676.234818E-3
676.277733E-3
676.001358E-3
675.852013E-3
675.635719E-3
675.331879E-3
