Notes :


2023-10-22 ¿ÀÀü 10:54:58
Volts
Ch : LED 2,
542.692566E-3
543.109703E-3
543.143463E-3
543.413544E-3
543.754578E-3
543.555450E-3
543.942261E-3
543.915367E-3
544.067574E-3
544.257545E-3
544.278145E-3
544.544792E-3
544.476128E-3
544.501877E-3
544.623756E-3
544.433212E-3
544.725609E-3
544.611168E-3
544.627190E-3
544.851494E-3
544.627190E-3
544.882965E-3
544.814301E-3
544.620323E-3
544.816589E-3
544.385147E-3
544.769096E-3
544.830894E-3
544.881821E-3
545.210838E-3
545.014572E-3
545.231438E-3
545.183945E-3
545.048904E-3
545.321274E-3
545.324135E-3
545.449448E-3
545.502663E-3
545.564461E-3
545.795631E-3
545.093536E-3
545.892906E-3
546.011925E-3
546.219063E-3
546.399307E-3
546.332359E-3
546.582413E-3
546.459961E-3
546.205902E-3
546.251678E-3
545.661163E-3
545.166779E-3
544.003487E-3
542.932320E-3
542.314339E-3
541.363907E-3
540.972519E-3
540.652657E-3
540.509605E-3
540.625191E-3
540.467262E-3
540.801430E-3
540.906715E-3
540.898705E-3
541.222000E-3
541.115570E-3
541.493225E-3
541.637421E-3
541.514969E-3
541.786766E-3
541.727829E-3
542.138672E-3
542.207909E-3
542.308617E-3
542.707443E-3
542.734337E-3
543.156624E-3
543.357468E-3
543.146324E-3
543.237877E-3
542.336655E-3
542.818451E-3
542.963219E-3
542.725754E-3
542.980385E-3
542.782974E-3
543.007278E-3
542.939186E-3
542.967224E-3
543.067360E-3
543.061638E-3
543.527412E-3
543.665886E-3
543.863297E-3
544.139099E-3
544.191742E-3
544.687843E-3
544.874954E-3
544.810295E-3
545.107269E-3
544.882965E-3
545.119286E-3
545.425987E-3
545.401382E-3
545.586205E-3
545.401955E-3
545.680046E-3
545.761299E-3
545.572472E-3
545.723534E-3
545.595932E-3
545.874023E-3
545.935822E-3
545.897484E-3
545.963860E-3
545.768166E-3
546.143532E-3
546.042824E-3
546.017647E-3
546.260262E-3
546.084595E-3
546.250534E-3
546.248245E-3
546.231079E-3
546.490860E-3
546.295738E-3
546.609306E-3
546.628761E-3
546.724892E-3
546.997833E-3
546.895409E-3
547.266197E-3
547.297668E-3
547.329712E-3
547.673607E-3
547.588921E-3
547.786903E-3
547.900200E-3
547.691345E-3
547.275925E-3
546.683693E-3
546.337509E-3
545.416832E-3
544.265556E-3
543.450737E-3
542.338943E-3
542.148399E-3
541.744423E-3
541.442871E-3
541.647148E-3
541.479492E-3
541.830254E-3
541.943550E-3
541.900635E-3
542.229652E-3
542.184448E-3
542.603302E-3
542.705727E-3
542.576981E-3
542.717171E-3
542.516327E-3
542.827034E-3
543.006134E-3
542.922592E-3
543.427277E-3
543.395233E-3
543.832970E-3
543.946838E-3
543.975449E-3
544.112206E-3
543.759155E-3
543.861580E-3
543.804359E-3
543.601227E-3
543.678474E-3
543.635559E-3
543.750572E-3
543.868446E-3
543.636703E-3
543.936539E-3
543.950844E-3
544.305611E-3
544.528770E-3
544.557953E-3
544.937325E-3
545.055771E-3
545.308685E-3
545.597076E-3
545.595360E-3
545.838547E-3
545.822525E-3
546.075439E-3
546.133804E-3
546.011353E-3
546.368408E-3
546.232224E-3
546.477699E-3
546.582413E-3
546.442223E-3
546.539497E-3
546.468544E-3
546.767807E-3
546.655083E-3
546.592140E-3
546.843910E-3
546.712303E-3
546.878242E-3
547.001839E-3
546.763802E-3
546.986389E-3
546.875381E-3
547.115135E-3
547.271919E-3
547.147751E-3
547.373199E-3
547.304535E-3
547.539711E-3
547.626114E-3
547.539139E-3
547.756577E-3
547.750282E-3
548.027229E-3
548.051262E-3
547.904205E-3
548.313904E-3
548.377991E-3
548.641777E-3
548.684120E-3
548.606873E-3
548.760223E-3
548.723602E-3
548.572540E-3
548.105621E-3
547.360611E-3
546.590424E-3
545.487785E-3
544.588852E-3
543.623543E-3
542.881966E-3
542.788124E-3
542.365265E-3
542.341805E-3
542.543793E-3
542.432785E-3
542.780685E-3
542.793846E-3
542.934608E-3
543.281937E-3
542.989540E-3
543.342018E-3
543.200111E-3
543.395233E-3
543.462753E-3
543.070793E-3
543.419266E-3
543.448448E-3
543.658447E-3
543.910217E-3
543.910789E-3
544.337654E-3
544.207764E-3
544.349098E-3
544.384003E-3
543.927956E-3
543.931961E-3
543.795204E-3
543.806648E-3
543.919373E-3
543.597794E-3
543.977165E-3
543.922806E-3
544.000626E-3
544.162560E-3
543.995476E-3
544.466400E-3
544.526482E-3
544.695282E-3
544.785118E-3
544.832611E-3
545.331573E-3
545.265770E-3
545.417976E-3
545.667458E-3
545.372200E-3
545.851135E-3
545.764732E-3
545.811081E-3
545.979881E-3
545.839119E-3
546.248245E-3
546.055984E-3
545.968437E-3
545.919228E-3
545.117569E-3
545.772743E-3
545.726395E-3
545.771599E-3
545.927238E-3
545.916367E-3
546.120644E-3
545.967293E-3
546.043396E-3
545.934677E-3
545.709229E-3
546.168709E-3
546.046829E-3
546.068573E-3
546.289444E-3
546.148682E-3
546.676826E-3
546.572113E-3
546.585274E-3
546.787262E-3
546.624756E-3
547.206116E-3
547.117996E-3
547.172356E-3
547.388077E-3
547.245026E-3
547.802925E-3
547.581482E-3
547.695923E-3
547.798347E-3
547.658730E-3
548.167992E-3
547.633553E-3
546.987534E-3
546.332359E-3
545.355034E-3
544.754219E-3
543.686485E-3
542.908859E-3
542.556381E-3
542.071724E-3
542.321777E-3
542.152405E-3
542.130661E-3
542.490005E-3
542.464828E-3
542.879677E-3
542.842484E-3
543.063354E-3
543.241310E-3
543.140030E-3
543.442726E-3
543.327713E-3
543.363762E-3
543.597221E-3
543.674469E-3
544.112206E-3
544.097900E-3
544.356537E-3
544.719315E-3
544.683838E-3
545.070648E-3
544.703293E-3
544.608307E-3
544.550514E-3
544.393730E-3
544.616318E-3
544.359970E-3
544.246674E-3
544.478989E-3
544.362831E-3
544.800568E-3
544.738197E-3
544.893837E-3
545.289230E-3
545.374489E-3
545.813942E-3
545.653152E-3
545.767021E-3
546.084595E-3
546.198463E-3
546.479416E-3
546.464539E-3
546.608162E-3
546.817589E-3
546.766663E-3
547.175217E-3
547.127724E-3
547.165489E-3
547.134018E-3
546.850204E-3
547.406387E-3
547.491646E-3
547.459030E-3
547.571754E-3
547.536850E-3
547.789192E-3
547.634125E-3
547.515106E-3
547.846413E-3
547.773170E-3
548.035240E-3
547.924805E-3
547.751427E-3
547.979736E-3
547.898483E-3
548.276138E-3
548.208618E-3
548.453522E-3
548.653221E-3
548.476410E-3
548.855209E-3
548.930740E-3
549.079514E-3
549.224854E-3
549.160194E-3
549.397659E-3
549.624825E-3
549.627686E-3
549.744415E-3
549.651718E-3
549.906921E-3
549.625969E-3
549.145317E-3
548.680115E-3
547.785759E-3
547.029305E-3
545.946693E-3
545.121002E-3
544.576836E-3
543.975449E-3
544.044685E-3
543.796349E-3
543.712234E-3
543.939972E-3
543.978882E-3
544.340515E-3
544.471550E-3
544.658661E-3
544.873810E-3
544.798851E-3
545.172501E-3
545.207405E-3
545.182800E-3
545.454597E-3
545.450020E-3
545.710373E-3
545.859718E-3
545.761871E-3
546.215630E-3
546.339226E-3
546.862793E-3
546.659088E-3
546.673965E-3
546.658516E-3
546.407890E-3
546.341515E-3
546.205330E-3
546.132660E-3
546.214485E-3
545.709229E-3
546.316338E-3
546.279716E-3
546.379852E-3
546.685410E-3
546.620750E-3
547.194672E-3
547.377205E-3
547.563744E-3
547.826385E-3
546.996117E-3
547.881317E-3
548.091888E-3
548.233795E-3
548.518753E-3
548.350525E-3
548.876953E-3
549.011993E-3
548.901558E-3
548.991394E-3
548.827744E-3
549.112129E-3
549.139595E-3
549.087524E-3
549.189949E-3
548.740196E-3
549.207687E-3
549.422264E-3
549.403381E-3
549.469757E-3
549.433136E-3
549.613953E-3
549.778175E-3
549.706078E-3
549.821663E-3
549.627686E-3
549.980736E-3
550.098610E-3
549.939537E-3
550.146675E-3
550.102615E-3
550.286865E-3
550.308037E-3
550.324631E-3
550.540352E-3
550.305748E-3
550.569534E-3
550.717735E-3
550.853920E-3
551.037025E-3
550.979233E-3
551.386642E-3
551.352310E-3
551.174355E-3
551.150894E-3
550.762367E-3
550.474548E-3
549.870300E-3
548.719597E-3
547.738266E-3
546.514320E-3
545.985031E-3
545.467186E-3
544.921875E-3
544.854927E-3
544.665527E-3
545.065498E-3
545.199394E-3
545.141602E-3
545.355606E-3
545.325851E-3
545.832253E-3
545.924377E-3
545.795631E-3
545.875168E-3
545.709229E-3
545.950699E-3
546.215057E-3
546.070862E-3
546.256256E-3
546.176147E-3
546.557236E-3
546.787834E-3
546.863365E-3
547.079659E-3
546.863937E-3
546.873665E-3
546.831894E-3
546.583557E-3
546.607018E-3
546.286011E-3
546.248245E-3
546.454811E-3
546.298027E-3
546.497154E-3
546.397591E-3
546.658516E-3
546.891975E-3
546.894264E-3
547.218132E-3
547.174072E-3
547.522545E-3
547.610664E-3
547.643852E-3
547.959709E-3
547.967720E-3
548.247528E-3
548.373413E-3
548.215485E-3
548.470116E-3
548.432350E-3
548.720169E-3
548.844337E-3
548.755074E-3
549.011421E-3
548.851776E-3
548.975372E-3
549.119568E-3
548.874664E-3
549.014282E-3
548.998260E-3
549.100113E-3
549.117279E-3
549.006271E-3
549.255180E-3
549.128723E-3
549.334717E-3
549.362755E-3
548.741341E-3
549.207687E-3
549.225426E-3
549.361610E-3
549.578476E-3
549.317551E-3
549.736404E-3
549.663734E-3
549.834251E-3
549.932671E-3
549.834251E-3
550.212479E-3
550.033379E-3
550.405884E-3
550.578690E-3
550.510025E-3
550.754929E-3
550.667953E-3
550.728607E-3
551.028442E-3
550.764656E-3
550.955200E-3
550.445366E-3
550.003052E-3
549.207687E-3
547.976303E-3
547.263336E-3
546.287155E-3
545.796204E-3
545.503235E-3
544.937897E-3
544.930458E-3
544.757652E-3
544.937897E-3
545.020866E-3
544.980812E-3
545.372200E-3
545.451164E-3
545.665169E-3
545.828247E-3
545.807076E-3
546.283150E-3
546.207047E-3
546.330070E-3
546.406746E-3
546.327209E-3
546.745491E-3
546.742058E-3
546.988678E-3
547.358894E-3
547.293663E-3
547.675323E-3
547.335434E-3
547.279930E-3
547.311974E-3
546.997833E-3
547.078514E-3
546.799850E-3
546.731186E-3
546.894264E-3
546.759796E-3
547.206688E-3
547.153473E-3
547.296524E-3
547.533989E-3
547.614670E-3
548.140526E-3
548.116493E-3
548.217201E-3
548.628044E-3
548.118782E-3
548.828888E-3
548.931313E-3
549.080658E-3
549.444580E-3
549.219704E-3
549.793053E-3
549.674606E-3
549.847984E-3
549.915504E-3
549.827385E-3
550.263405E-3
550.094032E-3
550.024796E-3
550.288010E-3
550.193596E-3
550.677109E-3
550.293159E-3
550.369835E-3
550.562668E-3
550.381851E-3
550.728035E-3
550.621605E-3
550.615883E-3
550.774956E-3
550.152397E-3
550.937462E-3
550.883675E-3
550.861359E-3
551.110268E-3
551.024437E-3
551.499367E-3
551.240158E-3
551.254463E-3
551.645851E-3
551.121712E-3
551.969719E-3
551.899910E-3
551.991463E-3
552.346802E-3
552.104187E-3
552.545357E-3
552.331352E-3
552.353668E-3
552.329636E-3
551.904488E-3
551.487923E-3
550.352669E-3
549.362183E-3
548.579979E-3
547.600365E-3
546.972084E-3
546.405029E-3
546.148109E-3
546.089745E-3
545.990181E-3
546.324348E-3
546.201324E-3
546.360970E-3
546.814156E-3
546.960068E-3
547.342300E-3
547.302246E-3
547.262764E-3
547.533989E-3
547.487640E-3
547.899628E-3
547.764015E-3
547.847557E-3
548.123932E-3
548.171997E-3
548.638344E-3
548.787689E-3
548.873520E-3
548.950768E-3
548.889542E-3
548.946762E-3
548.647499E-3
548.522186E-3
548.574829E-3
548.456955E-3
548.631477E-3
548.399162E-3
548.425484E-3
548.759651E-3
548.151398E-3
548.934174E-3
549.118996E-3
549.109840E-3
549.537277E-3
549.603653E-3
549.888611E-3
550.013924E-3
550.211334E-3
550.620461E-3
550.663376E-3
551.035881E-3
550.946617E-3
550.993538E-3
551.196098E-3
551.021004E-3
551.403236E-3
551.350594E-3
551.327705E-3
551.652718E-3
550.662804E-3
551.292801E-3
551.422691E-3
551.435852E-3
551.642990E-3
551.593781E-3
551.734543E-3
551.767731E-3
551.733971E-3
551.879311E-3
551.729965E-3
551.972008E-3
551.890755E-3
551.967430E-3
552.200890E-3
552.038383E-3
552.572823E-3
552.494431E-3
552.417755E-3
552.714729E-3
552.573967E-3
552.933311E-3
552.807999E-3
552.771950E-3
553.024864E-3
552.872658E-3
553.289223E-3
553.377914E-3
553.341866E-3
553.565598E-3
553.479195E-3
553.814507E-3
553.741837E-3
553.689766E-3
553.895760E-3
553.225708E-3
552.821159E-3
551.947403E-3
550.769806E-3
549.925232E-3
548.765945E-3
548.228073E-3
547.601509E-3
547.320557E-3
547.477341E-3
547.231293E-3
547.494507E-3
547.721672E-3
547.682190E-3
548.023224E-3
548.070717E-3
548.466682E-3
548.568535E-3
548.555946E-3
548.738480E-3
548.360825E-3
548.789978E-3
548.917007E-3
548.718452E-3
548.830605E-3
548.816872E-3
549.220848E-3
549.592781E-3
549.573898E-3
549.665451E-3
549.375343E-3
549.476051E-3
549.264908E-3
549.160194E-3
549.238586E-3
548.871231E-3
548.958206E-3
548.911858E-3
548.903275E-3
548.924446E-3
548.874664E-3
549.201965E-3
549.283791E-3
549.366188E-3
549.698067E-3
549.593353E-3
550.015068E-3
550.200462E-3
550.111198E-3
550.360107E-3
550.337791E-3
550.627899E-3
550.705147E-3
550.539780E-3
550.802994E-3
550.667953E-3
550.910568E-3
551.033592E-3
550.871086E-3
550.920296E-3
550.922585E-3
551.203537E-3
551.027298E-3
551.040459E-3
551.047325E-3
550.929451E-3
551.284218E-3
551.432419E-3
551.087379E-3
551.230431E-3
551.105118E-3
551.241875E-3
551.256752E-3
551.076508E-3
551.320839E-3
551.289368E-3
551.688194E-3
551.654434E-3
551.470757E-3
551.636124E-3
551.591492E-3
551.818657E-3
551.961708E-3
551.906204E-3
552.202034E-3
552.113914E-3
552.324486E-3
552.441788E-3
552.400589E-3
552.631760E-3
552.647781E-3
552.801704E-3
552.810287E-3
552.664375E-3
552.689552E-3
552.099609E-3
551.596642E-3
550.679398E-3
549.322701E-3
548.609734E-3
547.859573E-3
547.370911E-3
547.034454E-3
546.637344E-3
546.696281E-3
546.685410E-3
546.930885E-3
547.097397E-3
547.122574E-3
547.372055E-3
547.497368E-3
547.753716E-3
548.071861E-3
547.959137E-3
548.306465E-3
548.246956E-3
548.384857E-3
548.461533E-3
548.476410E-3
548.971367E-3
549.042892E-3
549.378777E-3
549.439430E-3
549.469757E-3
549.422836E-3
549.135017E-3
549.251747E-3
549.104691E-3
548.792267E-3
548.926163E-3
548.648643E-3
548.806000E-3
548.714447E-3
548.669243E-3
548.846626E-3
548.891258E-3
549.033165E-3
549.411964E-3
549.367332E-3
549.858856E-3
549.963570E-3
550.234795E-3
550.500298E-3
550.548935E-3
550.900841E-3
550.779533E-3
550.911140E-3
551.062202E-3
550.979233E-3
551.338577E-3
551.289368E-3
551.466751E-3
551.653862E-3
551.283646E-3
551.483345E-3
551.412392E-3
551.513100E-3
551.797485E-3
551.522255E-3
551.654434E-3
551.758003E-3
551.891899E-3
552.017212E-3
551.919937E-3
552.171707E-3
552.085876E-3
552.236366E-3
552.349091E-3
552.125359E-3
552.468109E-3
552.401161E-3
552.470398E-3
552.588272E-3
552.362251E-3
552.856636E-3
552.830315E-3
552.892113E-3
553.279495E-3
553.118134E-3
553.439140E-3
553.527260E-3
553.499222E-3
553.706360E-3
553.518677E-3
553.864288E-3
553.507233E-3
552.799988E-3
551.972580E-3
550.996399E-3
550.377846E-3
549.355888E-3
548.450661E-3
548.114777E-3
547.702789E-3
547.929382E-3
547.705650E-3
547.701645E-3
548.007774E-3
548.134804E-3
548.622894E-3
548.613739E-3
548.731613E-3
548.978806E-3
548.911285E-3
549.403954E-3
549.190521E-3
549.203682E-3
549.334717E-3
549.402237E-3
549.821091E-3
549.799919E-3
550.099754E-3
550.327492E-3
550.345230E-3
550.604439E-3
550.152397E-3
550.171852E-3
550.168991E-3
549.883461E-3
549.917221E-3
549.559593E-3
549.558449E-3
549.631691E-3
549.560165E-3
549.954414E-3
550.032234E-3
550.059700E-3
550.338936E-3
550.231934E-3
550.833321E-3
550.813866E-3
550.911140E-3
551.247597E-3
