Notes :


2023-10-22 ¿ÀÀü 9:47:47
Volts
Ch : LED 2,
260.035515E-3
261.626816E-3
260.844612E-3
262.190437E-3
262.077713E-3
260.749054E-3
262.471390E-3
260.704994E-3
262.397575E-3
262.605858E-3
261.344147E-3
263.496208E-3
262.786102E-3
264.317894E-3
264.774513E-3
263.842964E-3
265.876007E-3
265.297508E-3
266.881943E-3
266.928291E-3
265.314102E-3
266.365242E-3
264.274406E-3
263.253593E-3
260.278130E-3
255.209541E-3
253.533554E-3
249.346733E-3
248.103333E-3
245.840836E-3
243.097687E-3
243.791199E-3
242.008209E-3
243.804932E-3
244.415474E-3
243.834114E-3
246.136093E-3
246.255112E-3
248.612022E-3
249.393082E-3
248.426628E-3
250.883675E-3
250.097466E-3
251.640129E-3
251.642418E-3
250.007057E-3
251.716805E-3
251.073647E-3
252.715874E-3
253.424835E-3
252.451515E-3
254.623604E-3
254.002190E-3
255.203247E-3
254.918861E-3
253.030586E-3
254.128647E-3
252.441216E-3
253.124428E-3
252.588272E-3
250.365829E-3
251.761436E-3
250.834465E-3
252.131653E-3
252.528191E-3
251.103401E-3
253.175354E-3
252.469254E-3
254.279709E-3
254.837036E-3
253.758430E-3
255.747986E-3
255.289078E-3
256.973648E-3
257.152176E-3
255.952835E-3
258.124924E-3
257.418251E-3
259.198380E-3
259.306526E-3
257.733536E-3
259.534836E-3
258.596420E-3
260.078430E-3
260.206032E-3
258.743477E-3
260.283279E-3
259.511375E-3
260.718155E-3
260.708427E-3
259.187508E-3
260.730171E-3
259.382057E-3
261.051750E-3
260.852051E-3
259.455872E-3
260.918999E-3
259.855843E-3
261.322975E-3
261.245155E-3
259.619522E-3
261.345863E-3
260.553360E-3
261.841965E-3
261.956978E-3
260.652351E-3
262.520027E-3
261.704063E-3
263.383484E-3
263.990021E-3
262.613869E-3
264.733315E-3
264.190865E-3
265.850830E-3
265.878868E-3
263.650131E-3
264.194298E-3
260.964775E-3
259.176636E-3
255.773735E-3
250.936890E-3
249.501228E-3
245.949554E-3
245.094681E-3
243.743134E-3
241.619110E-3
243.042183E-3
241.504669E-3
243.767166E-3
244.565392E-3
243.898201E-3
246.572113E-3
246.758080E-3
248.977089E-3
249.575615E-3
248.921013E-3
250.830460E-3
250.038528E-3
251.612091E-3
251.646996E-3
250.256538E-3
252.354813E-3
251.502800E-3
254.004478E-3
254.422760E-3
253.454018E-3
255.095673E-3
253.829384E-3
254.704857E-3
254.015350E-3
251.570320E-3
252.446365E-3
250.761223E-3
251.370621E-3
251.079941E-3
249.651146E-3
251.147461E-3
250.562096E-3
252.182007E-3
252.533340E-3
251.692200E-3
253.672028E-3
253.203392E-3
254.914284E-3
255.513382E-3
254.449081E-3
256.700706E-3
256.304169E-3
258.087158E-3
258.459091E-3
257.521820E-3
259.430122E-3
258.492279E-3
259.878159E-3
260.133362E-3
258.776665E-3
260.336494E-3
259.419823E-3
260.825157E-3
261.024857E-3
259.626389E-3
261.248589E-3
260.315323E-3
261.647415E-3
261.424255E-3
259.882164E-3
261.364746E-3
260.049820E-3
261.218834E-3
261.207390E-3
259.893036E-3
261.646271E-3
260.626602E-3
262.154388E-3
262.404442E-3
261.305809E-3
263.214684E-3
262.440491E-3
263.980865E-3
264.412880E-3
263.205528E-3
265.171051E-3
264.371109E-3
265.641403E-3
265.371895E-3
263.200951E-3
262.895393E-3
259.210396E-3
257.282066E-3
253.563309E-3
248.741341E-3
247.392082E-3
244.112206E-3
243.935966E-3
243.129730E-3
241.310120E-3
243.042755E-3
242.774963E-3
244.948769E-3
245.911217E-3
245.186806E-3
247.681618E-3
247.378922E-3
249.415398E-3
249.841118E-3
248.818588E-3
250.732613E-3
250.090027E-3
251.419258E-3
251.867867E-3
250.872231E-3
252.927017E-3
252.312469E-3
254.401588E-3
255.031586E-3
253.704071E-3
255.030441E-3
253.737831E-3
254.482841E-3
253.760147E-3
251.859856E-3
252.845192E-3
250.614166E-3
251.899338E-3
251.507950E-3
249.817085E-3
251.635551E-3
250.834465E-3
252.446365E-3
252.599716E-3
251.721382E-3
254.118919E-3
253.662300E-3
255.724525E-3
256.179428E-3
255.124283E-3
257.132149E-3
256.037521E-3
258.104324E-3
258.365822E-3
256.995392E-3
258.784676E-3
257.442856E-3
259.503365E-3
259.732819E-3
258.581543E-3
260.262680E-3
259.409523E-3
260.888100E-3
260.770226E-3
259.254456E-3
260.856056E-3
259.909630E-3
261.554718E-3
261.254883E-3
259.859848E-3
261.310959E-3
260.255814E-3
261.542130E-3
261.242867E-3
259.578323E-3
261.401367E-3
260.003471E-3
261.795616E-3
261.861420E-3
260.446358E-3
262.251091E-3
261.537552E-3
263.199806E-3
263.453865E-3
262.180710E-3
264.211464E-3
263.081360E-3
265.326691E-3
265.386772E-3
263.477898E-3
264.013481E-3
260.758781E-3
258.711433E-3
255.254173E-3
250.082588E-3
248.438072E-3
244.733620E-3
243.846703E-3
242.479706E-3
240.278435E-3
241.692352E-3
241.077232E-3
243.126869E-3
243.704796E-3
242.943764E-3
245.511818E-3
245.320702E-3
247.456169E-3
247.774887E-3
246.875954E-3
248.739624E-3
248.186874E-3
249.638557E-3
249.556732E-3
248.384285E-3
250.403595E-3
249.739838E-3
251.724243E-3
252.047539E-3
250.843620E-3
252.717018E-3
251.645851E-3
252.873230E-3
252.169418E-3
250.146103E-3
251.378632E-3
249.924660E-3
250.984383E-3
250.085449E-3
248.190880E-3
249.444008E-3
248.012352E-3
249.945831E-3
250.138092E-3
249.401665E-3
251.244164E-3
250.943184E-3
252.965927E-3
253.373337E-3
252.297592E-3
254.530334E-3
253.334999E-3
255.526543E-3
255.679893E-3
254.130363E-3
255.983734E-3
255.299377E-3
256.827736E-3
256.804848E-3
255.344582E-3
257.350731E-3
256.634331E-3
258.103752E-3
257.992172E-3
256.414032E-3
257.923508E-3
256.847763E-3
258.247948E-3
257.971001E-3
256.497574E-3
258.114624E-3
257.063484E-3
258.525467E-3
258.352661E-3
256.805420E-3
258.240509E-3
257.057190E-3
258.550072E-3
258.327484E-3
256.950760E-3
258.651924E-3
257.647133E-3
259.842110E-3
260.154533E-3
258.987236E-3
260.983086E-3
260.271263E-3
261.876869E-3
261.829376E-3
260.016632E-3
261.237144E-3
258.832741E-3
257.953262E-3
254.827881E-3
250.265694E-3
248.601151E-3
244.688988E-3
243.733978E-3
241.596222E-3
238.918304E-3
239.847565E-3
238.984108E-3
240.866089E-3
241.308975E-3
240.673256E-3
243.197250E-3
243.086815E-3
245.328140E-3
245.930672E-3
244.906425E-3
246.994400E-3
246.476555E-3
248.094749E-3
247.974014E-3
246.799850E-3
248.852348E-3
248.231506E-3
250.551224E-3
250.924873E-3
249.983025E-3
251.608658E-3
250.408173E-3
251.402092E-3
250.671387E-3
248.250961E-3
249.217987E-3
247.806931E-3
248.610878E-3
248.160553E-3
245.987320E-3
247.806931E-3
247.055054E-3
248.680687E-3
248.753929E-3
247.945404E-3
249.958992E-3
249.525833E-3
251.573181E-3
251.969719E-3
250.853920E-3
253.105545E-3
252.523613E-3
254.347229E-3
254.417610E-3
253.115845E-3
255.041313E-3
254.406738E-3
255.797195E-3
255.744553E-3
254.455948E-3
256.273842E-3
255.360031E-3
257.008553E-3
256.931305E-3
255.622101E-3
257.373047E-3
255.941963E-3
257.477188E-3
257.331848E-3
255.724525E-3
257.049179E-3
256.088448E-3
257.526398E-3
257.506371E-3
256.291008E-3
257.849693E-3
256.927299E-3
258.591270E-3
258.665085E-3
257.438278E-3
259.179497E-3
258.653069E-3
260.260391E-3
260.446358E-3
258.588982E-3
260.275269E-3
258.658218E-3
258.230209E-3
255.808640E-3
251.308250E-3
249.619675E-3
245.484924E-3
244.160843E-3
241.789055E-3
238.914299E-3
239.768028E-3
238.376999E-3
239.783478E-3
240.073586E-3
239.314270E-3
241.860580E-3
241.574478E-3
244.067574E-3
244.610023E-3
243.675041E-3
245.598793E-3
244.932747E-3
247.018433E-3
246.957207E-3
245.727539E-3
247.434998E-3
247.117424E-3
249.020004E-3
249.374771E-3
248.286438E-3
250.346947E-3
248.749352E-3
250.685692E-3
250.101471E-3
248.201180E-3
249.221992E-3
247.519684E-3
248.323631E-3
247.722816E-3
246.005058E-3
247.520828E-3
246.337509E-3
247.737122E-3
247.525406E-3
246.616173E-3
248.520470E-3
248.154831E-3
250.305176E-3
250.573540E-3
249.766159E-3
251.749992E-3
251.317406E-3
253.175926E-3
253.229141E-3
252.093887E-3
253.885460E-3
253.052902E-3
254.754639E-3
254.648781E-3
253.559303E-3
255.124855E-3
254.257965E-3
255.936813E-3
255.675316E-3
254.266548E-3
255.913925E-3
254.771805E-3
256.159973E-3
255.817795E-3
254.276848E-3
255.770874E-3
254.714012E-3
256.395721E-3
255.860138E-3
254.379845E-3
255.848694E-3
254.902267E-3
256.446075E-3
256.400299E-3
255.031013E-3
256.764793E-3
256.238937E-3
258.023071E-3
258.090019E-3
257.144165E-3
259.141159E-3
258.201599E-3
259.719658E-3
258.824158E-3
256.278992E-3
255.992317E-3
252.279282E-3
250.573540E-3
247.006989E-3
242.634773E-3
241.663742E-3
238.375854E-3
238.823891E-3
237.867737E-3
236.404037E-3
238.269424E-3
236.854935E-3
239.465904E-3
239.926529E-3
239.466476E-3
241.847992E-3
241.455460E-3
243.321991E-3
243.560600E-3
242.754936E-3
244.550514E-3
243.554306E-3
244.968224E-3
244.855499E-3
243.688202E-3
245.938110E-3
245.295525E-3
247.389221E-3
247.561455E-3
246.164131E-3
247.597504E-3
246.489716E-3
247.470474E-3
246.660233E-3
244.960785E-3
245.939827E-3
244.397163E-3
245.297241E-3
244.718742E-3
243.362617E-3
245.026016E-3
244.293022E-3
246.096039E-3
246.000481E-3
245.181656E-3
247.318840E-3
246.952057E-3
248.901558E-3
248.967361E-3
247.959137E-3
249.740410E-3
248.969650E-3
250.674248E-3
250.614166E-3
249.394798E-3
251.091385E-3
249.898338E-3
252.050972E-3
251.864433E-3
250.665092E-3
252.438354E-3
251.542282E-3
252.750778E-3
252.305603E-3
251.064491E-3
252.396011E-3
251.533699E-3
252.913857E-3
252.363968E-3
250.970078E-3
252.725601E-3
251.213264E-3
252.717018E-3
252.458382E-3
251.032448E-3
252.729607E-3
251.396942E-3
253.213692E-3
253.285789E-3
252.350235E-3
254.219055E-3
253.225136E-3
255.410957E-3
255.262756E-3
254.147530E-3
255.574036E-3
253.973579E-3
254.450226E-3
252.226067E-3
248.069000E-3
246.655083E-3
242.737770E-3
241.325569E-3
238.851357E-3
235.701370E-3
236.187744E-3
234.547806E-3
235.717392E-3
235.664749E-3
234.647369E-3
236.894989E-3
236.900711E-3
239.065361E-3
239.421844E-3
238.822174E-3
241.176224E-3
240.683556E-3
242.441368E-3
242.372131E-3
241.022873E-3
242.750931E-3
241.980743E-3
244.000626E-3
244.253540E-3
243.441582E-3
245.472908E-3
244.785690E-3
246.280289E-3
245.517540E-3
243.701363E-3
244.643784E-3
242.969513E-3
243.616676E-3
242.505455E-3
240.729904E-3
242.197037E-3
240.603447E-3
242.661667E-3
242.570114E-3
241.890907E-3
243.990326E-3
243.704224E-3
245.630836E-3
245.820236E-3
244.982529E-3
247.016144E-3
246.516609E-3
248.299026E-3
248.311615E-3
247.336578E-3
249.153900E-3
248.518181E-3
250.118637E-3
249.921227E-3
249.007988E-3
250.588989E-3
249.668312E-3
251.102257E-3
250.841331E-3
249.637413E-3
251.193237E-3
250.233078E-3
251.555443E-3
251.029587E-3
249.768448E-3
251.191521E-3
249.726105E-3
251.450157E-3
251.078224E-3
249.715805E-3
251.542282E-3
250.608444E-3
252.385712E-3
252.131081E-3
251.244736E-3
253.123283E-3
252.582550E-3
254.236221E-3
253.954697E-3
252.898979E-3
254.257393E-3
252.398872E-3
252.469254E-3
249.797630E-3
245.877457E-3
244.481850E-3
240.645218E-3
239.694214E-3
237.224007E-3
234.766388E-3
235.411835E-3
233.807945E-3
235.326004E-3
235.328293E-3
234.621620E-3
237.166786E-3
236.667824E-3
239.253616E-3
239.695358E-3
239.046478E-3
241.098976E-3
240.416908E-3
242.044258E-3
242.070580E-3
240.790558E-3
242.711449E-3
241.953850E-3
244.160271E-3
244.327927E-3
243.671608E-3
245.627975E-3
244.540787E-3
245.691490E-3
245.039177E-3
243.339157E-3
244.495583E-3
242.815590E-3
243.874168E-3
242.732048E-3
241.027451E-3
242.306328E-3
241.113281E-3
243.039322E-3
242.736626E-3
242.012215E-3
244.198036E-3
243.661880E-3
245.697784E-3
245.653725E-3
245.119858E-3
247.269630E-3
246.549797E-3
248.360252E-3
248.141098E-3
246.921730E-3
248.818016E-3
248.208046E-3
249.954414E-3
249.729538E-3
248.623466E-3
250.180435E-3
249.329567E-3
250.809860E-3
250.419044E-3
248.883247E-3
250.685120E-3
249.623108E-3
251.202965E-3
250.546074E-3
249.214554E-3
250.750923E-3
249.760437E-3
251.107979E-3
250.673103E-3
249.199677E-3
250.656509E-3
249.771309E-3
251.414680E-3
251.156616E-3
250.266838E-3
252.236366E-3
251.672173E-3
253.607368E-3
253.457451E-3
252.399445E-3
254.189301E-3
252.949333E-3
254.228210E-3
252.640343E-3
249.356461E-3
248.360825E-3
244.254112E-3
242.844772E-3
239.524841E-3
235.758591E-3
235.529137E-3
233.343887E-3
234.126663E-3
233.716965E-3
232.748795E-3
234.674835E-3
234.041405E-3
236.647224E-3
237.179375E-3
236.861801E-3
238.944054E-3
237.734413E-3
240.408325E-3
240.212631E-3
239.061356E-3
240.570259E-3
239.740562E-3
241.516685E-3
241.430283E-3
240.729332E-3
242.831039E-3
242.419052E-3
244.385719E-3
244.072723E-3
242.868805E-3
244.034386E-3
242.614746E-3
243.755150E-3
242.396736E-3
240.808296E-3
241.774750E-3
240.424919E-3
241.909790E-3
241.479492E-3
240.551376E-3
242.481422E-3
241.702080E-3
243.684196E-3
243.565178E-3
242.766380E-3
244.699860E-3
243.829536E-3
245.858002E-3
245.634842E-3
244.857788E-3
246.685410E-3
246.046257E-3
248.022652E-3
247.567749E-3
246.548080E-3
248.151970E-3
247.053909E-3
248.700714E-3
248.091888E-3
247.118568E-3
248.847771E-3
247.068787E-3
249.188805E-3
248.788834E-3
247.763443E-3
249.268913E-3
248.138237E-3
249.805069E-3
248.903847E-3
247.589493E-3
249.052620E-3
247.923660E-3
249.525261E-3
249.044609E-3
247.889900E-3
249.623108E-3
248.969650E-3
250.879097E-3
250.670815E-3
250.039101E-3
251.872444E-3
251.236153E-3
253.079796E-3
252.418900E-3
251.379776E-3
252.565384E-3
250.939178E-3
251.162910E-3
248.367691E-3
244.371414E-3
243.090820E-3
239.122581E-3
238.308334E-3
235.359764E-3
232.509613E-3
233.112144E-3
231.556320E-3
233.124161E-3
232.923317E-3
232.789421E-3
235.106850E-3
234.855652E-3
237.424850E-3
237.464905E-3
236.927605E-3
238.537788E-3
237.765312E-3
239.417839E-3
239.187813E-3
238.200760E-3
240.193748E-3
239.555168E-3
241.965866E-3
241.690636E-3
241.266060E-3
243.181229E-3
241.979027E-3
243.562317E-3
242.558098E-3
240.874672E-3
241.586494E-3
239.924240E-3
240.934181E-3
239.847565E-3
238.692856E-3
239.751434E-3
238.811874E-3
240.865517E-3
240.363693E-3
239.691353E-3
241.716957E-3
240.786552E-3
243.196678E-3
243.022728E-3
242.479706E-3
244.560814E-3
243.964577E-3
245.807076E-3
245.433426E-3
244.594002E-3
246.346092E-3
245.596504E-3
247.424698E-3
246.912003E-3
246.045113E-3
247.821808E-3
246.997833E-3
248.593140E-3
247.895050E-3
247.071648E-3
248.371124E-3
247.323418E-3
248.804855E-3
248.105049E-3
246.783829E-3
248.526192E-3
247.327995E-3
249.018860E-3
248.529053E-3
247.655869E-3
249.346161E-3
248.569679E-3
250.345230E-3
249.794197E-3
248.997688E-3
250.759506E-3
249.481201E-3
251.858711E-3
251.701927E-3
250.834465E-3
252.159119E-3
250.833321E-3
251.545715E-3
249.271774E-3
245.776749E-3
244.263840E-3
240.383720E-3
239.408112E-3
236.385727E-3
233.708382E-3
234.278870E-3
232.661819E-3
234.017372E-3
233.641434E-3
233.169365E-3
235.299110E-3
234.970093E-3
237.483215E-3
237.722969E-3
237.304115E-3
239.301109E-3
238.756943E-3
240.845490E-3
240.391159E-3
239.446449E-3
241.227722E-3
240.519905E-3
242.739487E-3
242.635918E-3
242.121506E-3
244.139099E-3
243.316269E-3
244.550514E-3
