Notes :


2023-10-26 ¿ÀÈÄ 10:36:54
Volts
Ch : LED 2,
404.303741E-3
405.894470E-3
405.404663E-3
404.517746E-3
404.966354E-3
403.597069E-3
403.286934E-3
400.730896E-3
396.930313E-3
394.011497E-3
389.587784E-3
387.415123E-3
384.312630E-3
381.991196E-3
381.954575E-3
381.386948E-3
383.268356E-3
383.969307E-3
384.837341E-3
386.912155E-3
387.493515E-3
389.650726E-3
389.908218E-3
389.593506E-3
390.283585E-3
389.515114E-3
390.414619E-3
389.588928E-3
388.189316E-3
388.738060E-3
388.059998E-3
389.431000E-3
389.713097E-3
390.090752E-3
391.508675E-3
391.991043E-3
393.873596E-3
393.645287E-3
392.978096E-3
393.102837E-3
392.074013E-3
392.646790E-3
391.831398E-3
391.244316E-3
391.919518E-3
391.359329E-3
392.625618E-3
392.519188E-3
392.535210E-3
393.003845E-3
393.166924E-3
394.904709E-3
395.044899E-3
395.055771E-3
396.218491E-3
395.646286E-3
396.891403E-3
397.019005E-3
396.616745E-3
397.647285E-3
397.009850E-3
398.184013E-3
398.002052E-3
397.354317E-3
398.404312E-3
397.751427E-3
398.945045E-3
398.797417E-3
398.309326E-3
399.100113E-3
398.497009E-3
399.662018E-3
399.464035E-3
398.953629E-3
399.804497E-3
399.226570E-3
400.350952E-3
399.998474E-3
398.581123E-3
400.104904E-3
399.630547E-3
400.652504E-3
400.908279E-3
400.263977E-3
401.158905E-3
400.663948E-3
401.915932E-3
401.758575E-3
401.069069E-3
402.131081E-3
401.669312E-3
402.607727E-3
402.501297E-3
401.771736E-3
402.926445E-3
402.165985E-3
403.303528E-3
403.207397E-3
402.430916E-3
403.641701E-3
402.755356E-3
403.653717E-3
403.485489E-3
402.824020E-3
404.231644E-3
403.297806E-3
404.182434E-3
404.207611E-3
403.643990E-3
405.233002E-3
404.422760E-3
405.346870E-3
405.366325E-3
404.596710E-3
406.248093E-3
405.166054E-3
405.999756E-3
405.817223E-3
403.962135E-3
403.773308E-3
400.045967E-3
397.267342E-3
393.390083E-3
388.964653E-3
387.266922E-3
383.851433E-3
383.181953E-3
382.676125E-3
382.430649E-3
384.780121E-3
384.790993E-3
386.575127E-3
387.744141E-3
387.983322E-3
390.104485E-3
389.452744E-3
390.107346E-3
389.905930E-3
388.835907E-3
390.022087E-3
388.259125E-3
388.119507E-3
387.950706E-3
387.118149E-3
388.903999E-3
388.218498E-3
389.286804E-3
390.539360E-3
390.739632E-3
393.122292E-3
392.309189E-3
392.809296E-3
392.456818E-3
391.714096E-3
393.147469E-3
391.370201E-3
391.506958E-3
391.715813E-3
391.320992E-3
393.158913E-3
392.198753E-3
392.979813E-3
393.627548E-3
393.493652E-3
395.507240E-3
394.505310E-3
395.582771E-3
396.042252E-3
395.816803E-3
397.551155E-3
396.441650E-3
397.166634E-3
397.433281E-3
396.419907E-3
398.542786E-3
397.416115E-3
397.994614E-3
398.306465E-3
397.806358E-3
399.289513E-3
397.973442E-3
398.555374E-3
398.937035E-3
398.561668E-3
399.962997E-3
398.567390E-3
399.199677E-3
399.538422E-3
399.127007E-3
400.508308E-3
399.314690E-3
399.790764E-3
399.957848E-3
398.616028E-3
400.676537E-3
399.950981E-3
400.626755E-3
400.950050E-3
400.506020E-3
402.175713E-3
401.205254E-3
401.633263E-3
401.852989E-3
401.432419E-3
402.919579E-3
401.866150E-3
402.306175E-3
402.652359E-3
402.298164E-3
403.681183E-3
402.680397E-3
402.967644E-3
403.248596E-3
402.797127E-3
404.053116E-3
402.877235E-3
403.286934E-3
403.598213E-3
403.313828E-3
404.691696E-3
403.504944E-3
404.018784E-3
404.420471E-3
404.122925E-3
405.682755E-3
404.682541E-3
405.142021E-3
405.396080E-3
405.081367E-3
406.490707E-3
405.359459E-3
405.645561E-3
405.380630E-3
403.799057E-3
403.301811E-3
399.351883E-3
396.126938E-3
392.595291E-3
388.913155E-3
387.520981E-3
384.620476E-3
384.023666E-3
384.388733E-3
384.493446E-3
387.119293E-3
387.351036E-3
388.773537E-3
389.912224E-3
390.316772E-3
392.460251E-3
391.882896E-3
392.030525E-3
392.308617E-3
391.425133E-3
392.314339E-3
390.974236E-3
390.741348E-3
390.791130E-3
390.523338E-3
392.019653E-3
392.095757E-3
392.999268E-3
394.270706E-3
393.997765E-3
395.457458E-3
393.911362E-3
393.950844E-3
393.661308E-3
390.908432E-3
392.987251E-3
392.401314E-3
392.594719E-3
392.900276E-3
392.685127E-3
394.435501E-3
394.084740E-3
394.732475E-3
395.696068E-3
395.357895E-3
397.220421E-3
396.740341E-3
397.101402E-3
397.766876E-3
396.995544E-3
398.660088E-3
398.074722E-3
398.193741E-3
398.716736E-3
396.295166E-3
398.765945E-3
398.658943E-3
398.958778E-3
399.105835E-3
396.909142E-3
399.501801E-3
399.346161E-3
399.523544E-3
400.106049E-3
399.085236E-3
400.829887E-3
400.221062E-3
400.023651E-3
400.796700E-3
399.634552E-3
401.186371E-3
400.661659E-3
400.833893E-3
401.168060E-3
399.324417E-3
401.500511E-3
401.309967E-3
401.591492E-3
401.858711E-3
400.955200E-3
402.753639E-3
402.250099E-3
402.565384E-3
403.047752E-3
401.963997E-3
403.460884E-3
403.090096E-3
403.283501E-3
403.725243E-3
402.678680E-3
404.019928E-3
403.451157E-3
403.537560E-3
404.174423E-3
403.188515E-3
404.691124E-3
404.137230E-3
404.286575E-3
404.748917E-3
403.867722E-3
405.492783E-3
405.200958E-3
405.288506E-3
405.745697E-3
404.657936E-3
406.035233E-3
404.941750E-3
403.345871E-3
401.768875E-3
397.550583E-3
395.677185E-3
391.579628E-3
387.835121E-3
385.703087E-3
383.121300E-3
384.271431E-3
383.783913E-3
384.209633E-3
385.704803E-3
385.962296E-3
388.758087E-3
389.392662E-3
389.753723E-3
390.937614E-3
390.038681E-3
391.590500E-3
390.979385E-3
390.173721E-3
390.090179E-3
388.506317E-3
389.996910E-3
389.379501E-3
388.792419E-3
389.814377E-3
389.762306E-3
392.320633E-3
392.534637E-3
392.521477E-3
393.465042E-3
392.577553E-3
394.089317E-3
393.347740E-3
392.319489E-3
392.578697E-3
391.643143E-3
392.916870E-3
392.515182E-3
392.257690E-3
393.136597E-3
392.890549E-3
394.591713E-3
394.766808E-3
394.778824E-3
395.729828E-3
395.353317E-3
397.232437E-3
397.208405E-3
396.807289E-3
397.615814E-3
397.278786E-3
398.664093E-3
398.521614E-3
397.920227E-3
398.614883E-3
398.078728E-3
399.228859E-3
399.010277E-3
397.995186E-3
399.062347E-3
398.501015E-3
399.906921E-3
399.574471E-3
399.175644E-3
399.813080E-3
399.184799E-3
400.357246E-3
400.112343E-3
399.701500E-3
400.372124E-3
399.845123E-3
401.100540E-3
400.757217E-3
400.281143E-3
401.261330E-3
400.514603E-3
401.916504E-3
401.720238E-3
400.661087E-3
401.827812E-3
401.524544E-3
402.754211E-3
402.581406E-3
402.216911E-3
402.900124E-3
402.409744E-3
403.551865E-3
403.510094E-3
403.067207E-3
403.514671E-3
403.099251E-3
404.391861E-3
403.941536E-3
403.056335E-3
403.985023E-3
403.479767E-3
404.418182E-3
404.307175E-3
403.982162E-3
404.895401E-3
404.271126E-3
405.328560E-3
405.394363E-3
404.942322E-3
405.875015E-3
405.219841E-3
406.395149E-3
406.176567E-3
405.454445E-3
405.746841E-3
403.666878E-3
402.657509E-3
399.287796E-3
394.973946E-3
392.126656E-3
388.013077E-3
386.470413E-3
384.533501E-3
382.275009E-3
383.744431E-3
383.817101E-3
385.949135E-3
387.002563E-3
387.441444E-3
389.316559E-3
389.319992E-3
390.792847E-3
390.720177E-3
389.963150E-3
390.693855E-3
389.408684E-3
390.078735E-3
389.369202E-3
387.612534E-3
388.568115E-3
387.803078E-3
389.426994E-3
390.003777E-3
390.090179E-3
391.629982E-3
391.754723E-3
393.138313E-3
393.402100E-3
392.562103E-3
392.748070E-3
392.129517E-3
392.935753E-3
392.464828E-3
391.764450E-3
392.268562E-3
391.836548E-3
393.062782E-3
393.142319E-3
392.983246E-3
394.562531E-3
394.267273E-3
395.482635E-3
395.851135E-3
395.284653E-3
396.653938E-3
396.255684E-3
397.240448E-3
397.387505E-3
396.060562E-3
398.094749E-3
397.471046E-3
398.414040E-3
398.363113E-3
397.643852E-3
399.167061E-3
398.185730E-3
399.030304E-3
399.055481E-3
397.452164E-3
399.633980E-3
398.759651E-3
399.579620E-3
399.355316E-3
397.385788E-3
400.020790E-3
399.335861E-3
400.160980E-3
400.029945E-3
398.179436E-3
400.656509E-3
399.846268E-3
400.843620E-3
400.982094E-3
400.302887E-3
402.038383E-3
400.991821E-3
401.798058E-3
401.879311E-3
401.209259E-3
402.928734E-3
401.899910E-3
402.385712E-3
402.484131E-3
401.685905E-3
403.161621E-3
402.131653E-3
402.576256E-3
402.796555E-3
402.325630E-3
403.827667E-3
402.814293E-3
403.573608E-3
403.880882E-3
403.347588E-3
405.068207E-3
404.065132E-3
404.708290E-3
404.858208E-3
404.228210E-3
406.057549E-3
404.877663E-3
405.455589E-3
405.354309E-3
403.766441E-3
404.933739E-3
402.043533E-3
399.928093E-3
396.821594E-3
392.771530E-3
391.171646E-3
387.444305E-3
386.085892E-3
385.370064E-3
385.083961E-3
387.314987E-3
387.070084E-3
388.863373E-3
390.253258E-3
390.776253E-3
392.997551E-3
392.292595E-3
393.113136E-3
393.161774E-3
392.467690E-3
393.636703E-3
391.833115E-3
391.881752E-3
392.143822E-3
391.045189E-3
392.938614E-3
392.174149E-3
393.679047E-3
394.568253E-3
393.265915E-3
395.979309E-3
394.786835E-3
395.153618E-3
394.816589E-3
393.871880E-3
394.778824E-3
393.318558E-3
393.568039E-3
393.670464E-3
393.355751E-3
394.903564E-3
394.077873E-3
394.993973E-3
395.543289E-3
395.058060E-3
397.258759E-3
396.721458E-3
397.358894E-3
397.910500E-3
397.809219E-3
399.333000E-3
398.323631E-3
398.648643E-3
399.163628E-3
398.715591E-3
400.255966E-3
399.221420E-3
399.773026E-3
399.865150E-3
399.305534E-3
400.762939E-3
399.522972E-3
399.866295E-3
400.364685E-3
399.910355E-3
401.164055E-3
400.003624E-3
400.569534E-3
400.536919E-3
400.141525E-3
401.738548E-3
400.622177E-3
401.144028E-3
401.286507E-3
401.041031E-3
402.212906E-3
401.311111E-3
402.028656E-3
402.163696E-3
401.840401E-3
403.339577E-3
402.160835E-3
402.624893E-3
403.067207E-3
402.536201E-3
404.000473E-3
402.905273E-3
403.214264E-3
403.488922E-3
402.944756E-3
404.312897E-3
403.245163E-3
403.781319E-3
404.065132E-3
403.789330E-3
405.170631E-3
404.108620E-3
404.530907E-3
404.889679E-3
404.487991E-3
406.016350E-3
405.105972E-3
405.527687E-3
405.800629E-3
405.210686E-3
406.250954E-3
404.390717E-3
402.813721E-3
400.296021E-3
396.627045E-3
394.440651E-3
389.863586E-3
387.156487E-3
385.177803E-3
383.366776E-3
384.352684E-3
383.619118E-3
384.524918E-3
385.970306E-3
386.481857E-3
388.970375E-3
389.033890E-3
389.846992E-3
390.300179E-3
389.706802E-3
391.073227E-3
389.830971E-3
389.532280E-3
389.250755E-3
387.397957E-3
388.976097E-3
388.170433E-3
388.584709E-3
389.463615E-3
389.657593E-3
391.926384E-3
391.992187E-3
392.865944E-3
393.384933E-3
392.688560E-3
393.847275E-3
392.665100E-3
392.538071E-3
392.582130E-3
391.858864E-3
393.023872E-3
391.999054E-3
392.330360E-3
393.362045E-3
393.018723E-3
394.623184E-3
394.266701E-3
394.722748E-3
395.652008E-3
393.957138E-3
396.329498E-3
396.051407E-3
396.593857E-3
397.044182E-3
396.702576E-3
398.071861E-3
397.295380E-3
397.641563E-3
398.065567E-3
397.545433E-3
398.767090E-3
397.791481E-3
398.197174E-3
398.638916E-3
398.030663E-3
399.340439E-3
398.596001E-3
398.728180E-3
398.650932E-3
398.281860E-3
399.989891E-3
399.218559E-3
399.345589E-3
400.051117E-3
399.042892E-3
400.654793E-3
400.176430E-3
400.297165E-3
400.794983E-3
398.159409E-3
400.894547E-3
400.709152E-3
401.286507E-3
401.958847E-3
400.901413E-3
402.438927E-3
401.767159E-3
402.028084E-3
402.199745E-3
400.397301E-3
402.868080E-3
402.433777E-3
402.881241E-3
403.368759E-3
402.243805E-3
403.595924E-3
403.087807E-3
403.376770E-3
403.700066E-3
402.745628E-3
404.269981E-3
403.827095E-3
404.033661E-3
404.530334E-3
403.526115E-3
405.298805E-3
404.874229E-3
404.954910E-3
405.350304E-3
403.285217E-3
405.600929E-3
405.033302E-3
404.730034E-3
404.154396E-3
401.134872E-3
399.984169E-3
396.022224E-3
392.577553E-3
389.772606E-3
385.892487E-3
385.514832E-3
384.067726E-3
383.875465E-3
384.837341E-3
384.673691E-3
387.020874E-3
387.899208E-3
389.063072E-3
390.290451E-3
389.769745E-3
391.632843E-3
390.915871E-3
390.487862E-3
390.383720E-3
388.613319E-3
389.762878E-3
388.985825E-3
388.617897E-3
389.119720E-3
388.164711E-3
390.512466E-3
391.123581E-3
391.819954E-3
392.879105E-3
392.248535E-3
393.699074E-3
393.034172E-3
392.671394E-3
392.706871E-3
391.175079E-3
392.440796E-3
392.010498E-3
391.795921E-3
392.468834E-3
392.004776E-3
393.685341E-3
393.731689E-3
394.095039E-3
394.565964E-3
394.097328E-3
396.147537E-3
395.993614E-3
396.049690E-3
396.772385E-3
395.774460E-3
397.449303E-3
397.234726E-3
396.979523E-3
397.628403E-3
396.443939E-3
397.945404E-3
397.800064E-3
397.744560E-3
398.147392E-3
397.206116E-3
398.902130E-3
398.460960E-3
398.268700E-3
398.870087E-3
397.921371E-3
399.471474E-3
398.939896E-3
398.577118E-3
399.284935E-3
398.332214E-3
399.938393E-3
399.710655E-3
399.379349E-3
399.807930E-3
399.048615E-3
400.758362E-3
400.486565E-3
400.228500E-3
400.902557E-3
400.030518E-3
401.901627E-3
401.471901E-3
400.829887E-3
401.539421E-3
400.901413E-3
402.577400E-3
402.144814E-3
401.416969E-3
401.899910E-3
401.129150E-3
402.967644E-3
402.585411E-3
402.257538E-3
403.019714E-3
402.413750E-3
404.092598E-3
403.765869E-3
403.234863E-3
403.808212E-3
403.256035E-3
404.719162E-3
404.100037E-3
403.586197E-3
403.205109E-3
401.406097E-3
400.856209E-3
397.485924E-3
393.868446E-3
391.367340E-3
387.840271E-3
386.941910E-3
385.214424E-3
384.264565E-3
385.133743E-3
385.095406E-3
387.477493E-3
388.244820E-3
388.659096E-3
390.139389E-3
390.190887E-3
391.935539E-3
391.506386E-3
391.086388E-3
391.395950E-3
390.546799E-3
391.263771E-3
390.764236E-3
390.039253E-3
390.809441E-3
390.735054E-3
392.687988E-3
392.987823E-3
393.204689E-3
394.210052E-3
393.562889E-3
394.532204E-3
393.890762E-3
392.990685E-3
393.136024E-3
392.148972E-3
393.186951E-3
392.740059E-3
392.176437E-3
392.976952E-3
392.655945E-3
394.264984E-3
394.447517E-3
394.370842E-3
395.372200E-3
395.250320E-3
396.706009E-3
396.834183E-3
396.712303E-3
397.364616E-3
396.900558E-3
398.188019E-3
397.973442E-3
397.678757E-3
398.399162E-3
397.726822E-3
398.880386E-3
398.517036E-3
398.062134E-3
398.758507E-3
398.176003E-3
399.310684E-3
399.131584E-3
398.677254E-3
399.359894E-3
398.864365E-3
399.944687E-3
399.522400E-3
399.290657E-3
399.686050E-3
399.209404E-3
400.515747E-3
400.317192E-3
399.240875E-3
400.354958E-3
399.926376E-3
401.266479E-3
401.177216E-3
400.710869E-3
401.548004E-3
400.860786E-3
402.062988E-3
402.033234E-3
401.398087E-3
401.411819E-3
401.220131E-3
402.486992E-3
402.531052E-3
401.833534E-3
402.634621E-3
401.940536E-3
403.200531E-3
402.916145E-3
402.468681E-3
403.281784E-3
402.701569E-3
403.930664E-3
404.018784E-3
402.627754E-3
403.683472E-3
403.516960E-3
404.821014E-3
404.827309E-3
404.088593E-3
404.609299E-3
402.988815E-3
402.280998E-3
399.262619E-3
395.339012E-3
392.649651E-3
388.681412E-3
386.861229E-3
385.024452E-3
382.839775E-3
383.480644E-3
383.057213E-3
384.978104E-3
385.964012E-3
385.724258E-3
387.431145E-3
387.874031E-3
389.359474E-3
389.617538E-3
388.811874E-3
389.422417E-3
388.134384E-3
388.724899E-3
388.074303E-3
386.299324E-3
387.290382E-3
386.768532E-3
387.936401E-3
388.502884E-3
388.383293E-3
390.197754E-3
390.481567E-3
392.046547E-3
392.029953E-3
