Notes :


2023-11-10 ¿ÀÈÄ 11:07:27
Volts
Ch : LED 2,
55.877495E-3
55.890083E-3
55.803680E-3
56.096077E-3
56.560707E-3
57.027054E-3
57.780647E-3
58.413506E-3
59.299278E-3
59.963036E-3
60.456276E-3
60.914040E-3
61.030197E-3
61.113167E-3
60.998154E-3
60.789871E-3
60.720634E-3
60.356140E-3
60.124969E-3
60.042000E-3
59.850883E-3
59.790230E-3
59.663773E-3
59.719849E-3
59.781647E-3
59.763908E-3
59.887505E-3
59.807968E-3
59.782791E-3
59.710121E-3
59.372520E-3
59.224892E-3
58.989143E-3
58.860970E-3
58.858681E-3
58.779716E-3
58.961678E-3
58.973122E-3
59.021759E-3
59.126472E-3
59.126472E-3
59.171104E-3
59.058952E-3
59.049225E-3
59.000587E-3
58.841515E-3
58.881569E-3
58.614349E-3
58.514214E-3
58.512497E-3
58.332825E-3
58.351135E-3
58.169746E-3
58.095360E-3
58.131409E-3
58.016968E-3
58.132553E-3
57.765198E-3
57.778358E-3
57.880783E-3
57.774925E-3
57.778931E-3
57.732582E-3
57.623863E-3
57.650757E-3
57.567787E-3
57.714272E-3
57.530594E-3
57.452202E-3
57.534599E-3
57.432175E-3
57.483101E-3
57.383537E-3
57.337189E-3
57.439041E-3
57.239342E-3
57.293129E-3
57.215309E-3
57.188988E-3
57.215309E-3
57.180405E-3
57.277679E-3
57.102013E-3
57.078552E-3
57.027054E-3
56.892014E-3
56.875420E-3
56.720352E-3
56.692886E-3
56.691742E-3
56.611061E-3
56.550407E-3
56.472015E-3
56.597900E-3
56.699181E-3
56.766701E-3
57.378960E-3
57.970619E-3
58.724213E-3
59.622002E-3
60.132408E-3
60.674286E-3
61.089706E-3
61.316299E-3
61.412430E-3
61.224747E-3
61.104584E-3
60.860825E-3
60.572433E-3
60.428810E-3
60.157013E-3
60.138702E-3
59.903526E-3
59.861183E-3
59.870338E-3
59.822273E-3
59.844589E-3
59.811974E-3
59.778214E-3
59.695816E-3
59.535027E-3
59.363365E-3
59.112740E-3
58.965111E-3
58.971405E-3
58.950806E-3
58.958817E-3
59.007454E-3
59.099579E-3
59.280968E-3
59.306717E-3
59.443474E-3
59.294128E-3
59.226608E-3
59.273529E-3
59.069824E-3
59.014320E-3
58.830643E-3
58.682442E-3
58.650970E-3
58.499908E-3
58.363152E-3
58.202934E-3
58.119392E-3
58.105087E-3
57.905960E-3
57.966042E-3
57.859039E-3
57.774353E-3
57.825851E-3
57.739449E-3
57.794380E-3
57.664490E-3
57.638168E-3
57.529449E-3
57.517433E-3
57.540321E-3
57.412148E-3
57.482529E-3
57.480240E-3
57.405281E-3
57.405281E-3
57.398415E-3
57.290268E-3
57.356071E-3
57.213593E-3
57.279396E-3
57.218170E-3
57.183838E-3
57.198715E-3
57.052803E-3
57.020187E-3
56.934929E-3
56.838799E-3
56.890297E-3
56.698036E-3
56.725502E-3
56.533813E-3
56.503487E-3
56.488609E-3
56.367302E-3
56.179047E-3
56.392479E-3
56.635094E-3
57.236481E-3
57.818413E-3
58.658981E-3
59.416580E-3
60.137558E-3
60.799026E-3
61.220169E-3
61.404419E-3
61.455917E-3
61.368942E-3
61.244774E-3
60.917473E-3
60.809326E-3
60.519218E-3
60.302925E-3
60.367584E-3
60.112381E-3
60.190773E-3
60.126114E-3
60.176468E-3
60.284042E-3
60.249710E-3
60.208511E-3
60.092926E-3
60.050011E-3
59.832001E-3
59.442902E-3
59.267235E-3
59.107590E-3
58.990860E-3
59.040642E-3
58.995438E-3
59.110451E-3
59.050369E-3
59.128189E-3
59.268951E-3
59.200287E-3
59.262657E-3
59.186554E-3
59.073257E-3
59.163094E-3
58.925056E-3
58.834076E-3
58.654404E-3
58.495903E-3
58.530235E-3
58.290482E-3
58.212090E-3
58.158302E-3
57.999229E-3
58.073044E-3
57.932281E-3
57.936287E-3
57.867622E-3
57.793808E-3
57.784081E-3
57.645035E-3
57.639885E-3
57.682800E-3
57.656479E-3
57.592964E-3
57.366943E-3
57.428741E-3
57.378960E-3
57.277679E-3
57.316017E-3
57.181549E-3
57.365799E-3
57.190704E-3
57.156372E-3
57.170105E-3
57.110596E-3
57.190132E-3
57.084274E-3
57.065964E-3
57.085991E-3
57.027054E-3
56.974983E-3
56.907463E-3
56.799889E-3
56.805611E-3
56.617355E-3
56.637383E-3
56.512642E-3
56.441689E-3
56.568718E-3
56.290054E-3
56.319809E-3
56.268311E-3
56.287766E-3
56.562996E-3
56.851387E-3
57.525444E-3
58.204651E-3
59.129333E-3
59.819412E-3
60.265732E-3
60.933495E-3
61.201859E-3
61.458206E-3
61.446762E-3
61.192131E-3
61.062813E-3
60.864258E-3
60.558701E-3
60.436821E-3
60.166168E-3
60.167313E-3
60.108948E-3
60.055161E-3
60.080338E-3
60.033989E-3
60.234833E-3
60.302353E-3
60.195923E-3
60.086060E-3
59.853745E-3
59.656334E-3
59.427452E-3
59.180832E-3
59.173393E-3
58.911324E-3
59.099007E-3
59.084129E-3
59.127617E-3
59.302139E-3
59.240341E-3
59.302711E-3
59.314728E-3
59.319305E-3
59.402275E-3
59.050369E-3
59.042358E-3
58.966827E-3
58.784866E-3
58.751678E-3
58.515930E-3
58.488464E-3
58.360291E-3
58.202934E-3
58.248138E-3
58.043861E-3
58.082771E-3
58.009529E-3
57.994080E-3
57.937431E-3
57.933426E-3
57.835579E-3
57.782936E-3
57.642746E-3
57.728004E-3
57.574081E-3
57.714272E-3
57.594109E-3
57.493973E-3
57.512283E-3
57.379532E-3
57.473373E-3
57.421303E-3
57.383537E-3
57.342911E-3
57.185555E-3
57.278824E-3
57.271385E-3
57.062531E-3
57.203865E-3
57.087708E-3
57.112885E-3
57.128906E-3
57.027054E-3
57.060814E-3
56.894302E-3
56.873131E-3
56.696320E-3
56.681442E-3
56.728935E-3
56.607628E-3
56.597328E-3
56.512642E-3
56.410217E-3
56.405640E-3
56.311798E-3
56.416512E-3
56.372452E-3
56.604767E-3
57.108307E-3
57.604980E-3
58.416939E-3
59.176826E-3
59.913826E-3
60.611916E-3
61.039352E-3
61.379814E-3
61.392403E-3
61.363220E-3
61.272812E-3
60.944939E-3
60.815048E-3
60.513496E-3
60.244560E-3
60.310936E-3
60.047722E-3
60.003090E-3
59.920692E-3
59.871483E-3
59.940147E-3
59.842873E-3
59.915543E-3
59.767914E-3
59.459496E-3
59.357071E-3
59.130478E-3
59.013176E-3
58.918762E-3
58.865547E-3
58.922195E-3
58.881569E-3
59.087563E-3
59.133911E-3
59.139633E-3
59.367943E-3
59.330750E-3
59.307289E-3
59.250069E-3
59.034348E-3
59.084702E-3
58.866119E-3
58.788300E-3
58.655548E-3
58.423805E-3
58.341980E-3
58.238411E-3
58.149719E-3
58.055878E-3
57.874489E-3
57.986069E-3
57.793236E-3
57.893372E-3
57.828712E-3
57.674789E-3
57.755470E-3
57.599831E-3
57.607269E-3
57.452202E-3
57.438469E-3
57.504272E-3
57.404137E-3
57.444191E-3
57.392120E-3
57.346916E-3
57.364082E-3
57.221031E-3
57.168388E-3
57.249069E-3
57.168388E-3
57.251930E-3
57.198715E-3
57.182121E-3
57.085419E-3
56.962395E-3
57.072258E-3
56.985283E-3
56.943512E-3
56.881142E-3
56.774712E-3
56.766129E-3
56.637383E-3
56.738091E-3
56.556702E-3
56.407356E-3
56.571007E-3
56.322098E-3
56.280327E-3
56.267738E-3
56.185913E-3
56.409645E-3
56.446266E-3
56.830215E-3
57.453346E-3
58.228111E-3
59.018898E-3
59.694099E-3
60.415649E-3
60.987854E-3
61.164093E-3
61.430740E-3
61.374092E-3
61.315727E-3
61.096573E-3
60.797310E-3
60.600471E-3
60.300064E-3
60.174751E-3
60.015678E-3
59.844017E-3
59.909821E-3
59.782219E-3
59.969330E-3
59.977341E-3
59.877777E-3
59.919548E-3
59.650612E-3
59.561348E-3
59.276962E-3
59.061813E-3
58.971405E-3
58.838654E-3
58.760262E-3
58.832932E-3
58.792877E-3
59.006882E-3
58.885002E-3
59.022331E-3
59.058380E-3
58.991432E-3
58.995438E-3
58.952522E-3
58.855247E-3
58.701897E-3
58.574867E-3
58.573723E-3
58.282471E-3
58.249283E-3
58.055878E-3
57.852745E-3
57.847023E-3
57.748032E-3
57.723999E-3
57.686234E-3
57.456779E-3
57.536888E-3
57.472801E-3
57.378960E-3
57.365227E-3
57.199287E-3
57.349205E-3
57.142639E-3
57.188988E-3
57.129478E-3
57.017899E-3
57.124901E-3
56.984138E-3
56.974983E-3
56.888008E-3
56.848526E-3
56.885719E-3
56.771278E-3
56.769562E-3
56.748962E-3
56.700897E-3
56.705475E-3
56.576157E-3
56.580734E-3
56.458855E-3
56.405640E-3
56.511497E-3
56.453133E-3
56.397629E-3
56.199074E-3
56.161880E-3
56.203651E-3
56.125259E-3
56.175613E-3
56.119537E-3
56.015396E-3
56.035995E-3
55.842018E-3
55.722427E-3
55.701828E-3
55.595398E-3
55.644608E-3
55.534172E-3
55.582809E-3
55.636024E-3
56.029129E-3
56.637955E-3
57.241631E-3
58.060455E-3
58.963394E-3
59.664345E-3
60.342979E-3
60.686874E-3
60.983276E-3
61.136055E-3
61.014175E-3
61.109734E-3
60.678291E-3
60.432816E-3
60.175323E-3
59.920692E-3
59.898376E-3
59.734154E-3
59.776497E-3
59.801674E-3
59.616852E-3
59.792519E-3
59.782219E-3
59.824562E-3
59.787369E-3
59.660339E-3
59.558487E-3
59.353638E-3
59.102440E-3
58.921623E-3
58.765411E-3
58.802605E-3
58.721924E-3
58.733368E-3
58.834076E-3
58.749390E-3
59.042931E-3
58.883286E-3
58.942223E-3
58.902740E-3
58.862114E-3
58.751106E-3
58.570290E-3
58.449554E-3
58.367157E-3
58.227539E-3
58.189201E-3
57.903099E-3
57.891655E-3
57.867050E-3
57.703972E-3
57.683945E-3
57.554626E-3
57.466507E-3
57.425308E-3
57.323456E-3
57.328033E-3
57.166100E-3
57.162094E-3
57.156944E-3
57.130623E-3
57.139778E-3
56.971550E-3
56.947517E-3
56.936646E-3
56.845665E-3
56.880569E-3
56.766129E-3
56.760979E-3
56.798744E-3
56.739807E-3
56.771278E-3
56.574440E-3
56.607056E-3
56.611061E-3
56.550407E-3
56.561279E-3
56.482887E-3
56.441689E-3
56.406212E-3
56.297493E-3
56.394768E-3
56.251717E-3
56.203079E-3
56.271172E-3
56.180763E-3
56.171608E-3
56.119537E-3
56.011963E-3
56.090927E-3
55.770493E-3
55.900383E-3
55.820847E-3
55.694962E-3
55.756187E-3
55.613136E-3
55.666351E-3
55.470085E-3
55.431175E-3
55.615425E-3
55.562782E-3
55.936432E-3
56.319809E-3
56.914330E-3
57.780075E-3
58.550262E-3
59.371948E-3
59.965324E-3
60.503197E-3
60.790443E-3
60.856247E-3
60.896873E-3
60.623360E-3
60.461998E-3
60.177040E-3
59.888649E-3
59.749603E-3
59.456635E-3
59.329033E-3
59.356499E-3
59.264374E-3
59.342766E-3
59.249496E-3
59.260368E-3
59.444046E-3
59.239769E-3
59.128761E-3
58.884430E-3
58.710480E-3
58.569145E-3
58.339691E-3
58.374023E-3
58.327103E-3
58.307648E-3
58.326530E-3
58.349419E-3
58.499908E-3
58.459282E-3
58.544540E-3
58.575439E-3
58.515930E-3
58.412933E-3
58.237267E-3
58.270454E-3
58.185196E-3
58.027840E-3
57.923126E-3
57.696533E-3
57.592964E-3
57.575798E-3
57.401276E-3
57.354355E-3
57.244492E-3
57.202721E-3
57.170677E-3
57.043648E-3
57.078552E-3
56.924057E-3
56.912613E-3
56.909752E-3
56.888580E-3
56.882286E-3
56.717491E-3
56.734085E-3
56.814766E-3
56.671143E-3
56.645966E-3
56.545830E-3
56.561852E-3
56.450844E-3
56.354713E-3
56.471443E-3
56.409073E-3
56.430244E-3
56.351280E-3
56.283188E-3
56.316376E-3
56.236267E-3
56.025124E-3
56.154442E-3
56.027412E-3
56.080627E-3
56.015396E-3
56.060600E-3
56.017113E-3
55.871201E-3
55.943298E-3
55.902100E-3
55.793381E-3
55.761337E-3
55.611992E-3
55.625153E-3
55.530167E-3
55.414009E-3
55.483246E-3
55.313301E-3
55.307579E-3
55.319595E-3
55.427170E-3
55.788803E-3
56.189346E-3
56.966400E-3
57.708549E-3
58.310509E-3
59.143639E-3
59.685516E-3
60.161591E-3
60.317230E-3
60.373306E-3
60.389900E-3
60.094643E-3
59.933853E-3
59.597397E-3
59.338188E-3
59.169960E-3
58.812332E-3
58.759689E-3
58.649254E-3
58.601189E-3
58.623505E-3
58.517647E-3
58.632660E-3
58.563423E-3
58.497620E-3
58.292198E-3
57.994652E-3
57.907677E-3
57.739449E-3
57.623863E-3
57.639885E-3
57.594681E-3
57.667923E-3
57.650185E-3
57.855606E-3
57.999802E-3
57.988930E-3
58.088493E-3
58.005524E-3
57.954597E-3
57.818985E-3
57.687378E-3
57.670212E-3
57.503700E-3
57.381821E-3
57.222748E-3
57.003593E-3
56.974983E-3
56.792450E-3
56.635094E-3
56.722641E-3
56.509209E-3
56.501198E-3
56.387329E-3
56.319809E-3
56.364441E-3
56.203651E-3
56.183624E-3
56.117821E-3
56.060600E-3
56.119537E-3
55.988503E-3
55.992508E-3
55.911255E-3
55.876923E-3
55.894661E-3
55.707550E-3
55.717278E-3
55.787659E-3
55.729294E-3
55.735588E-3
55.576515E-3
55.723000E-3
55.670357E-3
55.576515E-3
55.607986E-3
55.446625E-3
55.463219E-3
55.425453E-3
55.393982E-3
55.439186E-3
55.241776E-3
55.238914E-3
55.334473E-3
55.183411E-3
55.187416E-3
55.079269E-3
55.043793E-3
55.032349E-3
54.824638E-3
54.840088E-3
54.766273E-3
54.718208E-3
54.699326E-3
54.582596E-3
54.583740E-3
54.475021E-3
54.631233E-3
54.818916E-3
55.204010E-3
55.882072E-3
56.486893E-3
57.456779E-3
58.275032E-3
58.971977E-3
59.613991E-3
59.860611E-3
60.134125E-3
60.143852E-3
60.025406E-3
59.941292E-3
59.493828E-3
59.296417E-3
59.107590E-3
58.923912E-3
58.775139E-3
58.534241E-3
58.604050E-3
58.586311E-3
58.731651E-3
58.709908E-3
58.545113E-3
58.670998E-3
58.570862E-3
58.380890E-3
58.348846E-3
57.971191E-3
57.848167E-3
57.639313E-3
57.514000E-3
57.551765E-3
57.415581E-3
57.558632E-3
57.636452E-3
57.750893E-3
57.806969E-3
57.711411E-3
57.816124E-3
57.767487E-3
57.686806E-3
57.702255E-3
57.488823E-3
57.433891E-3
57.346344E-3
57.211304E-3
57.111740E-3
57.058525E-3
56.903458E-3
56.759834E-3
56.583595E-3
56.584740E-3
56.398201E-3
56.441116E-3
56.364441E-3
56.256866E-3
56.409073E-3
56.212234E-3
56.195068E-3
56.057739E-3
56.046867E-3
56.123543E-3
55.987358E-3
55.975914E-3
55.891800E-3
55.965042E-3
55.890656E-3
55.831146E-3
55.838585E-3
55.729866E-3
55.738449E-3
55.739021E-3
55.664062E-3
55.673218E-3
55.568504E-3
55.514145E-3
55.538750E-3
55.440331E-3
55.491829E-3
55.357933E-3
55.307579E-3
55.407715E-3
55.262947E-3
55.286407E-3
55.230904E-3
55.136490E-3
55.182838E-3
55.053520E-3
55.066109E-3
54.993439E-3
55.012321E-3
54.947662E-3
54.791451E-3
54.854965E-3
54.706764E-3
54.569435E-3
54.656982E-3
54.541397E-3
54.734230E-3
54.935074E-3
55.410004E-3
56.117249E-3
56.854820E-3
57.703972E-3
58.407784E-3
59.038353E-3
59.568214E-3
59.793091E-3
59.826851E-3
59.890366E-3
59.765053E-3
59.652901E-3
59.268951E-3
59.068108E-3
58.789444E-3
58.604050E-3
58.530235E-3
58.230400E-3
58.253860E-3
58.220673E-3
58.227539E-3
58.347702E-3
58.289909E-3
58.346558E-3
58.241272E-3
58.004951E-3
57.723999E-3
57.595825E-3
57.536888E-3
57.409286E-3
57.356071E-3
57.440186E-3
57.456207E-3
57.595825E-3
57.635307E-3
57.764053E-3
57.825851E-3
57.749176E-3
57.784653E-3
57.742310E-3
57.650757E-3
57.644463E-3
57.429314E-3
57.358932E-3
57.065964E-3
56.912041E-3
56.992722E-3
56.884003E-3
56.847954E-3
56.727219E-3
56.597900E-3
56.577873E-3
56.473732E-3
56.350136E-3
56.340408E-3
56.243706E-3
56.314659E-3
56.207657E-3
56.203651E-3
56.084061E-3
55.999947E-3
56.065178E-3
55.963898E-3
56.048584E-3
55.997086E-3
55.878639E-3
55.983925E-3
55.901527E-3
