Notes :


2023-11-04 ¿ÀÈÄ 10:03:37
Volts
Ch : LED 2,
581.209946E-3
581.054306E-3
580.680656E-3
580.251503E-3
579.498482E-3
579.060745E-3
578.886223E-3
578.889656E-3
579.233551E-3
579.380608E-3
579.786301E-3
579.976845E-3
580.122185E-3
580.146790E-3
579.925346E-3
579.816055E-3
579.479027E-3
578.943443E-3
578.557777E-3
577.848816E-3
577.223396E-3
576.343918E-3
575.553131E-3
574.913406E-3
574.117470E-3
573.577881E-3
573.097229E-3
572.470093E-3
572.177124E-3
571.827507E-3
571.862411E-3
571.594620E-3
571.339417E-3
571.347427E-3
571.261597E-3
571.318245E-3
571.297073E-3
571.227264E-3
571.305656E-3
571.134567E-3
571.161461E-3
571.043015E-3
570.964050E-3
570.922279E-3
570.746040E-3
570.668221E-3
570.191574E-3
570.075417E-3
569.941521E-3
569.758415E-3
569.478607E-3
569.282341E-3
568.944740E-3
568.822861E-3
568.514442E-3
568.465805E-3
568.116760E-3
567.859840E-3
567.587471E-3
567.232132E-3
567.001534E-3
566.742325E-3
566.349792E-3
566.181564E-3
565.845680E-3
565.652847E-3
565.436554E-3
565.069199E-3
564.863205E-3
564.410019E-3
564.169693E-3
563.872719E-3
563.461876E-3
563.307953E-3
563.139725E-3
563.595772E-3
564.873505E-3
567.112541E-3
570.639610E-3
574.761772E-3
579.485321E-3
583.898163E-3
587.590599E-3
590.230179E-3
591.360855E-3
591.384888E-3
590.398979E-3
588.550758E-3
586.515427E-3
584.151649E-3
581.911469E-3
579.918480E-3
577.938080E-3
576.370239E-3
575.164604E-3
574.333763E-3
573.886871E-3
573.516083E-3
573.498344E-3
573.372459E-3
573.173332E-3
573.020554E-3
572.468376E-3
571.952820E-3
571.287918E-3
571.060181E-3
570.902252E-3
570.891380E-3
571.335983E-3
571.606064E-3
571.924782E-3
572.341347E-3
572.518158E-3
572.616577E-3
572.446060E-3
572.351074E-3
571.846962E-3
571.317673E-3
570.993805E-3
570.096588E-3
569.352722E-3
568.619156E-3
567.646408E-3
567.022133E-3
566.187859E-3
565.814209E-3
565.220261E-3
564.727592E-3
564.492416E-3
564.144516E-3
563.915634E-3
563.725090E-3
563.369751E-3
563.290787E-3
562.827873E-3
562.825012E-3
562.760353E-3
562.459946E-3
562.452507E-3
562.308884E-3
562.229347E-3
562.101746E-3
561.907196E-3
561.683464E-3
561.426544E-3
561.266327E-3
561.060905E-3
560.848045E-3
560.619164E-3
560.256958E-3
560.020065E-3
559.759712E-3
559.505081E-3
559.152603E-3
558.734322E-3
558.431625E-3
558.284569E-3
557.971573E-3
557.856560E-3
557.533264E-3
557.296944E-3
557.252312E-3
556.965065E-3
556.659508E-3
556.322479E-3
556.021500E-3
555.714226E-3
555.337143E-3
555.152893E-3
554.815292E-3
554.577255E-3
554.347801E-3
554.361534E-3
554.981232E-3
556.188583E-3
558.555794E-3
561.928940E-3
566.106033E-3
570.643616E-3
574.710846E-3
578.038216E-3
580.387688E-3
581.362152E-3
581.532097E-3
580.616570E-3
579.215240E-3
577.464867E-3
575.290489E-3
573.302650E-3
571.332550E-3
569.684601E-3
568.350220E-3
567.240715E-3
566.712570E-3
566.186714E-3
565.883446E-3
565.921211E-3
565.926933E-3
566.119194E-3
565.755844E-3
565.335846E-3
564.934158E-3
564.467239E-3
564.415169E-3
564.460373E-3
564.790535E-3
565.219116E-3
565.609360E-3
566.120338E-3
566.441917E-3
566.737175E-3
566.915131E-3
566.853333E-3
566.841316E-3
566.411018E-3
566.057396E-3
565.599632E-3
564.973640E-3
564.335632E-3
563.626099E-3
562.914276E-3
562.374115E-3
561.703491E-3
561.291504E-3
560.841751E-3
560.576820E-3
560.363388E-3
559.941101E-3
559.870720E-3
559.835243E-3
559.594345E-3
559.468460E-3
559.213829E-3
559.277344E-3
559.175491E-3
559.102821E-3
559.087372E-3
558.962631E-3
558.910561E-3
558.896255E-3
558.900261E-3
558.907700E-3
558.780098E-3
558.743477E-3
558.593559E-3
558.447647E-3
558.409882E-3
558.052254E-3
558.127785E-3
557.888603E-3
557.578468E-3
557.435989E-3
557.084656E-3
556.944466E-3
556.731033E-3
556.537628E-3
556.501579E-3
556.129074E-3
556.043243E-3
555.628395E-3
555.475616E-3
555.413246E-3
555.228996E-3
555.258751E-3
555.070496E-3
554.847336E-3
554.877090E-3
554.787254E-3
554.689980E-3
554.330635E-3
554.237366E-3
553.951836E-3
553.638268E-3
553.635406E-3
553.907204E-3
554.324913E-3
555.705643E-3
558.186150E-3
561.729240E-3
565.924072E-3
570.410156E-3
574.705124E-3
578.054237E-3
580.526733E-3
581.841087E-3
582.052231E-3
581.299210E-3
579.862976E-3
578.209305E-3
576.076126E-3
574.201012E-3
572.257805E-3
570.516586E-3
569.248009E-3
568.151093E-3
567.511940E-3
567.210960E-3
567.065620E-3
567.196655E-3
567.023849E-3
567.269325E-3
567.304802E-3
566.947174E-3
566.512871E-3
566.021347E-3
565.692329E-3
565.546989E-3
565.625954E-3
565.657997E-3
565.994453E-3
566.373253E-3
566.784096E-3
566.916847E-3
567.253876E-3
567.233276E-3
567.248726E-3
567.228699E-3
566.713715E-3
566.418457E-3
565.769577E-3
565.086937E-3
564.554214E-3
563.765717E-3
563.195801E-3
562.759781E-3
562.380981E-3
562.039948E-3
561.631966E-3
561.450577E-3
561.085510E-3
560.880089E-3
560.767937E-3
560.473251E-3
560.420036E-3
560.229492E-3
560.454369E-3
560.280991E-3
560.090446E-3
560.029221E-3
559.926796E-3
559.892464E-3
559.973145E-3
559.796906E-3
559.712219E-3
559.396935E-3
559.320259E-3
559.293365E-3
559.110260E-3
559.017563E-3
558.984375E-3
558.756065E-3
558.762360E-3
558.364105E-3
558.230782E-3
557.941246E-3
557.724953E-3
557.401657E-3
557.013130E-3
556.847191E-3
556.521606E-3
556.402588E-3
556.308174E-3
556.042099E-3
555.960846E-3
555.802917E-3
555.701065E-3
555.622673E-3
555.544853E-3
555.560303E-3
555.178070E-3
555.216408E-3
555.295944E-3
555.032730E-3
555.002975E-3
554.721451E-3
554.449654E-3
554.324341E-3
554.122353E-3
554.236221E-3
554.071426E-3
554.461098E-3
555.915070E-3
558.190155E-3
561.625099E-3
565.739250E-3
570.045090E-3
574.300575E-3
577.533531E-3
580.282974E-3
581.698608E-3
581.901169E-3
581.321526E-3
579.916763E-3
578.216171E-3
576.191711E-3
574.187279E-3
572.418594E-3
570.612717E-3
569.245720E-3
568.238640E-3
567.518806E-3
567.154312E-3
566.880226E-3
567.016983E-3
567.123413E-3
567.248154E-3
567.034721E-3
566.526604E-3
566.291428E-3
565.865707E-3
565.628242E-3
565.663719E-3
565.653992E-3
565.992165E-3
566.239929E-3
566.612434E-3
567.105103E-3
567.333984E-3
567.621231E-3
567.784882E-3
567.724800E-3
567.615509E-3
567.219543E-3
566.946602E-3
566.344070E-3
565.660858E-3
565.040588E-3
564.331627E-3
563.830948E-3
563.382339E-3
563.109970E-3
562.655067E-3
562.234497E-3
561.973572E-3
561.655426E-3
561.342430E-3
561.269188E-3
560.957336E-3
560.933876E-3
560.895538E-3
560.870934E-3
560.961342E-3
560.785103E-3
560.769653E-3
560.738754E-3
560.676384E-3
560.755348E-3
560.638046E-3
560.393715E-3
560.373688E-3
560.438919E-3
560.394287E-3
560.211754E-3
560.226631E-3
560.103035E-3
559.903908E-3
559.775162E-3
559.590912E-3
559.334564E-3
559.071922E-3
558.772087E-3
558.528328E-3
558.158684E-3
557.949829E-3
557.660294E-3
557.334709E-3
557.038307E-3
556.798553E-3
556.751633E-3
556.507874E-3
556.413460E-3
556.285286E-3
556.097603E-3
556.063843E-3
555.950546E-3
556.005478E-3
555.680466E-3
555.294800E-3
555.197525E-3
554.873085E-3
554.621887E-3
554.441071E-3
554.211044E-3
553.970718E-3
554.011345E-3
554.467392E-3
555.865860E-3
558.067131E-3
561.431122E-3
565.343857E-3
569.422531E-3
573.266029E-3
576.051521E-3
577.958679E-3
578.896523E-3
578.738022E-3
577.940941E-3
576.531601E-3
574.794388E-3
572.858047E-3
570.873070E-3
568.977928E-3
567.056465E-3
565.680885E-3
564.551926E-3
563.642693E-3
563.220406E-3
562.810135E-3
562.688828E-3
562.783813E-3
562.429619E-3
561.931229E-3
561.429977E-3
561.182213E-3
560.964775E-3
560.871506E-3
561.274338E-3
561.672592E-3
562.401581E-3
562.821579E-3
563.363457E-3
563.928795E-3
564.194870E-3
564.557076E-3
564.587402E-3
564.567947E-3
564.472961E-3
563.999176E-3
563.620949E-3
562.997818E-3
562.325478E-3
561.654282E-3
560.937881E-3
560.383987E-3
559.808922E-3
559.338570E-3
559.086800E-3
558.662224E-3
558.520317E-3
558.169556E-3
557.894897E-3
557.723236E-3
557.520676E-3
557.465172E-3
557.401657E-3
557.402802E-3
557.447433E-3
557.384491E-3
557.514954E-3
557.606506E-3
557.600784E-3
557.635117E-3
557.357597E-3
557.591057E-3
557.591629E-3
557.534981E-3
557.595634E-3
557.501793E-3
557.618523E-3
557.526970E-3
557.418823E-3
557.381630E-3
557.161331E-3
557.111549E-3
556.856918E-3
556.666374E-3
556.518173E-3
556.237221E-3
556.116486E-3
555.928230E-3
556.009483E-3
555.782318E-3
555.441856E-3
555.410957E-3
555.299950E-3
555.219841E-3
555.279922E-3
555.112267E-3
555.144882E-3
555.081367E-3
554.821014E-3
554.678535E-3
554.363251E-3
554.270554E-3
554.029083E-3
553.821945E-3
553.744698E-3
553.378487E-3
553.566170E-3
553.733826E-3
554.493713E-3
556.348228E-3
558.991814E-3
562.738609E-3
566.841888E-3
570.909691E-3
574.553490E-3
577.195358E-3
579.030991E-3
579.707336E-3
579.521370E-3
578.686523E-3
577.268600E-3
575.549126E-3
573.604774E-3
571.658134E-3
570.114899E-3
568.380547E-3
567.338562E-3
566.377831E-3
565.705490E-3
565.570450E-3
565.356445E-3
565.473175E-3
565.549850E-3
565.542984E-3
565.487480E-3
565.112114E-3
564.819145E-3
564.479828E-3
564.327049E-3
564.413452E-3
564.722443E-3
564.991951E-3
565.236855E-3
565.557289E-3
566.043663E-3
566.206741E-3
566.604996E-3
566.759491E-3
566.705704E-3
566.486549E-3
566.343498E-3
566.057968E-3
565.519524E-3
564.859772E-3
564.250374E-3
563.576317E-3
563.107681E-3
562.548637E-3
561.929512E-3
561.665154E-3
561.023140E-3
560.659218E-3
560.329056E-3
560.014343E-3
559.836960E-3
559.482193E-3
559.337997E-3
559.149170E-3
559.044456E-3
558.881950E-3
558.720589E-3
558.705711E-3
558.539772E-3
558.400726E-3
558.502579E-3
558.361244E-3
558.053398E-3
558.183861E-3
558.071709E-3
558.078575E-3
557.928658E-3
558.011627E-3
557.807922E-3
557.559586E-3
557.577324E-3
557.055473E-3
556.999397E-3
556.765938E-3
556.570244E-3
556.460381E-3
556.105614E-3
556.058121E-3
555.797768E-3
555.525398E-3
555.555153E-3
555.254745E-3
555.212975E-3
555.088806E-3
555.023003E-3
554.956627E-3
554.885674E-3
554.911995E-3
554.826164E-3
554.728317E-3
554.596138E-3
554.287148E-3
554.278564E-3
554.078865E-3
553.808212E-3
553.719521E-3
553.201675E-3
553.345871E-3
553.367615E-3
553.569031E-3
554.603577E-3
556.565094E-3
559.572029E-3
563.214684E-3
567.148590E-3
570.977783E-3
574.231911E-3
576.831436E-3
578.413582E-3
578.875351E-3
578.633308E-3
577.471733E-3
576.068687E-3
574.353218E-3
572.628021E-3
570.643616E-3
568.838310E-3
567.437553E-3
566.291428E-3
565.508080E-3
565.023422E-3
564.692116E-3
564.612579E-3
564.599419E-3
564.555359E-3
564.459229E-3
564.115334E-3
563.784599E-3
563.372612E-3
563.080215E-3
563.232422E-3
563.147163E-3
563.682747E-3
563.901901E-3
564.185715E-3
564.468956E-3
564.805984E-3
565.112686E-3
565.327835E-3
565.431404E-3
565.594482E-3
565.574455E-3
565.280342E-3
564.812851E-3
564.175415E-3
563.560295E-3
562.929726E-3
562.344933E-3
561.959839E-3
561.420822E-3
561.163330E-3
560.723305E-3
560.454369E-3
560.232353E-3
559.890175E-3
559.740829E-3
559.466171E-3
559.225845E-3
559.162903E-3
559.040451E-3
559.163475E-3
559.054184E-3
559.059334E-3
559.117699E-3
559.027290E-3
559.144020E-3
558.982086E-3
559.000969E-3
559.072495E-3
558.960915E-3
558.996964E-3
558.941460E-3
558.911133E-3
558.840179E-3
558.748627E-3
558.518028E-3
558.475113E-3
558.383560E-3
558.239937E-3
558.156967E-3
558.031654E-3
557.737541E-3
557.637405E-3
557.472038E-3
557.358170E-3
557.177925E-3
556.929588E-3
556.827164E-3
556.728745E-3
556.544495E-3
556.563950E-3
556.447792E-3
556.468964E-3
556.075859E-3
556.135368E-3
556.230927E-3
556.066132E-3
556.108475E-3
555.905342E-3
555.710220E-3
555.730820E-3
555.469322E-3
555.179787E-3
554.928017E-3
554.726601E-3
554.962349E-3
555.464745E-3
557.043457E-3
559.682465E-3
563.009262E-3
566.940308E-3
570.756340E-3
574.192429E-3
576.682663E-3
578.303719E-3
578.914833E-3
578.478241E-3
577.425385E-3
576.187134E-3
574.154663E-3
572.262383E-3
570.170403E-3
568.256378E-3
566.698265E-3
565.370178E-3
564.485550E-3
563.638687E-3
563.238716E-3
562.962914E-3
562.743759E-3
562.617302E-3
562.227631E-3
561.848259E-3
561.356735E-3
561.021996E-3
560.788536E-3
560.696983E-3
560.886383E-3
561.211967E-3
561.546707E-3
562.100029E-3
562.409019E-3
562.791824E-3
562.941170E-3
563.065338E-3
563.450432E-3
563.207245E-3
562.904549E-3
562.549210E-3
561.896324E-3
561.333275E-3
560.548210E-3
559.893608E-3
559.258461E-3
558.578682E-3
558.093452E-3
557.557869E-3
557.171631E-3
556.800842E-3
556.381416E-3
556.115913E-3
555.713654E-3
555.582047E-3
555.503082E-3
555.144310E-3
555.240440E-3
554.968071E-3
555.005264E-3
554.920578E-3
554.850769E-3
554.856491E-3
554.760361E-3
554.865646E-3
554.764366E-3
554.639626E-3
554.669380E-3
554.536629E-3
554.507446E-3
554.461098E-3
554.287148E-3
554.300308E-3
554.101181E-3
553.996468E-3
553.891182E-3
553.657722E-3
553.666878E-3
553.328705E-3
553.225708E-3
553.411674E-3
552.956772E-3
552.866364E-3
552.582550E-3
552.494431E-3
552.505875E-3
552.276993E-3
552.286720E-3
552.192879E-3
552.180290E-3
552.138519E-3
551.955414E-3
551.933098E-3
551.806641E-3
551.621246E-3
551.427841E-3
551.294518E-3
551.181221E-3
550.831032E-3
550.749779E-3
550.858498E-3
551.192093E-3
552.523613E-3
554.710579E-3
557.807350E-3
561.599350E-3
565.423965E-3
569.265175E-3
572.253227E-3
574.338913E-3
575.507927E-3
575.740242E-3
575.321388E-3
574.358368E-3
572.898102E-3
571.212959E-3
569.462585E-3
567.832375E-3
566.263390E-3
565.022278E-3
564.155388E-3
563.476753E-3
563.169479E-3
562.858200E-3
562.922859E-3
563.130569E-3
563.041878E-3
563.176918E-3
562.894821E-3
562.648773E-3
562.296867E-3
562.027931E-3
562.045670E-3
562.083435E-3
562.304306E-3
562.692261E-3
563.024712E-3
563.379478E-3
563.606071E-3
563.936234E-3
564.095879E-3
564.069557E-3
564.039803E-3
563.818932E-3
563.479614E-3
563.057899E-3
562.487411E-3
562.060547E-3
561.503220E-3
560.943031E-3
560.508728E-3
559.927368E-3
559.594345E-3
559.055901E-3
558.768082E-3
558.578682E-3
558.277130E-3
558.183861E-3
557.941818E-3
557.846260E-3
557.754135E-3
557.590485E-3
557.716370E-3
557.583618E-3
557.556152E-3
557.540703E-3
557.365036E-3
557.329559E-3
557.013702E-3
557.132149E-3
557.077789E-3
556.947899E-3
556.993675E-3
556.814003E-3
556.693840E-3
556.585693E-3
556.498146E-3
556.399727E-3
556.118774E-3
555.930519E-3
555.754280E-3
555.426979E-3
555.331421E-3
555.031586E-3
554.788399E-3
554.715157E-3
554.643631E-3
554.419899E-3
554.105759E-3
554.001045E-3
553.815079E-3
553.656578E-3
553.626823E-3
553.405380E-3
553.280067E-3
553.218269E-3
553.088379E-3
552.981377E-3
552.786827E-3
552.599144E-3
552.618599E-3
552.478981E-3
552.354813E-3
551.992035E-3
551.667023E-3
551.756287E-3
552.175140E-3
553.252029E-3
555.192375E-3
558.083725E-3
561.738968E-3
565.609360E-3
569.348717E-3
572.402573E-3
574.612999E-3
575.949669E-3
576.276398E-3
575.992584E-3
574.900818E-3
573.444557E-3
