Notes :


2023-11-04 ¿ÀÈÄ 7:03:38
Volts
Ch : LED 2,
494.760704E-3
494.817924E-3
494.758987E-3
494.593620E-3
494.647408E-3
494.632530E-3
494.531250E-3
494.467735E-3
494.416809E-3
494.278336E-3
494.009972E-3
493.929291E-3
493.855476E-3
493.607140E-3
493.441200E-3
493.310738E-3
493.055534E-3
492.807770E-3
492.486763E-3
492.249298E-3
491.867065E-3
491.408730E-3
491.043091E-3
490.564728E-3
490.233421E-3
489.777374E-3
489.262390E-3
488.977432E-3
488.616371E-3
488.558006E-3
488.516235E-3
488.562012E-3
489.393425E-3
491.098595E-3
494.050026E-3
497.983932E-3
502.060890E-3
506.247711E-3
510.163307E-3
513.284111E-3
515.383530E-3
516.149712E-3
515.861893E-3
514.606476E-3
512.800026E-3
510.660553E-3
508.511925E-3
506.601334E-3
504.943657E-3
503.851318E-3
503.022766E-3
502.574158E-3
502.547264E-3
502.779007E-3
502.923775E-3
503.065681E-3
503.207588E-3
503.028488E-3
502.291489E-3
501.462936E-3
500.534248E-3
499.753189E-3
499.280548E-3
499.196434E-3
499.341774E-3
499.786949E-3
500.319672E-3
500.936508E-3
501.383972E-3
501.626015E-3
501.552773E-3
501.418304E-3
500.886726E-3
500.170326E-3
499.518585E-3
498.703194E-3
497.878075E-3
497.183990E-3
496.396637E-3
495.745468E-3
495.070267E-3
494.514084E-3
494.071770E-3
493.600845E-3
493.198013E-3
492.966843E-3
492.648697E-3
492.312241E-3
492.259026E-3
492.190361E-3
492.097664E-3
491.883659E-3
491.795540E-3
491.669083E-3
491.655922E-3
491.699982E-3
491.742325E-3
491.703415E-3
491.594124E-3
491.551781E-3
491.429329E-3
491.310883E-3
491.287422E-3
491.099167E-3
490.974998E-3
491.199303E-3
490.855408E-3
490.661430E-3
490.538406E-3
490.346146E-3
490.139580E-3
489.797974E-3
489.540482E-3
489.162827E-3
488.751984E-3
488.239861E-3
487.851906E-3
487.508583E-3
486.962128E-3
486.763000E-3
486.709213E-3
486.595917E-3
486.709785E-3
486.380768E-3
486.817932E-3
487.880516E-3
489.974785E-3
493.198013E-3
496.923065E-3
501.091576E-3
505.247498E-3
508.911324E-3
511.906242E-3
513.402557E-3
513.737869E-3
513.102150E-3
511.636734E-3
509.827995E-3
507.741165E-3
505.883217E-3
504.239845E-3
502.882576E-3
502.001381E-3
501.421165E-3
501.311874E-3
501.339912E-3
501.408005E-3
501.603699E-3
501.414871E-3
501.163101E-3
500.435257E-3
499.611282E-3
498.988152E-3
498.518372E-3
498.421669E-3
498.732376E-3
499.287987E-3
499.948883E-3
500.923920E-3
501.634026E-3
502.217102E-3
502.524948E-3
502.568436E-3
502.303505E-3
501.711845E-3
501.111031E-3
500.423241E-3
499.668503E-3
498.759842E-3
498.050308E-3
497.385406E-3
496.599770E-3
495.989799E-3
495.410728E-3
494.995880E-3
494.508362E-3
494.352150E-3
494.265747E-3
494.157028E-3
494.088364E-3
494.242287E-3
494.163322E-3
494.167900E-3
494.070625E-3
494.254303E-3
494.024277E-3
494.062042E-3
494.150162E-3
494.016266E-3
494.066620E-3
494.104385E-3
493.953323E-3
493.941879E-3
494.188499E-3
494.068336E-3
493.973923E-3
493.896103E-3
493.836021E-3
493.820000E-3
493.662643E-3
493.234634E-3
493.133926E-3
492.962265E-3
492.705917E-3
492.410088E-3
492.168045E-3
491.770935E-3
491.496849E-3
491.124344E-3
490.779305E-3
490.335274E-3
490.137863E-3
490.155602E-3
490.168762E-3
490.493774E-3
491.460228E-3
493.370819E-3
496.453285E-3
500.410652E-3
504.806900E-3
509.184837E-3
513.332748E-3
516.607475E-3
518.731499E-3
519.653320E-3
519.535446E-3
518.403053E-3
516.848946E-3
514.738083E-3
512.748528E-3
510.916328E-3
509.380531E-3
508.284187E-3
507.520294E-3
507.148933E-3
507.154655E-3
507.332611E-3
507.692528E-3
507.982063E-3
508.113670E-3
507.947159E-3
507.332039E-3
506.500053E-3
505.589676E-3
504.801178E-3
504.393768E-3
504.083061E-3
504.292488E-3
504.606628E-3
505.031204E-3
505.631447E-3
506.036568E-3
506.358719E-3
506.449127E-3
506.335831E-3
505.886650E-3
505.201721E-3
504.483604E-3
503.732872E-3
502.844238E-3
502.072334E-3
501.354218E-3
500.566864E-3
499.988365E-3
499.442482E-3
499.044800E-3
498.630524E-3
498.409081E-3
498.205376E-3
498.062325E-3
497.892380E-3
497.577095E-3
497.470093E-3
497.369957E-3
497.174263E-3
497.132492E-3
497.013474E-3
497.026634E-3
497.030067E-3
497.003746E-3
496.982002E-3
496.854973E-3
496.802330E-3
496.555138E-3
496.373177E-3
496.285057E-3
495.986938E-3
495.839310E-3
495.694542E-3
495.516586E-3
495.386696E-3
495.229340E-3
495.117187E-3
494.894028E-3
494.644547E-3
494.352150E-3
494.035721E-3
493.820000E-3
493.439484E-3
493.009186E-3
492.689896E-3
492.273903E-3
491.975784E-3
491.659927E-3
491.287422E-3
491.069984E-3
491.163826E-3
491.098022E-3
491.159248E-3
491.801262E-3
493.348503E-3
496.027565E-3
499.578667E-3
503.826714E-3
508.316231E-3
512.743950E-3
516.375732E-3
518.982124E-3
520.290184E-3
520.412064E-3
519.492531E-3
517.707825E-3
515.386963E-3
513.255501E-3
511.330605E-3
509.672928E-3
508.414650E-3
507.461929E-3
507.070541E-3
506.913185E-3
507.031631E-3
507.319450E-3
507.749176E-3
507.840157E-3
507.748032E-3
507.294273E-3
506.257439E-3
505.288696E-3
504.192924E-3
503.475380E-3
502.963829E-3
503.046799E-3
503.100586E-3
503.559494E-3
504.116821E-3
504.537964E-3
504.841805E-3
504.940224E-3
504.776573E-3
504.406357E-3
503.757477E-3
502.985573E-3
502.238274E-3
501.259804E-3
500.372314E-3
499.596977E-3
498.874283E-3
498.239136E-3
497.855186E-3
497.203445E-3
496.773720E-3
496.381187E-3
496.131134E-3
495.829582E-3
495.619011E-3
495.375824E-3
495.154953E-3
495.039940E-3
494.898605E-3
494.586754E-3
494.556999E-3
494.470596E-3
494.484901E-3
494.369888E-3
494.010544E-3
494.189072E-3
494.064331E-3
493.986511E-3
493.772507E-3
493.508148E-3
493.361092E-3
493.073273E-3
492.835236E-3
492.745399E-3
492.487907E-3
492.319679E-3
492.113686E-3
491.967201E-3
491.853333E-3
491.671371E-3
491.336632E-3
491.037941E-3
490.718079E-3
490.385056E-3
490.141869E-3
489.954185E-3
489.494133E-3
489.212036E-3
488.893890E-3
488.519669E-3
488.311958E-3
488.481331E-3
488.381195E-3
488.272476E-3
488.274765E-3
488.717079E-3
490.056038E-3
492.570877E-3
496.021271E-3
499.988365E-3
504.339981E-3
508.593178E-3
512.235260E-3
514.705467E-3
515.770340E-3
515.809822E-3
514.716339E-3
512.989426E-3
510.922623E-3
508.730507E-3
506.640816E-3
504.939651E-3
503.612709E-3
502.817917E-3
502.312660E-3
502.230835E-3
502.238274E-3
502.400780E-3
502.661133E-3
502.668571E-3
502.371597E-3
501.493263E-3
500.701332E-3
500.018120E-3
499.598122E-3
499.538040E-3
499.640465E-3
500.138855E-3
500.873566E-3
501.626015E-3
502.341270E-3
502.829933E-3
503.095436E-3
503.093147E-3
502.486038E-3
502.166176E-3
501.590538E-3
500.786591E-3
500.085068E-3
499.088287E-3
498.312950E-3
497.508430E-3
496.804619E-3
496.062469E-3
495.531464E-3
495.149803E-3
494.920349E-3
494.644547E-3
494.480324E-3
494.275475E-3
494.173622E-3
494.098091E-3
493.817139E-3
493.935585E-3
493.761635E-3
493.853760E-3
493.880081E-3
493.820572E-3
493.767929E-3
493.711853E-3
493.730164E-3
493.682098E-3
493.700409E-3
493.605995E-3
493.504143E-3
493.462944E-3
493.277550E-3
493.146515E-3
493.077278E-3
492.930794E-3
493.139648E-3
492.831802E-3
492.613792E-3
492.569733E-3
492.403793E-3
492.258453E-3
491.955757E-3
491.636467E-3
491.455650E-3
491.100883E-3
490.888023E-3
490.564728E-3
490.354729E-3
490.033722E-3
489.709282E-3
489.653778E-3
489.422607E-3
489.511871E-3
489.717865E-3
490.127563E-3
491.368675E-3
493.632889E-3
496.879005E-3
500.954819E-3
505.431747E-3
509.925842E-3
513.983917E-3
517.176819E-3
519.216156E-3
519.736862E-3
519.184685E-3
517.757607E-3
515.758324E-3
513.525581E-3
511.272812E-3
509.534454E-3
508.008957E-3
507.064819E-3
506.522942E-3
506.314087E-3
506.459427E-3
506.706047E-3
507.039070E-3
507.350922E-3
507.407570E-3
507.225037E-3
506.607628E-3
505.757904E-3
504.920769E-3
504.189491E-3
503.744888E-3
503.638458E-3
503.937721E-3
504.216957E-3
504.586029E-3
505.042648E-3
505.494690E-3
505.742455E-3
505.796242E-3
505.511856E-3
505.172539E-3
504.755402E-3
503.957176E-3
503.203583E-3
502.352715E-3
501.512146E-3
500.585175E-3
499.854469E-3
499.203873E-3
498.579025E-3
498.139572E-3
497.782516E-3
497.468376E-3
497.257233E-3
497.080421E-3
496.965981E-3
496.682739E-3
496.637535E-3
496.398354E-3
496.239281E-3
496.120262E-3
496.112251E-3
496.036148E-3
495.970917E-3
495.929146E-3
495.871353E-3
495.845604E-3
495.619583E-3
495.527458E-3
495.338058E-3
495.199585E-3
495.000458E-3
494.814491E-3
494.635963E-3
494.403076E-3
494.053459E-3
493.924141E-3
493.834305E-3
493.685532E-3
493.478394E-3
493.268967E-3
493.127060E-3
492.950821E-3
492.748833E-3
492.519379E-3
492.348289E-3
492.192650E-3
491.936302E-3
491.686249E-3
491.321182E-3
491.066551E-3
490.853119E-3
490.566444E-3
490.213966E-3
489.904404E-3
489.727020E-3
489.764786E-3
489.846611E-3
490.336418E-3
491.658783E-3
494.022560E-3
497.546196E-3
501.759338E-3
506.411934E-3
510.817909E-3
514.726639E-3
517.587090E-3
519.154930E-3
519.535446E-3
518.595886E-3
517.276382E-3
515.132904E-3
512.868690E-3
510.770988E-3
508.929634E-3
507.508278E-3
506.512642E-3
505.951881E-3
505.590248E-3
505.763054E-3
506.055450E-3
506.378174E-3
506.799889E-3
506.975555E-3
506.740952E-3
506.038284E-3
505.083847E-3
503.902245E-3
503.035927E-3
502.431107E-3
502.104378E-3
502.021408E-3
502.199936E-3
502.567863E-3
502.930641E-3
503.301430E-3
503.635025E-3
503.451920E-3
503.198433E-3
502.749825E-3
502.139282E-3
501.442909E-3
500.640106E-3
499.875641E-3
498.984718E-3
498.006821E-3
497.407722E-3
496.763992E-3
496.269035E-3
495.810127E-3
495.379257E-3
495.030212E-3
494.669724E-3
494.469452E-3
494.018555E-3
493.933868E-3
493.750763E-3
493.494415E-3
493.363953E-3
493.165398E-3
493.077278E-3
493.150520E-3
493.061829E-3
493.012619E-3
492.890167E-3
492.787743E-3
492.572021E-3
492.367744E-3
492.172050E-3
491.987801E-3
491.570091E-3
491.516304E-3
491.312027E-3
491.113472E-3
490.883446E-3
490.635681E-3
490.465736E-3
490.277481E-3
490.003395E-3
489.665222E-3
489.455795E-3
489.199448E-3
489.015198E-3
488.753128E-3
488.459015E-3
488.287354E-3
488.077927E-3
487.791824E-3
487.783813E-3
487.313461E-3
486.845398E-3
486.495209E-3
486.139870E-3
486.084938E-3
486.095238E-3
485.977936E-3
485.893250E-3
486.212540E-3
487.572670E-3
489.916992E-3
493.347359E-3
497.285843E-3
501.578522E-3
505.740738E-3
509.184265E-3
511.687660E-3
512.925339E-3
512.998009E-3
512.152863E-3
510.666275E-3
508.551979E-3
506.365013E-3
504.410362E-3
502.602768E-3
501.223183E-3
500.334549E-3
499.729156E-3
499.396706E-3
499.380112E-3
499.458504E-3
499.741745E-3
500.030136E-3
499.941444E-3
499.563217E-3
498.738670E-3
498.107529E-3
497.541046E-3
497.287560E-3
497.234917E-3
497.521591E-3
498.093796E-3
498.612785E-3
499.302864E-3
499.989510E-3
500.328255E-3
500.467300E-3
500.280190E-3
499.879074E-3
499.313164E-3
498.624802E-3
497.514725E-3
496.793747E-3
495.937729E-3
495.119476E-3
494.392776E-3
493.665504E-3
493.272972E-3
492.783737E-3
492.450142E-3
492.096519E-3
491.953468E-3
491.872215E-3
491.659927E-3
491.560936E-3
491.410446E-3
491.419029E-3
491.405296E-3
491.308022E-3
491.188431E-3
491.194153E-3
491.153526E-3
491.249084E-3
491.349792E-3
491.471672E-3
491.374397E-3
491.251373E-3
491.202736E-3
490.819359E-3
490.965271E-3
490.891457E-3
490.840530E-3
490.752983E-3
490.620232E-3
490.559578E-3
490.432549E-3
490.375328E-3
490.520096E-3
490.173912E-3
489.872932E-3
489.562225E-3
489.349937E-3
489.107895E-3
488.744545E-3
488.472748E-3
488.131142E-3
487.709427E-3
487.405586E-3
487.251663E-3
487.201309E-3
487.156105E-3
487.146378E-3
487.518883E-3
488.667297E-3
490.599060E-3
493.473816E-3
497.225761E-3
501.553917E-3
505.890656E-3
510.072327E-3
513.336182E-3
515.530014E-3
516.547966E-3
516.146278E-3
514.897728E-3
513.036919E-3
510.911751E-3
508.678436E-3
506.716347E-3
505.155373E-3
503.949738E-3
503.307152E-3
502.767563E-3
502.593040E-3
502.770996E-3
502.934647E-3
503.283119E-3
503.572655E-3
503.562927E-3
503.129768E-3
502.627373E-3
501.637459E-3
500.799751E-3
500.264740E-3
500.098228E-3
500.157738E-3
500.388908E-3
500.774574E-3
501.237488E-3
501.823997E-3
502.033424E-3
502.212524E-3
502.108383E-3
501.783943E-3
501.387405E-3
500.772858E-3
500.086212E-3
499.411583E-3
498.740959E-3
497.796249E-3
497.000885E-3
496.220398E-3
495.725441E-3
495.079422E-3
494.667435E-3
494.298363E-3
494.131279E-3
493.829727E-3
493.694687E-3
493.614006E-3
493.474960E-3
493.355942E-3
493.191147E-3
493.010330E-3
493.074417E-3
493.043518E-3
492.966843E-3
492.982292E-3
492.934799E-3
492.771721E-3
492.599487E-3
492.633820E-3
492.647552E-3
492.656708E-3
492.291641E-3
492.026711E-3
491.789246E-3
491.691971E-3
491.491699E-3
491.321754E-3
491.229630E-3
491.062546E-3
490.995598E-3
490.595627E-3
490.516663E-3
490.354729E-3
490.121841E-3
489.940453E-3
489.689255E-3
489.526749E-3
489.213753E-3
488.624382E-3
488.451576E-3
488.084793E-3
487.948036E-3
487.596130E-3
487.475967E-3
487.485123E-3
487.552071E-3
487.804413E-3
488.517952E-3
490.681458E-3
493.925285E-3
497.881508E-3
502.299500E-3
506.871986E-3
510.865974E-3
514.088058E-3
516.000366E-3
516.306496E-3
516.062737E-3
514.806175E-3
512.900734E-3
510.654831E-3
508.545113E-3
506.607628E-3
504.938507E-3
503.786659E-3
503.139496E-3
502.722931E-3
502.720070E-3
502.833939E-3
503.055954E-3
503.233910E-3
503.483391E-3
503.452492E-3
502.883148E-3
502.012825E-3
501.099014E-3
500.282478E-3
499.640465E-3
499.386406E-3
499.357796E-3
499.621010E-3
499.897385E-3
500.339127E-3
500.780296E-3
501.012611E-3
501.006889E-3
500.812340E-3
500.398064E-3
499.903679E-3
499.326324E-3
498.562431E-3
497.803116E-3
497.070122E-3
496.345711E-3
495.625877E-3
494.919777E-3
494.350433E-3
493.763924E-3
493.260956E-3
493.047523E-3
492.668724E-3
492.409515E-3
492.229271E-3
492.057037E-3
491.932297E-3
491.738892E-3
491.594124E-3
491.444778E-3
491.122627E-3
491.263962E-3
491.126633E-3
491.114044E-3
491.050529E-3
490.886879E-3
490.847397E-3
490.679741E-3
490.551567E-3
490.493202E-3
490.292358E-3
490.217972E-3
489.994240E-3
489.744186E-3
489.496994E-3
489.347649E-3
489.253807E-3
489.095879E-3
488.951683E-3
488.800049E-3
488.563728E-3
488.275909E-3
488.040733E-3
487.767792E-3
487.609291E-3
487.037659E-3
486.874008E-3
486.643410E-3
486.345863E-3
486.058617E-3
485.791397E-3
485.799408E-3
485.797119E-3
485.655212E-3
485.814285E-3
486.301231E-3
487.935448E-3
490.492630E-3
494.039726E-3
498.134995E-3
502.445412E-3
506.426811E-3
509.734726E-3
511.981773E-3
512.858391E-3
512.384605E-3
511.285400E-3
509.509277E-3
507.342911E-3
505.139923E-3
503.340340E-3
501.799965E-3
500.435257E-3
499.559212E-3
499.035645E-3
498.791885E-3
498.599625E-3
498.468018E-3
498.853111E-3
499.034500E-3
498.739243E-3
498.216248E-3
497.439766E-3
496.911621E-3
496.553993E-3
496.349144E-3
496.570015E-3
497.194290E-3
497.995377E-3
498.771286E-3
499.572945E-3
500.059891E-3
500.354004E-3
500.436974E-3
