Notes :


2023-11-10 ¿ÀÈÄ 9:57:21
Volts
Ch : LED 2,
414.842033E-3
415.117264E-3
415.231133E-3
415.538406E-3
415.886307E-3
416.011620E-3
416.357803E-3
416.389847E-3
415.947533E-3
415.266037E-3
414.425468E-3
413.794899E-3
413.116837E-3
412.835884E-3
412.703705E-3
412.622452E-3
412.796402E-3
412.932587E-3
413.217545E-3
413.489914E-3
413.548279E-3
413.647270E-3
413.440704E-3
413.460159E-3
413.192940E-3
412.853050E-3
412.669373E-3
412.205315E-3
411.947823E-3
411.646271E-3
411.304092E-3
411.254311E-3
410.968781E-3
410.765648E-3
410.540771E-3
410.262108E-3
410.073280E-3
409.760284E-3
409.659576E-3
409.503937E-3
409.272194E-3
409.281349E-3
409.027290E-3
408.829880E-3
408.735466E-3
408.540344E-3
408.584404E-3
408.484268E-3
408.539200E-3
408.446503E-3
408.361244E-3
408.413887E-3
408.279991E-3
408.211327E-3
408.233070E-3
408.087730E-3
408.059120E-3
408.038521E-3
407.909203E-3
407.824516E-3
407.766724E-3
407.892609E-3
407.843971E-3
407.700920E-3
407.608223E-3
407.493210E-3
407.470322E-3
407.231140E-3
407.168198E-3
407.084656E-3
406.914711E-3
406.769943E-3
406.403160E-3
406.280708E-3
406.121063E-3
406.269836E-3
407.458878E-3
409.394646E-3
412.181854E-3
415.563011E-3
419.177055E-3
422.699547E-3
425.545692E-3
427.577591E-3
428.536606E-3
428.431320E-3
427.625656E-3
426.145935E-3
424.634743E-3
423.163605E-3
421.762848E-3
420.744896E-3
419.758987E-3
419.212532E-3
418.954468E-3
418.933868E-3
419.203949E-3
419.524384E-3
419.953537E-3
420.287704E-3
420.490837E-3
420.575523E-3
420.411301E-3
419.944954E-3
419.237709E-3
418.269539E-3
417.455292E-3
416.599846E-3
415.997314E-3
415.648270E-3
415.467453E-3
415.653419E-3
415.772438E-3
416.057396E-3
416.340065E-3
416.476250E-3
416.568375E-3
416.475105E-3
416.227341E-3
415.997314E-3
415.670013E-3
415.456009E-3
415.212250E-3
414.947319E-3
414.642334E-3
414.332771E-3
414.086151E-3
413.619804E-3
413.470459E-3
413.262749E-3
412.944031E-3
412.768936E-3
412.426186E-3
412.351799E-3
412.208176E-3
411.983299E-3
411.761856E-3
411.603355E-3
411.448860E-3
411.458015E-3
411.332703E-3
411.277199E-3
411.135292E-3
411.033440E-3
411.111259E-3
410.917282E-3
410.981941E-3
410.862923E-3
410.827446E-3
410.802841E-3
410.693550E-3
410.712433E-3
410.819435E-3
410.700989E-3
410.574532E-3
410.281563E-3
410.168266E-3
409.883881E-3
409.850693E-3
409.715080E-3
409.485626E-3
409.429550E-3
409.300804E-3
409.079361E-3
408.833313E-3
408.589554E-3
408.824158E-3
409.700775E-3
411.483192E-3
414.122772E-3
417.376328E-3
420.855331E-3
424.117470E-3
426.949310E-3
429.002380E-3
429.951096E-3
430.142784E-3
429.400635E-3
428.189278E-3
426.728439E-3
425.206947E-3
423.898888E-3
422.696686E-3
421.842957E-3
421.464157E-3
421.114540E-3
421.181488E-3
421.271324E-3
421.491623E-3
421.902466E-3
422.146797E-3
422.548485E-3
422.444344E-3
422.205162E-3
421.598053E-3
420.684814E-3
419.705772E-3
418.722153E-3
418.088722E-3
417.649269E-3
417.356300E-3
417.379189E-3
417.482758E-3
417.727661E-3
417.876434E-3
418.011475E-3
418.230629E-3
418.219757E-3
418.123627E-3
417.957687E-3
417.647552E-3
417.475891E-3
417.070198E-3
416.769218E-3
416.444206E-3
416.081429E-3
415.819359E-3
415.528679E-3
415.318108E-3
415.128708E-3
414.805412E-3
414.646912E-3
414.341927E-3
414.026070E-3
413.961983E-3
413.679314E-3
413.717651E-3
413.609505E-3
413.460732E-3
413.406944E-3
413.253593E-3
413.129997E-3
413.041878E-3
413.056183E-3
413.092232E-3
413.091087E-3
413.196373E-3
413.208389E-3
413.150597E-3
413.173485E-3
413.144875E-3
413.032150E-3
412.830734E-3
412.663078E-3
412.518883E-3
412.243652E-3
412.025642E-3
411.776733E-3
411.618805E-3
411.662292E-3
411.613083E-3
411.969566E-3
413.031578E-3
414.900398E-3
417.597771E-3
420.676804E-3
424.213600E-3
427.381325E-3
429.941940E-3
431.778145E-3
432.452774E-3
432.370949E-3
431.492615E-3
430.287552E-3
428.720856E-3
426.912689E-3
425.683594E-3
424.593544E-3
423.910904E-3
423.472595E-3
423.156166E-3
423.104668E-3
423.159027E-3
423.308372E-3
423.525810E-3
423.692894E-3
423.663139E-3
423.448563E-3
422.878075E-3
422.068405E-3
421.047592E-3
420.143509E-3
419.371605E-3
418.968201E-3
418.566513E-3
418.370819E-3
418.561363E-3
418.618584E-3
418.867493E-3
419.004250E-3
419.020271E-3
419.088364E-3
418.922997E-3
418.639183E-3
418.315887E-3
417.879868E-3
417.557144E-3
417.127419E-3
416.663361E-3
416.365814E-3
415.765572E-3
415.509224E-3
415.087509E-3
414.819145E-3
414.610291E-3
414.284134E-3
414.000320E-3
413.583755E-3
413.376617E-3
413.148880E-3
412.883377E-3
412.783813E-3
412.616730E-3
412.469101E-3
412.221909E-3
411.942101E-3
411.790466E-3
411.646271E-3
411.400795E-3
411.404800E-3
411.256599E-3
411.360741E-3
411.269760E-3
411.240005E-3
411.022568E-3
410.884666E-3
410.606575E-3
410.383987E-3
410.155106E-3
409.951973E-3
409.649277E-3
409.498215E-3
409.248734E-3
409.060478E-3
408.905983E-3
408.827591E-3
409.632683E-3
411.271477E-3
413.749123E-3
416.974640E-3
420.298004E-3
423.510361E-3
426.165962E-3
427.952957E-3
429.026985E-3
428.918839E-3
428.170967E-3
426.761627E-3
425.127411E-3
423.497772E-3
421.906471E-3
420.698547E-3
419.882011E-3
419.279480E-3
419.085503E-3
418.976784E-3
419.206810E-3
419.332695E-3
419.627380E-3
419.884872E-3
419.764709E-3
419.510651E-3
418.994522E-3
418.099594E-3
417.356300E-3
416.468239E-3
415.940666E-3
415.650558E-3
415.554428E-3
415.742111E-3
415.853691E-3
416.029930E-3
416.300583E-3
416.494560E-3
416.620445E-3
416.496277E-3
416.263962E-3
415.979576E-3
415.636253E-3
415.516090E-3
415.229416E-3
414.981651E-3
414.671516E-3
414.293861E-3
414.155388E-3
413.727951E-3
413.614082E-3
413.505363E-3
413.185501E-3
412.995529E-3
412.770081E-3
412.716866E-3
412.532616E-3
412.453079E-3
412.369537E-3
412.160110E-3
411.994171E-3
411.892891E-3
411.733246E-3
411.775589E-3
411.716080E-3
411.824799E-3
411.750412E-3
411.704636E-3
411.827087E-3
411.853981E-3
411.769295E-3
411.664009E-3
411.470032E-3
411.554718E-3
411.247444E-3
411.113548E-3
410.766792E-3
410.624886E-3
410.489273E-3
410.286140E-3
410.202599E-3
410.187149E-3
410.579109E-3
411.895752E-3
414.027786E-3
417.098236E-3
420.577812E-3
424.053955E-3
427.243996E-3
429.583740E-3
431.013107E-3
431.545258E-3
431.096649E-3
430.149651E-3
428.632164E-3
427.089500E-3
425.626373E-3
424.294853E-3
423.475456E-3
422.784805E-3
422.546768E-3
422.518158E-3
422.689819E-3
422.900963E-3
423.191643E-3
423.560143E-3
423.744392E-3
423.739815E-3
423.607063E-3
422.888947E-3
421.979713E-3
420.864487E-3
419.746971E-3
419.132423E-3
418.714714E-3
418.522453E-3
418.503571E-3
418.527031E-3
418.760490E-3
419.062614E-3
419.384766E-3
419.599915E-3
419.554138E-3
419.651985E-3
419.356728E-3
419.028854E-3
418.611717E-3
418.208313E-3
417.773438E-3
417.471313E-3
417.217255E-3
416.872215E-3
416.456795E-3
416.277122E-3
416.017914E-3
415.841103E-3
415.657997E-3
415.461731E-3
415.300369E-3
415.043449E-3
414.775658E-3
414.523888E-3
414.310455E-3
414.215469E-3
414.079285E-3
413.951683E-3
413.961983E-3
413.873291E-3
413.802910E-3
413.552284E-3
413.527107E-3
413.476753E-3
413.329697E-3
413.373184E-3
413.265610E-3
413.441277E-3
413.418388E-3
413.291359E-3
413.322258E-3
413.174629E-3
413.075066E-3
412.882805E-3
412.716866E-3
412.611580E-3
412.326050E-3
412.187004E-3
411.997604E-3
411.729813E-3
411.588478E-3
411.364174E-3
411.292076E-3
411.761284E-3
412.840462E-3
414.756775E-3
417.547989E-3
420.990944E-3
424.700546E-3
428.195000E-3
431.152725E-3
433.054733E-3
434.049225E-3
433.768845E-3
432.725143E-3
431.392479E-3
429.691887E-3
428.225327E-3
426.968193E-3
425.912476E-3
425.273895E-3
424.862480E-3
424.749756E-3
424.891090E-3
425.064468E-3
425.426102E-3
425.721359E-3
426.005745E-3
426.166534E-3
426.083565E-3
425.659561E-3
424.760056E-3
423.685455E-3
422.631454E-3
421.593475E-3
420.869064E-3
420.372963E-3
420.174980E-3
420.193291E-3
420.293999E-3
420.602989E-3
420.708847E-3
420.845604E-3
420.975494E-3
420.782089E-3
420.745468E-3
420.406723E-3
420.138931E-3
419.725800E-3
419.431686E-3
419.132423E-3
418.738747E-3
418.445206E-3
418.118477E-3
417.815208E-3
417.399788E-3
417.022705E-3
416.810989E-3
416.624451E-3
416.290283E-3
416.097450E-3
415.761566E-3
415.523529E-3
415.379333E-3
415.273476E-3
415.073204E-3
414.810562E-3
414.601707E-3
414.424324E-3
414.162827E-3
414.094162E-3
413.962555E-3
413.892746E-3
413.850975E-3
413.583755E-3
413.542557E-3
413.259315E-3
413.134003E-3
413.080215E-3
412.904549E-3
412.817001E-3
412.667656E-3
412.598419E-3
412.560081E-3
412.409592E-3
412.292290E-3
412.089729E-3
411.844826E-3
411.613083E-3
411.291504E-3
411.119843E-3
410.807419E-3
410.655785E-3
410.439491E-3
410.107613E-3
409.914780E-3
409.646416E-3
409.541130E-3
409.790611E-3
410.871506E-3
412.887955E-3
415.817070E-3
419.377327E-3
423.048592E-3
426.201439E-3
428.898811E-3
430.438614E-3
431.002235E-3
430.668068E-3
429.339981E-3
427.757835E-3
426.039505E-3
424.400139E-3
423.065758E-3
422.030640E-3
421.446419E-3
421.196365E-3
420.942307E-3
421.026421E-3
421.176910E-3
421.556854E-3
421.808624E-3
422.126198E-3
422.319603E-3
421.950531E-3
421.375465E-3
420.513153E-3
419.330978E-3
418.371964E-3
417.471313E-3
416.921425E-3
416.659927E-3
416.590118E-3
416.782951E-3
416.699409E-3
416.965485E-3
417.063332E-3
417.240143E-3
417.343712E-3
417.109108E-3
417.058754E-3
416.599846E-3
416.258240E-3
415.908051E-3
415.450859E-3
415.112114E-3
414.783669E-3
414.492416E-3
414.192581E-3
413.751411E-3
413.539696E-3
413.119698E-3
412.771797E-3
412.673950E-3
412.449074E-3
412.336922E-3
412.138939E-3
412.026787E-3
411.844826E-3
411.551857E-3
411.509514E-3
411.393356E-3
411.288071E-3
411.185646E-3
410.999107E-3
411.011124E-3
410.976791E-3
410.917282E-3
410.855484E-3
410.847473E-3
410.812569E-3
410.700417E-3
410.639191E-3
410.653496E-3
410.476112E-3
410.590553E-3
410.581970E-3
410.500717E-3
410.458946E-3
410.185432E-3
410.133934E-3
409.906197E-3
409.828949E-3
409.737968E-3
409.483337E-3
409.317398E-3
409.076500E-3
408.817291E-3
408.638763E-3
408.408737E-3
408.430481E-3
408.859062E-3
410.220909E-3
412.617302E-3
415.615082E-3
419.198227E-3
422.631454E-3
425.476456E-3
427.860832E-3
429.301643E-3
429.915047E-3
429.631805E-3
428.435326E-3
427.055740E-3
425.398636E-3
424.011040E-3
422.824860E-3
421.915627E-3
421.508789E-3
421.199799E-3
421.218681E-3
421.414948E-3
421.508217E-3
421.840096E-3
422.121620E-3
422.463226E-3
422.517586E-3
422.363091E-3
421.916199E-3
421.057892E-3
420.075417E-3
419.106674E-3
418.250084E-3
417.634392E-3
417.183495E-3
417.157173E-3
417.196655E-3
417.411232E-3
417.718506E-3
417.975426E-3
418.282700E-3
418.264389E-3
418.148232E-3
418.017197E-3
417.683601E-3
417.421532E-3
417.074203E-3
416.738319E-3
416.524315E-3
415.955544E-3
415.675163E-3
415.378761E-3
414.990807E-3
414.846611E-3
414.550209E-3
414.354515E-3
414.154243E-3
413.925934E-3
413.792038E-3
413.503075E-3
413.468742E-3
413.334274E-3
413.041306E-3
413.019562E-3
412.785530E-3
412.732315E-3
412.616730E-3
412.526321E-3
412.582970E-3
412.403870E-3
412.363243E-3
412.302017E-3
412.236214E-3
412.138367E-3
411.911201E-3
411.820793E-3
411.792755E-3
411.678886E-3
411.622810E-3
411.429977E-3
411.414528E-3
411.459732E-3
411.484337E-3
411.477470E-3
411.298943E-3
411.250305E-3
411.079216E-3
410.920143E-3
410.916138E-3
410.622025E-3
410.497284E-3
410.190582E-3
410.049820E-3
410.050964E-3
409.830093E-3
409.676170E-3
409.463310E-3
409.411240E-3
409.937668E-3
411.100960E-3
413.333130E-3
416.328621E-3
419.650841E-3
423.431969E-3
426.562500E-3
429.131699E-3
430.702400E-3
431.211662E-3
430.984497E-3
429.999733E-3
428.604698E-3
426.959038E-3
425.442696E-3
424.127769E-3
423.047447E-3
422.442627E-3
422.184563E-3
422.119904E-3
422.258949E-3
422.584534E-3
422.934723E-3
423.217964E-3
423.369026E-3
423.534966E-3
423.434830E-3
423.114967E-3
422.409439E-3
421.426392E-3
420.475960E-3
419.364166E-3
418.596840E-3
418.078423E-3
417.887878E-3
417.976570E-3
418.160820E-3
418.332481E-3
418.476105E-3
418.610573E-3
418.730164E-3
418.544197E-3
418.445778E-3
418.228912E-3
417.791176E-3
417.717934E-3
417.189789E-3
416.736603E-3
416.437340E-3
415.956688E-3
415.651703E-3
415.339279E-3
415.022278E-3
414.660072E-3
414.386559E-3
414.140511E-3
413.753700E-3
413.537979E-3
413.319969E-3
413.094521E-3
412.869644E-3
412.613869E-3
412.449074E-3
412.084007E-3
411.942673E-3
412.004471E-3
411.778450E-3
411.729813E-3
411.594200E-3
411.332703E-3
411.315536E-3
411.003685E-3
410.832596E-3
410.783958E-3
410.695839E-3
410.658073E-3
410.437202E-3
410.208893E-3
410.012627E-3
409.771156E-3
409.775734E-3
409.760857E-3
409.497643E-3
409.272766E-3
409.149742E-3
409.060478E-3
408.872223E-3
408.750916E-3
408.756065E-3
408.508873E-3
408.348656E-3
408.119202E-3
407.999611E-3
407.807922E-3
407.580185E-3
407.355881E-3
407.085800E-3
406.694412E-3
406.506729E-3
406.223488E-3
406.184578E-3
406.560516E-3
407.804489E-3
409.915924E-3
412.558365E-3
415.886879E-3
418.977928E-3
422.186852E-3
424.593544E-3
426.095009E-3
426.626015E-3
426.080704E-3
424.867058E-3
423.288345E-3
421.499634E-3
419.892311E-3
418.725586E-3
417.873001E-3
417.262459E-3
416.845322E-3
416.610718E-3
416.500854E-3
416.763496E-3
417.022133E-3
417.458725E-3
417.762566E-3
417.864418E-3
417.668724E-3
417.226410E-3
416.384697E-3
415.495491E-3
414.610863E-3
413.945961E-3
413.711357E-3
413.309669E-3
413.235855E-3
413.220978E-3
413.359451E-3
413.690758E-3
413.799477E-3
414.112473E-3
413.935089E-3
413.776588E-3
413.570595E-3
413.232994E-3
413.000679E-3
412.616158E-3
412.187004E-3
411.953545E-3
411.343002E-3
411.274338E-3
410.910416E-3
410.642624E-3
410.445213E-3
410.124779E-3
409.894180E-3
409.738541E-3
409.573174E-3
409.220695E-3
408.987808E-3
408.852196E-3
408.744621E-3
408.694839E-3
408.591270E-3
408.448219E-3
408.331490E-3
408.191872E-3
408.047104E-3
408.000755E-3
407.941246E-3
408.016777E-3
407.926369E-3
407.866287E-3
407.760429E-3
407.569313E-3
407.483482E-3
407.513237E-3
407.425690E-3
407.411385E-3
407.212257E-3
407.242584E-3
407.065201E-3
407.020569E-3
406.937599E-3
406.747627E-3
406.957626E-3
406.705284E-3
406.601143E-3
406.523323E-3
406.285286E-3
406.146240E-3
406.004906E-3
405.995750E-3
405.776024E-3
405.522537E-3
405.429268E-3
405.128288E-3
404.865074E-3
404.885101E-3
405.464172E-3
406.987953E-3
409.122849E-3
412.145805E-3
415.559578E-3
418.678093E-3
421.711922E-3
423.955536E-3
425.356293E-3
425.830650E-3
425.370598E-3
424.261093E-3
422.862053E-3
421.325684E-3
419.985580E-3
418.645477E-3
417.850113E-3
417.301941E-3
417.068481E-3
417.102242E-3
417.146301E-3
417.402649E-3
417.597198E-3
417.824936E-3
418.191719E-3
418.398857E-3
418.498993E-3
418.291283E-3
417.707634E-3
416.864204E-3
415.821075E-3
415.007401E-3
414.324188E-3
