Notes :


2023-11-10 ¿ÀÈÄ 10:13:38
Volts
Ch : LED 2,
332.328415E-3
332.435989E-3
332.360458E-3
332.237434E-3
332.446289E-3
332.315826E-3
332.279205E-3
332.435989E-3
332.371902E-3
332.406235E-3
332.379341E-3
332.307816E-3
332.260895E-3
332.137871E-3
332.113838E-3
332.033730E-3
332.035446E-3
331.981659E-3
331.931305E-3
331.915855E-3
331.752205E-3
331.715584E-3
331.914139E-3
331.838036E-3
331.808281E-3
331.640625E-3
331.533051E-3
331.475830E-3
331.348228E-3
331.297302E-3
331.170273E-3
331.086731E-3
330.960274E-3
330.849266E-3
330.788040E-3
330.667305E-3
330.665016E-3
330.804634E-3
330.877876E-3
331.434059E-3
332.456589E-3
333.967209E-3
335.861778E-3
337.788963E-3
339.924431E-3
341.688538E-3
343.080711E-3
344.018555E-3
344.182205E-3
343.996811E-3
343.200302E-3
342.060471E-3
340.954971E-3
339.822006E-3
339.033508E-3
338.366318E-3
337.966347E-3
337.832451E-3
337.712860E-3
337.795258E-3
337.951469E-3
338.113976E-3
338.326263E-3
338.426399E-3
338.494492E-3
338.132858E-3
337.795258E-3
337.312317E-3
336.898041E-3
336.623383E-3
336.342430E-3
336.396790E-3
336.447144E-3
336.503220E-3
336.608505E-3
336.825943E-3
336.914062E-3
336.875725E-3
336.822510E-3
336.692047E-3
336.631393E-3
336.341858E-3
336.199951E-3
335.974503E-3
335.749626E-3
335.418320E-3
335.140228E-3
334.965134E-3
334.633827E-3
334.435844E-3
334.205246E-3
334.055328E-3
334.102821E-3
333.984375E-3
333.970642E-3
333.987236E-3
333.972931E-3
333.901405E-3
333.847046E-3
333.907700E-3
333.785248E-3
333.642769E-3
333.739471E-3
333.687973E-3
333.698273E-3
333.709145E-3
333.630180E-3
333.595848E-3
333.492851E-3
333.381271E-3
333.246231E-3
333.263969E-3
333.230782E-3
333.028793E-3
332.902908E-3
332.846260E-3
332.675171E-3
332.775307E-3
332.605934E-3
332.594490E-3
332.455444E-3
332.370186E-3
332.390213E-3
332.187653E-3
332.097244E-3
332.080078E-3
332.086945E-3
332.078934E-3
331.885529E-3
331.933594E-3
331.729317E-3
331.661224E-3
331.448936E-3
331.389999E-3
331.388855E-3
331.381416E-3
331.411743E-3
331.537056E-3
331.757927E-3
332.661438E-3
333.930016E-3
335.391426E-3
337.530327E-3
339.607430E-3
341.716576E-3
343.485832E-3
344.740677E-3
345.425606E-3
345.384979E-3
344.820786E-3
343.838882E-3
342.637825E-3
341.435623E-3
340.333557E-3
339.665222E-3
338.996315E-3
338.555717E-3
338.505936E-3
338.428688E-3
338.560295E-3
338.733101E-3
338.896179E-3
339.168549E-3
339.253807E-3
339.196014E-3
338.703918E-3
338.128281E-3
337.782097E-3
337.277412E-3
337.030792E-3
336.907196E-3
336.822510E-3
336.932945E-3
336.971855E-3
337.097168E-3
337.075424E-3
337.375259E-3
337.443352E-3
337.223053E-3
337.049675E-3
336.796188E-3
336.544418E-3
336.322403E-3
336.054611E-3
335.914993E-3
335.516739E-3
335.193443E-3
334.961128E-3
334.630966E-3
334.431839E-3
334.128571E-3
333.982086E-3
333.994102E-3
333.785248E-3
333.759499E-3
333.669090E-3
333.655357E-3
333.596992E-3
333.388710E-3
333.231354E-3
333.150673E-3
333.090019E-3
333.152962E-3
333.033943E-3
333.104324E-3
333.020782E-3
332.956696E-3
332.944679E-3
332.726669E-3
332.651138E-3
332.576180E-3
332.394218E-3
332.399368E-3
332.279778E-3
332.213974E-3
332.058334E-3
331.982231E-3
332.014847E-3
331.882095E-3
331.759644E-3
331.646347E-3
331.479836E-3
331.435204E-3
331.257248E-3
331.300735E-3
331.254959E-3
331.193733E-3
331.202888E-3
330.968857E-3
330.976868E-3
330.955124E-3
330.867577E-3
330.792046E-3
330.603790E-3
330.629539E-3
330.447006E-3
330.286789E-3
330.194092E-3
330.054474E-3
330.095673E-3
330.069923E-3
330.295944E-3
330.889320E-3
331.809998E-3
333.338928E-3
335.224915E-3
337.197876E-3
339.133644E-3
340.731812E-3
342.098808E-3
342.717361E-3
342.715073E-3
342.047310E-3
340.979004E-3
339.880943E-3
338.583755E-3
337.645340E-3
336.877441E-3
336.161041E-3
335.810280E-3
335.749054E-3
335.664940E-3
335.705566E-3
335.789108E-3
336.018562E-3
336.190224E-3
336.230278E-3
336.185074E-3
335.777664E-3
335.574532E-3
335.394287E-3
335.035515E-3
334.949112E-3
334.870720E-3
335.005760E-3
335.186577E-3
335.492134E-3
335.614586E-3
335.657501E-3
335.683250E-3
335.556793E-3
335.436058E-3
335.198593E-3
334.886742E-3
334.610939E-3
334.244156E-3
334.004974E-3
333.677101E-3
333.414459E-3
333.223343E-3
332.970428E-3
332.683182E-3
332.473183E-3
332.236862E-3
332.235146E-3
332.057762E-3
332.001686E-3
332.097816E-3
332.018852E-3
332.007408E-3
331.884956E-3
331.824303E-3
331.899834E-3
331.801987E-3
331.788254E-3
331.787682E-3
331.586838E-3
331.605148E-3
331.584549E-3
331.720161E-3
331.712151E-3
331.661224E-3
331.612587E-3
331.546211E-3
331.502151E-3
331.361961E-3
331.387138E-3
331.363106E-3
331.193161E-3
331.145668E-3
331.090736E-3
331.089020E-3
331.052399E-3
330.987740E-3
331.004333E-3
330.921936E-3
330.832100E-3
330.776024E-3
330.679321E-3
330.590630E-3
330.426979E-3
330.230141E-3
330.239296E-3
330.002975E-3
330.117989E-3
330.050468E-3
329.964638E-3
330.048752E-3
330.179787E-3
330.706215E-3
331.777954E-3
333.061409E-3
334.816360E-3
336.599922E-3
338.689613E-3
340.489769E-3
341.911697E-3
342.758560E-3
342.891312E-3
342.557716E-3
341.562080E-3
340.462303E-3
339.426041E-3
338.407516E-3
337.550926E-3
336.878014E-3
336.317253E-3
336.088371E-3
336.076355E-3
336.158752E-3
336.301804E-3
336.407661E-3
336.698914E-3
336.757851E-3
336.833954E-3
336.572456E-3
336.207390E-3
335.634041E-3
335.318184E-3
335.076141E-3
335.038376E-3
335.029221E-3
335.203743E-3
335.267258E-3
335.525322E-3
335.635757E-3
335.637474E-3
335.747910E-3
335.481262E-3
335.457802E-3
335.179138E-3
334.821510E-3
334.722519E-3
334.612656E-3
334.360313E-3
334.073067E-3
333.700562E-3
333.340645E-3
332.983017E-3
332.786751E-3
332.520103E-3
332.351875E-3
332.204819E-3
332.174492E-3
332.231140E-3
332.220268E-3
332.169914E-3
332.098961E-3
331.927299E-3
331.891823E-3
331.862068E-3
331.761932E-3
331.769943E-3
331.712723E-3
331.715584E-3
331.679535E-3
331.678963E-3
331.780815E-3
331.664658E-3
331.716728E-3
331.534195E-3
331.399155E-3
331.494141E-3
331.286430E-3
331.301880E-3
331.284714E-3
331.094170E-3
331.071281E-3
331.023216E-3
331.028938E-3
330.930519E-3
330.936813E-3
330.848122E-3
330.723381E-3
330.653000E-3
330.586624E-3
330.469322E-3
330.515671E-3
330.388641E-3
330.342293E-3
330.333138E-3
330.265617E-3
330.200958E-3
330.065346E-3
330.014420E-3
329.953194E-3
329.729462E-3
329.703140E-3
329.607010E-3
329.727745E-3
330.072784E-3
330.800056E-3
332.080650E-3
333.698845E-3
335.818863E-3
337.970924E-3
339.951324E-3
341.431618E-3
342.268181E-3
342.683029E-3
342.479324E-3
341.746330E-3
340.833092E-3
339.697266E-3
338.694191E-3
337.650490E-3
336.876297E-3
336.356163E-3
336.032867E-3
335.877228E-3
335.921860E-3
335.940170E-3
336.134148E-3
336.383057E-3
336.634827E-3
336.887741E-3
336.767578E-3
336.613083E-3
336.099815E-3
335.644913E-3
335.203171E-3
335.016632E-3
334.753418E-3
334.539986E-3
334.517670E-3
334.712791E-3
334.834099E-3
335.065842E-3
335.052681E-3
335.155106E-3
334.931374E-3
334.694481E-3
334.537125E-3
334.164619E-3
333.940315E-3
333.725739E-3
333.453941E-3
333.115768E-3
332.902908E-3
332.809639E-3
332.558441E-3
332.331848E-3
332.133865E-3
331.921005E-3
331.746483E-3
331.603432E-3
331.551933E-3
331.464386E-3
331.265259E-3
331.246948E-3
331.183434E-3
331.131935E-3
331.240654E-3
331.083870E-3
331.157112E-3
331.090736E-3
330.952263E-3
330.918503E-3
330.726242E-3
330.761719E-3
330.774307E-3
330.717087E-3
330.810356E-3
330.733109E-3
330.665016E-3
330.600929E-3
330.539703E-3
330.468750E-3
330.400085E-3
330.295944E-3
330.174637E-3
330.059624E-3
329.987526E-3
329.878807E-3
330.027580E-3
329.988670E-3
329.868507E-3
329.783821E-3
329.659653E-3
329.597282E-3
329.467964E-3
329.331779E-3
329.306602E-3
329.115486E-3
329.106903E-3
329.038811E-3
329.019928E-3
328.967285E-3
328.813934E-3
328.753853E-3
328.609657E-3
328.544998E-3
328.555298E-3
328.744698E-3
329.437637E-3
330.535698E-3
332.015991E-3
333.962059E-3
336.019135E-3
337.750053E-3
339.342499E-3
340.271187E-3
340.723228E-3
340.438843E-3
339.834595E-3
338.836670E-3
337.665939E-3
336.676025E-3
335.631180E-3
334.814072E-3
334.303665E-3
334.005547E-3
333.827019E-3
333.637619E-3
333.745193E-3
333.893394E-3
334.145737E-3
334.350014E-3
334.322548E-3
334.232712E-3
333.941460E-3
333.581543E-3
333.342361E-3
333.125496E-3
333.015060E-3
333.044243E-3
333.117485E-3
333.235359E-3
333.390999E-3
333.578682E-3
333.888817E-3
333.940315E-3
333.919144E-3
333.649063E-3
333.429337E-3
333.207893E-3
332.946396E-3
332.780457E-3
332.473755E-3
332.174492E-3
331.974220E-3
331.689835E-3
331.475258E-3
331.258392E-3
331.157684E-3
331.057549E-3
330.859566E-3
330.793190E-3
330.658150E-3
330.540848E-3
330.604935E-3
330.401802E-3
330.414963E-3
330.194092E-3
330.130005E-3
330.178070E-3
330.200958E-3
330.283356E-3
330.203819E-3
330.234718E-3
330.118561E-3
329.920006E-3
329.980659E-3
329.899979E-3
329.871368E-3
329.865074E-3
329.810715E-3
329.775810E-3
329.847908E-3
329.750633E-3
329.720879E-3
329.730034E-3
329.699707E-3
329.578972E-3
329.549789E-3
329.559517E-3
329.374123E-3
329.382133E-3
329.306602E-3
329.223061E-3
329.162979E-3
329.121780E-3
329.156113E-3
329.065704E-3
328.916359E-3
328.811646E-3
328.661156E-3
328.594780E-3
328.522110E-3
328.505516E-3
328.526115E-3
328.735542E-3
329.512596E-3
330.401802E-3
331.971359E-3
333.810997E-3
335.749626E-3
337.441063E-3
338.891602E-3
339.918137E-3
340.413094E-3
340.255165E-3
339.823151E-3
338.815498E-3
337.788963E-3
336.805344E-3
335.931587E-3
335.131073E-3
334.510803E-3
334.150887E-3
333.981514E-3
333.917427E-3
333.943176E-3
334.003258E-3
334.259605E-3
334.459877E-3
334.553719E-3
334.519958E-3
334.268188E-3
333.923149E-3
333.406448E-3
333.193588E-3
333.078003E-3
333.021927E-3
333.065987E-3
333.256531E-3
333.344078E-3
333.564949E-3
333.709717E-3
333.904266E-3
333.915710E-3
333.670235E-3
333.623886E-3
333.237076E-3
333.061981E-3
332.884598E-3
332.510948E-3
332.358170E-3
332.002831E-3
331.729889E-3
331.514168E-3
331.276703E-3
331.212616E-3
330.982018E-3
330.861855E-3
330.821800E-3
330.509949E-3
330.529976E-3
330.633545E-3
330.527687E-3
330.445290E-3
330.443573E-3
330.513382E-3
330.469894E-3
330.346870E-3
330.350304E-3
330.249596E-3
330.276489E-3
330.226135E-3
330.195236E-3
330.273628E-3
330.108261E-3
330.174065E-3
329.953766E-3
330.050468E-3
330.022430E-3
329.895401E-3
329.919434E-3
329.870224E-3
329.689980E-3
329.735184E-3
329.540634E-3
329.331207E-3
329.363251E-3
329.300308E-3
329.306030E-3
329.260254E-3
329.287148E-3
329.183578E-3
329.083443E-3
329.022217E-3
328.826523E-3
328.989601E-3
328.913498E-3
328.795052E-3
328.730392E-3
328.549576E-3
328.506660E-3
328.375053E-3
328.273201E-3
328.467751E-3
328.607368E-3
329.062271E-3
330.024147E-3
331.260109E-3
332.907486E-3
334.765434E-3
336.732674E-3
338.493347E-3
339.715576E-3
340.730667E-3
340.950394E-3
340.564156E-3
339.870071E-3
338.818932E-3
337.789536E-3
336.698341E-3
335.953903E-3
335.223198E-3
334.788322E-3
334.601784E-3
334.311676E-3
334.436989E-3
334.634972E-3
334.822655E-3
335.086441E-3
335.215759E-3
335.261536E-3
335.137939E-3
334.843826E-3
334.490776E-3
334.012413E-3
333.845901E-3
333.553505E-3
333.366394E-3
333.412743E-3
333.413315E-3
333.554077E-3
333.746910E-3
333.820724E-3
333.947182E-3
333.821869E-3
333.716011E-3
333.380699E-3
333.251953E-3
333.107758E-3
332.783890E-3
332.501793E-3
332.231712E-3
331.982231E-3
331.771088E-3
331.440353E-3
331.302452E-3
331.115341E-3
330.902481E-3
330.836678E-3
330.681038E-3
330.647850E-3
330.505371E-3
330.390930E-3
330.407524E-3
330.343437E-3
330.273056E-3
330.195808E-3
330.171204E-3
330.212975E-3
330.036736E-3
330.063057E-3
329.949188E-3
329.882240E-3
329.909706E-3
329.744339E-3
329.805565E-3
329.744339E-3
329.731750E-3
329.766083E-3
329.632759E-3
329.599571E-3
329.530334E-3
329.418182E-3
329.375267E-3
329.242516E-3
329.140663E-3
329.019928E-3
328.997612E-3
328.967857E-3
328.959274E-3
328.990746E-3
328.898621E-3
328.842545E-3
328.831100E-3
328.736687E-3
328.752136E-3
328.582191E-3
328.584480E-3
328.508949E-3
328.406525E-3
328.237152E-3
328.137589E-3
328.007126E-3
327.955627E-3
327.846909E-3
327.925301E-3
328.005409E-3
328.222847E-3
328.986168E-3
330.024147E-3
331.642342E-3
333.414459E-3
335.228920E-3
336.951256E-3
338.120270E-3
338.960838E-3
339.106750E-3
338.726807E-3
338.047028E-3
337.054253E-3
335.979652E-3
335.050964E-3
334.110260E-3
333.463669E-3
333.024788E-3
332.591629E-3
332.475471E-3
332.285500E-3
332.454300E-3
332.588196E-3
332.949257E-3
333.146667E-3
333.178139E-3
333.005333E-3
332.625961E-3
332.295799E-3
332.010841E-3
331.836319E-3
331.849480E-3
331.848907E-3
332.131577E-3
332.219696E-3
332.446289E-3
332.835960E-3
332.910347E-3
332.853699E-3
332.756996E-3
332.451439E-3
332.189369E-3
331.888962E-3
331.421471E-3
331.369400E-3
331.004333E-3
330.902481E-3
330.614090E-3
330.400658E-3
330.190659E-3
330.005836E-3
329.912567E-3
329.706001E-3
329.729462E-3
329.621887E-3
329.458809E-3
329.463387E-3
329.337502E-3
329.398155E-3
329.367256E-3
329.370117E-3
329.459381E-3
329.311752E-3
329.253960E-3
329.237366E-3
329.149818E-3
329.227638E-3
329.112625E-3
328.990746E-3
329.013634E-3
329.033089E-3
329.110336E-3
329.006195E-3
329.039383E-3
329.073143E-3
328.987312E-3
329.002762E-3
328.987885E-3
328.888321E-3
328.743553E-3
328.733826E-3
328.645134E-3
328.586769E-3
328.663445E-3
328.671455E-3
328.475761E-3
328.416824E-3
328.332710E-3
328.205681E-3
328.076363E-3
327.943611E-3
327.875519E-3
327.801704E-3
327.738190E-3
327.767372E-3
327.568817E-3
327.856636E-3
328.110123E-3
328.943253E-3
330.198669E-3
331.677818E-3
333.489418E-3
335.258675E-3
336.939240E-3
338.094521E-3
338.983154E-3
339.436340E-3
339.145660E-3
338.538551E-3
337.650490E-3
336.525536E-3
335.630608E-3
334.820938E-3
334.178925E-3
333.836174E-3
333.493423E-3
333.441353E-3
333.291435E-3
333.381844E-3
333.622742E-3
333.742905E-3
334.031296E-3
334.071922E-3
334.013557E-3
333.658791E-3
333.322906E-3
333.038521E-3
332.615662E-3
332.509232E-3
332.344437E-3
332.450294E-3
332.660866E-3
332.762146E-3
332.882309E-3
333.024216E-3
333.113480E-3
333.176422E-3
333.047104E-3
332.823944E-3
332.588196E-3
332.296371E-3
332.190514E-3
331.875801E-3
331.732178E-3
331.426620E-3
331.127357E-3
330.899048E-3
330.766296E-3
330.560303E-3
330.349731E-3
330.187798E-3
330.142021E-3
330.046463E-3
330.031586E-3
330.037308E-3
329.883385E-3
330.049896E-3
329.907417E-3
329.867363E-3
329.883957E-3
329.771233E-3
329.814720E-3
329.770660E-3
329.711723E-3
329.770088E-3
329.505730E-3
329.647064E-3
329.532051E-3
329.559517E-3
329.517174E-3
329.423904E-3
329.454231E-3
329.386711E-3
329.337502E-3
329.371262E-3
329.185867E-3
329.136658E-3
329.062271E-3
329.112053E-3
329.096031E-3
