Notes :


2023-11-10 ¿ÀÈÄ 10:19:21
Volts
Ch : LED 2,
230.101776E-3
229.595375E-3
229.166222E-3
228.852081E-3
228.533363E-3
228.285599E-3
227.801514E-3
227.540588E-3
227.371216E-3
227.103996E-3
227.095985E-3
226.985550E-3
227.044487E-3
227.049065E-3
226.902008E-3
227.011871E-3
226.885414E-3
226.824760E-3
226.972389E-3
226.936340E-3
227.085686E-3
227.031898E-3
227.177811E-3
227.258492E-3
227.484512E-3
227.774620E-3
227.846718E-3
227.927971E-3
228.044701E-3
227.944565E-3
228.137398E-3
228.060722E-3
228.100204E-3
228.131676E-3
228.211784E-3
228.291893E-3
228.183746E-3
228.061295E-3
227.935982E-3
227.740860E-3
227.770615E-3
227.597809E-3
227.674484E-3
227.959442E-3
228.544807E-3
229.606819E-3
230.936050E-3
232.736778E-3
234.767532E-3
236.750221E-3
238.603592E-3
239.924812E-3
240.889549E-3
241.386223E-3
241.076660E-3
240.593719E-3
239.776039E-3
239.077377E-3
238.381577E-3
237.486649E-3
236.971664E-3
236.387444E-3
236.100197E-3
235.861588E-3
235.806656E-3
235.808945E-3
235.744286E-3
235.836411E-3
235.804939E-3
235.563469E-3
235.393524E-3
234.729767E-3
234.230232E-3
233.752441E-3
233.409691E-3
233.277512E-3
233.131599E-3
233.230591E-3
233.501816E-3
233.796501E-3
234.089470E-3
234.249115E-3
234.279442E-3
234.361839E-3
234.011650E-3
233.883476E-3
233.532715E-3
233.299828E-3
233.074379E-3
232.691002E-3
232.347679E-3
232.055283E-3
231.698227E-3
231.578064E-3
231.281662E-3
231.242180E-3
231.013870E-3
231.059074E-3
231.022453E-3
231.000137E-3
231.055641E-3
231.003571E-3
231.352043E-3
231.509399E-3
231.539154E-3
231.851578E-3
231.889343E-3
232.079315E-3
232.226372E-3
232.209206E-3
232.315063E-3
232.225800E-3
232.214928E-3
232.240105E-3
232.094193E-3
232.094193E-3
232.075310E-3
232.037544E-3
232.021523E-3
231.710815E-3
231.732559E-3
231.510544E-3
231.448746E-3
231.312561E-3
231.106567E-3
230.970955E-3
230.691719E-3
230.532074E-3
230.462265E-3
230.264282E-3
230.137253E-3
229.795647E-3
229.596519E-3
229.473495E-3
229.190254E-3
229.213142E-3
228.853798E-3
228.772545E-3
229.232025E-3
229.850006E-3
231.363487E-3
233.097839E-3
234.993553E-3
237.120438E-3
238.887405E-3
240.752792E-3
241.540718E-3
241.021729E-3
239.334869E-3
237.910652E-3
236.935616E-3
235.795784E-3
234.591866E-3
233.499527E-3
232.657814E-3
232.419777E-3
232.142258E-3
232.219505E-3
232.668686E-3
232.871246E-3
233.390808E-3
233.816528E-3
234.181595E-3
234.360695E-3
234.193039E-3
234.158134E-3
233.840561E-3
233.552170E-3
233.413696E-3
233.165359E-3
233.270645E-3
233.415985E-3
233.627701E-3
234.011650E-3
234.250259E-3
234.567261E-3
234.754372E-3
234.828186E-3
234.856796E-3
234.751511E-3
234.693146E-3
234.510040E-3
234.191895E-3
234.031677E-3
233.565903E-3
233.449745E-3
233.094406E-3
232.758522E-3
232.653236E-3
232.200050E-3
232.055283E-3
231.854439E-3
231.558609E-3
231.519699E-3
231.297112E-3
231.296539E-3
231.142044E-3
230.969810E-3
230.881119E-3
230.592155E-3
230.583572E-3
230.451393E-3
230.395317E-3
230.341530E-3
230.222511E-3
230.424500E-3
230.354691E-3
230.200195E-3
230.233955E-3
230.090904E-3
230.285454E-3
230.192184E-3
229.950142E-3
230.078888E-3
229.985619E-3
230.129814E-3
230.164146E-3
230.013657E-3
230.106354E-3
229.935265E-3
230.120087E-3
230.003929E-3
229.963303E-3
230.011940E-3
229.817963E-3
229.902077E-3
229.749870E-3
229.579353E-3
229.469490E-3
229.314995E-3
229.144478E-3
228.944778E-3
228.802872E-3
228.802299E-3
228.747940E-3
229.272079E-3
230.156136E-3
231.393814E-3
233.186531E-3
235.077095E-3
237.376785E-3
239.677620E-3
241.592789E-3
243.257904E-3
244.224930E-3
244.641495E-3
244.519043E-3
243.838692E-3
242.983246E-3
241.938400E-3
241.097832E-3
240.144539E-3
239.361763E-3
239.019585E-3
238.545227E-3
238.354683E-3
238.278008E-3
238.155556E-3
238.326645E-3
238.138390E-3
238.257980E-3
238.086891E-3
237.637138E-3
237.400818E-3
236.694145E-3
236.160851E-3
235.588646E-3
235.213280E-3
235.104561E-3
234.938049E-3
234.908295E-3
235.007286E-3
235.112572E-3
235.336876E-3
235.348320E-3
235.460472E-3
235.384941E-3
235.295677E-3
235.249901E-3
234.992409E-3
234.762383E-3
234.495163E-3
234.178734E-3
233.837700E-3
233.459473E-3
233.347321E-3
233.074951E-3
232.921600E-3
232.749939E-3
232.455254E-3
232.466125E-3
232.274437E-3
231.860733E-3
231.759453E-3
231.489372E-3
231.362915E-3
231.187820E-3
230.968666E-3
230.924034E-3
230.669403E-3
230.750656E-3
230.685997E-3
230.509758E-3
230.525780E-3
230.356979E-3
230.276299E-3
230.129242E-3
230.141258E-3
230.192184E-3
229.987335E-3
230.137253E-3
230.102921E-3
229.931831E-3
230.026817E-3
229.966736E-3
230.054855E-3
229.979324E-3
229.895210E-3
229.875755E-3
229.859161E-3
229.950714E-3
229.966164E-3
229.763603E-3
229.802513E-3
229.655457E-3
229.610252E-3
229.627419E-3
229.476357E-3
229.530144E-3
229.327583E-3
229.107285E-3
229.037476E-3
228.672981E-3
228.617477E-3
228.521919E-3
228.650665E-3
228.864098E-3
229.417992E-3
230.653954E-3
232.244110E-3
234.249115E-3
236.479568E-3
238.556099E-3
240.673256E-3
242.249680E-3
243.334579E-3
243.980598E-3
243.794632E-3
243.403244E-3
242.622185E-3
241.837120E-3
240.852928E-3
240.055847E-3
239.367485E-3
238.593864E-3
238.149261E-3
237.820816E-3
237.463188E-3
237.446594E-3
237.344170E-3
237.374496E-3
237.423706E-3
237.203979E-3
237.020874E-3
236.555672E-3
236.000061E-3
235.396957E-3
234.759521E-3
234.482574E-3
234.235382E-3
234.183311E-3
234.322929E-3
234.454536E-3
234.635353E-3
234.730911E-3
234.950638E-3
234.898567E-3
234.914017E-3
234.823608E-3
234.472275E-3
234.389877E-3
234.205055E-3
233.934975E-3
233.755302E-3
233.559036E-3
233.377647E-3
233.258629E-3
232.952499E-3
232.828331E-3
232.529068E-3
232.455254E-3
232.274437E-3
232.026100E-3
232.076454E-3
231.854439E-3
231.907082E-3
231.649017E-3
231.437302E-3
231.416130E-3
231.128311E-3
231.084824E-3
231.093407E-3
230.867386E-3
230.896568E-3
230.771828E-3
230.710030E-3
230.583572E-3
230.410194E-3
230.424500E-3
230.274582E-3
230.200768E-3
230.117798E-3
229.915810E-3
229.923820E-3
229.813957E-3
229.694939E-3
229.670334E-3
229.534149E-3
229.607391E-3
229.466629E-3
229.478073E-3
229.460335E-3
229.257202E-3
229.333878E-3
229.186249E-3
229.250336E-3
229.059792E-3
228.828049E-3
228.845215E-3
228.598022E-3
228.531075E-3
228.483582E-3
228.408623E-3
228.531075E-3
228.513336E-3
228.794861E-3
229.402542E-3
230.508614E-3
232.028961E-3
233.710670E-3
235.819817E-3
237.792206E-3
239.592934E-3
241.127586E-3
241.977310E-3
242.362976E-3
242.158127E-3
241.454887E-3
240.663528E-3
239.596939E-3
238.675690E-3
237.807083E-3
236.846924E-3
236.418343E-3
235.818100E-3
235.471916E-3
235.313988E-3
235.079384E-3
235.141754E-3
234.886551E-3
234.814453E-3
234.548378E-3
233.948135E-3
233.580780E-3
232.965660E-3
232.617760E-3
232.446098E-3
232.183456E-3
232.410049E-3
232.388878E-3
232.521629E-3
232.775688E-3
233.049774E-3
233.232880E-3
233.297539E-3
233.306122E-3
233.333015E-3
233.029747E-3
232.976532E-3
232.735634E-3
232.451248E-3
232.311058E-3
231.968307E-3
231.690216E-3
231.429291E-3
231.119728E-3
230.996704E-3
230.657959E-3
230.558395E-3
230.264854E-3
230.179596E-3
230.052567E-3
229.919815E-3
229.839706E-3
229.670334E-3
229.585648E-3
229.464912E-3
229.234886E-3
229.285240E-3
229.010010E-3
229.011726E-3
228.933334E-3
228.782845E-3
228.792572E-3
228.521919E-3
228.529358E-3
228.541374E-3
228.379440E-3
228.438950E-3
228.259277E-3
228.155708E-3
228.211784E-3
228.050995E-3
228.176308E-3
228.030968E-3
227.972603E-3
227.994347E-3
227.885628E-3
227.993202E-3
227.929687E-3
227.994347E-3
227.984619E-3
227.971458E-3
228.041267E-3
227.914238E-3
227.832413E-3
227.805519E-3
227.598381E-3
227.641869E-3
227.426147E-3
227.305984E-3
227.245903E-3
227.098274E-3
227.067375E-3
227.092552E-3
227.518845E-3
228.386879E-3
229.518700E-3
231.214714E-3
233.062935E-3
235.339165E-3
237.536430E-3
239.515686E-3
241.284370E-3
242.223930E-3
242.764091E-3
242.722321E-3
242.195320E-3
241.469765E-3
240.420914E-3
239.539719E-3
238.628769E-3
237.864304E-3
237.385368E-3
236.844635E-3
236.485291E-3
236.384010E-3
236.167145E-3
236.316490E-3
236.078453E-3
236.049843E-3
235.964584E-3
235.700798E-3
235.328293E-3
234.672546E-3
234.086609E-3
233.599663E-3
233.090973E-3
232.918739E-3
232.756805E-3
232.728195E-3
232.943344E-3
233.000565E-3
233.253479E-3
233.255768E-3
233.330154E-3
233.363342E-3
233.161926E-3
233.264923E-3
233.046341E-3
232.750511E-3
232.629776E-3
232.230377E-3
232.006073E-3
231.804085E-3
231.382370E-3
231.215858E-3
231.012726E-3
230.767822E-3
230.601883E-3
230.308914E-3
230.132675E-3
229.805946E-3
229.726410E-3
229.574203E-3
229.360771E-3
229.387665E-3
229.094696E-3
229.145622E-3
228.858376E-3
228.785706E-3
228.766823E-3
228.691292E-3
228.667831E-3
228.492165E-3
228.443527E-3
228.511620E-3
228.393745E-3
228.419495E-3
228.286743E-3
228.302193E-3
228.356552E-3
228.249550E-3
228.367424E-3
228.286743E-3
228.173447E-3
228.172874E-3
227.933693E-3
228.021240E-3
227.939415E-3
228.033829E-3
228.044701E-3
227.877045E-3
228.016090E-3
227.907944E-3
227.898788E-3
227.946281E-3
227.835846E-3
227.881050E-3
227.675629E-3
227.571487E-3
227.655029E-3
227.418137E-3
227.268791E-3
227.102852E-3
227.097702E-3
227.153778E-3
227.275658E-3
228.010368E-3
229.131317E-3
230.625343E-3
232.472992E-3
234.431076E-3
236.503029E-3
238.493729E-3
240.028954E-3
241.279793E-3
241.613960E-3
241.647720E-3
241.079521E-3
240.430069E-3
239.586067E-3
238.546944E-3
237.768173E-3
236.977386E-3
236.365128E-3
236.014366E-3
235.507393E-3
235.511971E-3
235.381508E-3
235.308838E-3
235.441589E-3
235.310555E-3
235.313988E-3
235.099411E-3
234.753227E-3
234.413338E-3
233.620262E-3
233.219147E-3
232.876396E-3
232.713890E-3
232.735634E-3
232.763672E-3
232.980537E-3
233.219719E-3
233.255768E-3
233.547020E-3
233.355904E-3
233.472061E-3
233.372498E-3
233.188820E-3
233.074951E-3
232.684135E-3
232.648087E-3
232.376862E-3
232.122231E-3
231.925392E-3
231.616402E-3
231.477356E-3
231.227875E-3
231.009865E-3
230.922890E-3
230.716896E-3
230.580711E-3
230.485725E-3
230.302048E-3
230.239105E-3
229.975319E-3
229.977036E-3
229.797935E-3
229.670334E-3
229.626846E-3
229.408264E-3
229.394531E-3
229.320145E-3
229.190254E-3
229.159355E-3
228.993416E-3
229.000854E-3
228.858376E-3
228.808594E-3
228.919601E-3
228.794861E-3
228.848648E-3
228.731346E-3
228.675270E-3
228.668976E-3
228.446960E-3
228.516197E-3
228.457832E-3
228.321075E-3
228.350830E-3
228.140259E-3
228.282738E-3
228.216934E-3
228.103638E-3
228.203201E-3
227.994347E-3
227.897072E-3
227.711678E-3
227.488518E-3
227.396393E-3
227.162361E-3
227.249908E-3
227.386665E-3
227.351189E-3
227.725983E-3
228.527641E-3
229.897499E-3
231.431580E-3
233.240318E-3
235.369492E-3
237.252045E-3
239.021873E-3
240.271568E-3
240.788841E-3
241.013718E-3
240.648651E-3
239.961433E-3
239.113426E-3
238.170433E-3
237.300110E-3
236.420631E-3
235.807228E-3
235.249329E-3
234.750366E-3
234.543800E-3
234.174156E-3
234.092903E-3
234.002495E-3
233.878899E-3
233.732414E-3
233.284378E-3
232.825470E-3
232.438660E-3
231.833839E-3
231.529999E-3
231.052780E-3
231.091690E-3
231.149483E-3
231.207275E-3
231.409836E-3
231.559181E-3
231.858444E-3
231.968880E-3
231.972313E-3
232.062149E-3
231.886482E-3
231.848145E-3
231.543159E-3
231.265640E-3
231.053352E-3
230.645370E-3
230.508041E-3
230.288315E-3
229.971886E-3
229.836273E-3
229.440880E-3
229.385376E-3
229.067802E-3
228.812599E-3
228.773689E-3
228.455544E-3
228.349686E-3
228.183174E-3
227.939987E-3
227.997208E-3
227.739716E-3
227.681923E-3
227.578354E-3
227.501678E-3
227.586937E-3
227.372360E-3
227.507401E-3
227.339172E-3
227.159500E-3
227.276230E-3
227.044487E-3
227.172661E-3
227.153206E-3
227.085114E-3
227.100563E-3
227.044487E-3
226.996994E-3
226.941490E-3
226.901436E-3
226.897430E-3
226.765823E-3
226.819611E-3
226.833344E-3
226.768112E-3
226.903152E-3
226.678276E-3
226.726341E-3
226.603317E-3
226.509476E-3
226.611328E-3
226.491737E-3
226.461411E-3
226.265717E-3
226.099205E-3
226.051712E-3
225.791359E-3
225.776482E-3
225.766182E-3
226.234245E-3
227.054787E-3
228.125381E-3
229.785919E-3
231.674767E-3
233.728981E-3
235.933113E-3
237.790489E-3
239.461327E-3
240.395737E-3
240.868378E-3
240.831757E-3
240.254974E-3
239.551163E-3
238.569260E-3
237.696648E-3
236.917305E-3
236.013222E-3
235.572052E-3
235.121155E-3
234.777260E-3
234.706306E-3
234.526634E-3
234.417915E-3
234.469414E-3
234.431076E-3
234.436798E-3
234.071732E-3
233.789062E-3
233.224869E-3
232.638359E-3
232.240105E-3
231.763458E-3
231.647873E-3
231.494522E-3
231.502533E-3
231.636429E-3
231.650162E-3
231.921387E-3
232.010078E-3
231.931114E-3
231.995201E-3
231.787491E-3
231.663895E-3
231.543732E-3
231.200981E-3
231.060219E-3
230.720901E-3
230.443382E-3
230.144119E-3
229.852867E-3
229.664612E-3
229.356194E-3
229.172516E-3
228.908730E-3
228.734207E-3
228.725052E-3
228.394890E-3
228.342247E-3
228.208923E-3
228.023529E-3
228.104782E-3
227.958298E-3
227.828407E-3
227.735710E-3
227.656174E-3
227.719688E-3
227.497673E-3
227.582359E-3
227.561188E-3
227.392960E-3
227.387810E-3
227.272797E-3
227.312851E-3
227.286530E-3
227.181816E-3
227.252197E-3
227.026749E-3
227.011299E-3
227.066231E-3
226.895142E-3
227.054787E-3
226.834488E-3
226.903725E-3
226.830482E-3
226.687431E-3
226.849937E-3
226.631927E-3
226.689148E-3
226.650810E-3
226.527214E-3
226.583290E-3
226.479721E-3
226.449394E-3
226.350975E-3
226.065445E-3
225.931549E-3
225.714111E-3
225.699234E-3
225.650597E-3
225.681496E-3
226.250839E-3
227.057648E-3
228.397751E-3
230.074310E-3
231.947708E-3
234.084320E-3
236.000633E-3
237.747574E-3
239.010429E-3
239.701080E-3
240.047264E-3
239.619255E-3
239.033318E-3
238.259697E-3
237.256050E-3
236.443520E-3
235.512543E-3
234.960937E-3
234.415054E-3
233.902931E-3
233.814812E-3
233.676910E-3
233.600807E-3
233.621407E-3
233.676338E-3
233.627701E-3
233.386230E-3
233.052635E-3
232.555389E-3
231.991768E-3
231.582069E-3
231.210136E-3
231.032181E-3
231.037331E-3
231.155205E-3
231.342316E-3
231.497383E-3
231.717682E-3
231.974602E-3
231.820679E-3
231.979752E-3
231.813240E-3
231.725121E-3
231.550026E-3
231.271935E-3
231.141472E-3
230.877686E-3
230.691719E-3
230.476570E-3
230.193329E-3
230.005646E-3
229.760170E-3
229.548454E-3
229.381943E-3
229.221153E-3
229.058647E-3
228.813744E-3
228.689575E-3
228.667259E-3
228.315926E-3
228.249550E-3
228.036690E-3
227.896500E-3
228.018379E-3
227.848434E-3
227.837563E-3
227.624130E-3
227.633286E-3
227.640724E-3
227.493668E-3
227.465630E-3
227.328300E-3
227.261353E-3
227.378654E-3
227.237320E-3
227.307701E-3
227.252197E-3
227.223587E-3
227.154350E-3
227.092552E-3
227.081680E-3
226.966095E-3
226.842499E-3
226.752090E-3
226.618767E-3
226.635933E-3
226.505470E-3
226.329231E-3
