Notes :


2023-10-26 ¿ÀÈÄ 10:51:21
Volts
Ch : LED 2,
311.611176E-3
312.518692E-3
312.384224E-3
313.260841E-3
313.485146E-3
313.046265E-3
313.910294E-3
313.591003E-3
314.478493E-3
314.384079E-3
314.455605E-3
314.967728E-3
314.944267E-3
315.837479E-3
316.079521E-3
315.188026E-3
316.231728E-3
316.393089E-3
317.405891E-3
317.823601E-3
317.535782E-3
318.552589E-3
318.244743E-3
319.145393E-3
319.210625E-3
318.964577E-3
319.718170E-3
319.636917E-3
320.666885E-3
320.864296E-3
320.737267E-3
321.863365E-3
321.750069E-3
322.808075E-3
323.299599E-3
323.001480E-3
324.046326E-3
324.136162E-3
325.095177E-3
325.250244E-3
324.387360E-3
324.152756E-3
321.383286E-3
318.302536E-3
313.334656E-3
306.663322E-3
301.690292E-3
296.182251E-3
293.054008E-3
290.968895E-3
289.700317E-3
291.246986E-3
292.287254E-3
294.986916E-3
297.287750E-3
299.182892E-3
302.452469E-3
303.954506E-3
305.786133E-3
306.519699E-3
306.353188E-3
307.691002E-3
306.796646E-3
306.817818E-3
306.491661E-3
305.604744E-3
307.054710E-3
306.746292E-3
308.003998E-3
309.239388E-3
308.791351E-3
311.177444E-3
310.495949E-3
310.775185E-3
310.136032E-3
308.970451E-3
309.276581E-3
308.021164E-3
308.010864E-3
308.101273E-3
307.871246E-3
309.300041E-3
309.282875E-3
310.154343E-3
311.063004E-3
311.366272E-3
313.489151E-3
313.761520E-3
315.014076E-3
315.754509E-3
316.157341E-3
317.982674E-3
318.016434E-3
318.703079E-3
318.812370E-3
318.621826E-3
320.179367E-3
319.561386E-3
320.058632E-3
320.075226E-3
319.552231E-3
320.679474E-3
319.841766E-3
320.020866E-3
319.971085E-3
319.638634E-3
320.700073E-3
319.983101E-3
320.094109E-3
320.262337E-3
319.911575E-3
321.009064E-3
320.356750E-3
320.837402E-3
321.331215E-3
320.820808E-3
321.986961E-3
321.643639E-3
321.854782E-3
322.286797E-3
322.101402E-3
323.521042E-3
323.292732E-3
323.876381E-3
324.643135E-3
324.631119E-3
326.247025E-3
325.844193E-3
326.818085E-3
327.139091E-3
327.060127E-3
328.525543E-3
327.890396E-3
327.997971E-3
327.374268E-3
324.832535E-3
322.667885E-3
317.039680E-3
311.713028E-3
306.072807E-3
300.209999E-3
296.835136E-3
293.147850E-3
292.244339E-3
292.444038E-3
291.824913E-3
295.428085E-3
297.067451E-3
299.400330E-3
301.809311E-3
302.982903E-3
305.545807E-3
305.788422E-3
306.526566E-3
307.007217E-3
305.263138E-3
306.847572E-3
306.033325E-3
306.096840E-3
306.590652E-3
306.475067E-3
308.613396E-3
308.891487E-3
310.096550E-3
310.981750E-3
311.062431E-3
312.095261E-3
310.879326E-3
310.816383E-3
310.233879E-3
309.176445E-3
309.785271E-3
308.925247E-3
309.183311E-3
309.649658E-3
309.749222E-3
311.500740E-3
311.436081E-3
312.323570E-3
313.406754E-3
313.913155E-3
315.768242E-3
315.696144E-3
316.629982E-3
317.554665E-3
317.770958E-3
318.982315E-3
318.478203E-3
319.091606E-3
319.537926E-3
319.217491E-3
320.457458E-3
319.656944E-3
319.818878E-3
320.297813E-3
319.073868E-3
320.808792E-3
320.318413E-3
320.756721E-3
320.915222E-3
320.595360E-3
321.490288E-3
321.086884E-3
321.204185E-3
321.777534E-3
321.399307E-3
322.573471E-3
321.822739E-3
322.399521E-3
322.761726E-3
322.701645E-3
323.649216E-3
323.243523E-3
323.525620E-3
323.874664E-3
323.585129E-3
324.713516E-3
324.179649E-3
324.541283E-3
324.801636E-3
324.946404E-3
326.202965E-3
325.760651E-3
326.293373E-3
326.922226E-3
326.660728E-3
327.985954E-3
327.603722E-3
328.157616E-3
327.927589E-3
326.768303E-3
325.496292E-3
320.843124E-3
315.794563E-3
310.006714E-3
303.306770E-3
298.420715E-3
293.630219E-3
291.235542E-3
290.290833E-3
290.274811E-3
292.131615E-3
293.213081E-3
295.747948E-3
297.885704E-3
299.915314E-3
302.491951E-3
303.061867E-3
304.193115E-3
304.837418E-3
304.569054E-3
305.218506E-3
304.254913E-3
304.122162E-3
303.942490E-3
303.883553E-3
305.466270E-3
305.498314E-3
306.895638E-3
308.173943E-3
308.695793E-3
310.051918E-3
309.333229E-3
309.258842E-3
309.158134E-3
308.384514E-3
308.872604E-3
307.650948E-3
307.938766E-3
308.145332E-3
307.935905E-3
309.334373E-3
309.233093E-3
310.048485E-3
311.179161E-3
311.691856E-3
313.312912E-3
313.308334E-3
314.179230E-3
315.046120E-3
315.344238E-3
316.736984E-3
316.337013E-3
316.820526E-3
316.783905E-3
317.075729E-3
318.255615E-3
317.879105E-3
317.891121E-3
318.314552E-3
318.088531E-3
319.272423E-3
318.693924E-3
318.887329E-3
319.127655E-3
318.865585E-3
319.868660E-3
319.394302E-3
319.536781E-3
319.920158E-3
318.697357E-3
320.484924E-3
320.032883E-3
320.373917E-3
320.613670E-3
320.607376E-3
321.605301E-3
321.293449E-3
321.447372E-3
321.664810E-3
321.672249E-3
322.905922E-3
322.091675E-3
322.602654E-3
322.857857E-3
322.682190E-3
323.848343E-3
323.170853E-3
323.882103E-3
324.375343E-3
324.589920E-3
325.806427E-3
325.355530E-3
325.936317E-3
326.500511E-3
326.593208E-3
327.724457E-3
327.083015E-3
327.038956E-3
325.941467E-3
323.205757E-3
319.874382E-3
313.774109E-3
307.797432E-3
302.326012E-3
297.205353E-3
294.632149E-3
292.322159E-3
292.032623E-3
293.164444E-3
294.795799E-3
298.094559E-3
299.986839E-3
302.584076E-3
304.665184E-3
306.143188E-3
308.463478E-3
308.288956E-3
308.725548E-3
308.826256E-3
307.730484E-3
308.402252E-3
307.490730E-3
307.328796E-3
308.042908E-3
308.462334E-3
310.514832E-3
310.319138E-3
311.026382E-3
311.282158E-3
310.525703E-3
310.972023E-3
309.397316E-3
308.682060E-3
308.489799E-3
307.870674E-3
308.625984E-3
308.098412E-3
308.551598E-3
309.369850E-3
309.911728E-3
311.618614E-3
311.786842E-3
312.817955E-3
313.878250E-3
314.433289E-3
316.104126E-3
316.114426E-3
316.393089E-3
317.087173E-3
317.162704E-3
318.644142E-3
318.145752E-3
318.261909E-3
319.070435E-3
317.248535E-3
319.026375E-3
318.939972E-3
319.004059E-3
319.404602E-3
319.174004E-3
319.997406E-3
319.612885E-3
319.821739E-3
320.230293E-3
319.838333E-3
320.974159E-3
320.263481E-3
320.278358E-3
320.971298E-3
320.512962E-3
321.585846E-3
321.032524E-3
321.191597E-3
321.447945E-3
321.088600E-3
321.993256E-3
321.585846E-3
321.962929E-3
322.250175E-3
322.018433E-3
323.107910E-3
322.670174E-3
322.890472E-3
323.591423E-3
323.574257E-3
324.542999E-3
324.235725E-3
324.692917E-3
325.407600E-3
325.453377E-3
326.467896E-3
325.787544E-3
325.318909E-3
324.563026E-3
321.394157E-3
318.180084E-3
312.532425E-3
306.646729E-3
301.139832E-3
295.802307E-3
292.993355E-3
290.477371E-3
289.880562E-3
291.119957E-3
292.169380E-3
295.050430E-3
296.979904E-3
299.391174E-3
301.642799E-3
302.925110E-3
305.097198E-3
305.277443E-3
306.054497E-3
306.476212E-3
306.041336E-3
306.485939E-3
305.813599E-3
305.859375E-3
306.386948E-3
305.399323E-3
307.904434E-3
308.502960E-3
309.214211E-3
309.696007E-3
309.128952E-3
309.559822E-3
308.319855E-3
307.737350E-3
307.534790E-3
305.585289E-3
306.941414E-3
306.807518E-3
307.176590E-3
307.948494E-3
307.917023E-3
309.823608E-3
310.132027E-3
311.143112E-3
311.981964E-3
312.031746E-3
313.712883E-3
314.167213E-3
314.469910E-3
315.535927E-3
314.980316E-3
316.346741E-3
316.390800E-3
316.517830E-3
317.147255E-3
316.358757E-3
317.524338E-3
317.116356E-3
317.440796E-3
317.344666E-3
316.858864E-3
318.045044E-3
317.790985E-3
317.837906E-3
318.608093E-3
317.901421E-3
318.890190E-3
319.064713E-3
319.103622E-3
319.386292E-3
318.737984E-3
319.986534E-3
320.014000E-3
320.347595E-3
320.890045E-3
320.420265E-3
321.531487E-3
321.444511E-3
321.756935E-3
321.922874E-3
321.433067E-3
322.536278E-3
322.510529E-3
322.575188E-3
322.896194E-3
322.129440E-3
323.258400E-3
323.319054E-3
323.620605E-3
324.195099E-3
323.663521E-3
324.863434E-3
325.081444E-3
325.197029E-3
325.689125E-3
325.202179E-3
326.132011E-3
325.247383E-3
323.189163E-3
320.125580E-3
314.480209E-3
309.744644E-3
303.354263E-3
297.634506E-3
293.310928E-3
289.842796E-3
289.552116E-3
289.529800E-3
290.420151E-3
292.220879E-3
293.864250E-3
297.106934E-3
299.046707E-3
300.922394E-3
302.673912E-3
303.049278E-3
304.627419E-3
304.350471E-3
303.953934E-3
303.650665E-3
302.704811E-3
303.229523E-3
302.892494E-3
303.286171E-3
304.309273E-3
304.427719E-3
306.366348E-3
306.921959E-3
307.158852E-3
307.541656E-3
306.473351E-3
307.051849E-3
306.274223E-3
305.663109E-3
305.536079E-3
304.808807E-3
306.011581E-3
305.882263E-3
306.055069E-3
306.847000E-3
306.935120E-3
308.827972E-3
309.438515E-3
310.061073E-3
311.303902E-3
311.231232E-3
313.290024E-3
313.775826E-3
314.071083E-3
314.876175E-3
314.522552E-3
315.972519E-3
315.764236E-3
315.784836E-3
316.205406E-3
315.346527E-3
316.700363E-3
316.511536E-3
316.228867E-3
316.773605E-3
316.236877E-3
317.296600E-3
317.511749E-3
317.166710E-3
317.920876E-3
317.378426E-3
318.649864E-3
318.683052E-3
318.646431E-3
319.342232E-3
318.930244E-3
320.503807E-3
320.736694E-3
320.627403E-3
321.595573E-3
320.943260E-3
322.441292E-3
322.616959E-3
322.729111E-3
323.470116E-3
323.039246E-3
324.214554E-3
323.799706E-3
323.719597E-3
324.016571E-3
323.862076E-3
325.243950E-3
325.135803E-3
325.110054E-3
325.832176E-3
325.614738E-3
326.846123E-3
327.046394E-3
327.063560E-3
327.700996E-3
327.632332E-3
328.765297E-3
328.353310E-3
327.174568E-3
325.451088E-3
321.764946E-3
317.803001E-3
311.850357E-3
305.573845E-3
300.667191E-3
296.467209E-3
294.787788E-3
293.621635E-3
293.845940E-3
295.277023E-3
297.372437E-3
300.739861E-3
303.180885E-3
305.204773E-3
307.455254E-3
308.436012E-3
310.442734E-3
310.771751E-3
310.119438E-3
310.685921E-3
310.132027E-3
310.889053E-3
310.276794E-3
310.012436E-3
311.148262E-3
311.614609E-3
313.284302E-3
313.784981E-3
313.606453E-3
313.987541E-3
313.043976E-3
313.091469E-3
312.128448E-3
310.657310E-3
310.842133E-3
310.387802E-3
311.232376E-3
311.302757E-3
311.469269E-3
312.697792E-3
313.041687E-3
314.539719E-3
315.228081E-3
315.873528E-3
316.998482E-3
317.575264E-3
318.859291E-3
319.428635E-3
319.497871E-3
320.125580E-3
320.048904E-3
321.122932E-3
321.125221E-3
320.888329E-3
321.524620E-3
321.395874E-3
322.219276E-3
321.715164E-3
321.599579E-3
322.136307E-3
321.831894E-3
322.651863E-3
322.368622E-3
322.226715E-3
322.701645E-3
322.440720E-3
323.394585E-3
323.263550E-3
323.165131E-3
323.732185E-3
323.645210E-3
324.460602E-3
324.527550E-3
324.434280E-3
324.879456E-3
324.818230E-3
325.962639E-3
326.073074E-3
325.740623E-3
326.490784E-3
326.130867E-3
327.231216E-3
327.346802E-3
327.127075E-3
327.809143E-3
327.848053E-3
328.975868E-3
329.326057E-3
329.285431E-3
330.043602E-3
329.834747E-3
331.116486E-3
331.130219E-3
330.940819E-3
331.280136E-3
330.358315E-3
329.498291E-3
326.097107E-3
321.234512E-3
316.294670E-3
310.130882E-3
305.653381E-3
301.174736E-3
298.054504E-3
297.041130E-3
296.594810E-3
298.407555E-3
300.081253E-3
301.958084E-3
304.754448E-3
306.663895E-3
309.399033E-3
310.674477E-3
311.517906E-3
312.742996E-3
312.706375E-3
313.557816E-3
313.148117E-3
312.639999E-3
312.994766E-3
312.844276E-3
313.900566E-3
314.627838E-3
314.974594E-3
316.049767E-3
315.745926E-3
316.329002E-3
315.941048E-3
314.981461E-3
314.674187E-3
313.549232E-3
313.872528E-3
313.413048E-3
312.967873E-3
313.668823E-3
313.742638E-3
314.976883E-3
315.616035E-3
316.153336E-3
317.383003E-3
317.836761E-3
319.458389E-3
320.178223E-3
320.500374E-3
321.783829E-3
321.872520E-3
323.086166E-3
323.325348E-3
323.039818E-3
323.822021E-3
323.715591E-3
324.477768E-3
324.368477E-3
323.903275E-3
324.453735E-3
323.838615E-3
324.421120E-3
324.476051E-3
323.963928E-3
324.501228E-3
324.270630E-3
324.846840E-3
324.765587E-3
324.493217E-3
324.868011E-3
324.415398E-3
325.110054E-3
325.099754E-3
324.815369E-3
325.733757E-3
325.360107E-3
326.346588E-3
326.494789E-3
326.176643E-3
326.703644E-3
326.574898E-3
327.669525E-3
327.831459E-3
327.427483E-3
327.961922E-3
328.209114E-3
329.304314E-3
329.690552E-3
329.276276E-3
330.501366E-3
330.446434E-3
331.533623E-3
331.915283E-3
331.903839E-3
332.892036E-3
332.633400E-3
333.239937E-3
332.590485E-3
330.576324E-3
328.091812E-3
323.260689E-3
318.480492E-3
312.546730E-3
305.681992E-3
302.196121E-3
298.800087E-3
297.973824E-3
297.913742E-3
297.159576E-3
300.271225E-3
302.427292E-3
305.606461E-3
308.177948E-3
309.669113E-3
311.686707E-3
312.327576E-3
313.518333E-3
313.730621E-3
312.310410E-3
313.221931E-3
312.570190E-3
312.739563E-3
312.830544E-3
312.392235E-3
313.958359E-3
314.048767E-3
315.373993E-3
315.681267E-3
315.149117E-3
315.867233E-3
315.083313E-3
314.943695E-3
314.505959E-3
313.636208E-3
314.412117E-3
313.685417E-3
314.087677E-3
314.506531E-3
313.881683E-3
316.102982E-3
316.058350E-3
317.536354E-3
318.581200E-3
318.854141E-3
320.687485E-3
320.677185E-3
321.641922E-3
322.329712E-3
322.257614E-3
323.612595E-3
322.901344E-3
323.571968E-3
323.363113E-3
323.082161E-3
324.330139E-3
323.485565E-3
323.975945E-3
323.751640E-3
323.233795E-3
324.538422E-3
323.933029E-3
324.164772E-3
324.466324E-3
324.136162E-3
325.330353E-3
324.827957E-3
325.488281E-3
325.591278E-3
324.534416E-3
326.431847E-3
325.901985E-3
326.660156E-3
327.386284E-3
326.766014E-3
327.909279E-3
327.294731E-3
327.925301E-3
328.022003E-3
327.546501E-3
328.568459E-3
328.072357E-3
328.634262E-3
328.826523E-3
328.866577E-3
330.370903E-3
329.926872E-3
330.531693E-3
331.091309E-3
330.291939E-3
332.292938E-3
331.961632E-3
332.670021E-3
332.532120E-3
329.947472E-3
329.346657E-3
325.078011E-3
320.532990E-3
315.366554E-3
309.365273E-3
306.029320E-3
301.740646E-3
300.156212E-3
299.950218E-3
300.241470E-3
303.061295E-3
304.427147E-3
307.002068E-3
309.698296E-3
311.295319E-3
314.272499E-3
314.745140E-3
315.700722E-3
316.498375E-3
316.162491E-3
317.276573E-3
316.159630E-3
316.283226E-3
316.613960E-3
316.371918E-3
318.283653E-3
318.209267E-3
319.041252E-3
319.267273E-3
318.814087E-3
319.404602E-3
318.069077E-3
317.731476E-3
317.336655E-3
316.710663E-3
317.553520E-3
316.549301E-3
317.063713E-3
317.646790E-3
317.905426E-3
319.743919E-3
319.692993E-3
320.681763E-3
321.665382E-3
322.210121E-3
324.063492E-3
324.103546E-3
325.005913E-3
326.220703E-3
326.230431E-3
327.855492E-3
327.297020E-3
327.753639E-3
328.038025E-3
327.913284E-3
329.074287E-3
328.361320E-3
328.698921E-3
328.982162E-3
328.699493E-3
329.861641E-3
328.904915E-3
329.189301E-3
329.477119E-3
328.977013E-3
329.901123E-3
329.302597E-3
329.603004E-3
329.709435E-3
329.433060E-3
330.811501E-3
329.998398E-3
330.229568E-3
330.540276E-3
330.362892E-3
331.637764E-3
331.023216E-3
331.677818E-3
331.922722E-3
332.109261E-3
333.538055E-3
333.054543E-3
333.825302E-3
334.629250E-3
334.391785E-3
335.864067E-3
335.448074E-3
335.486412E-3
334.846687E-3
332.781601E-3
330.463028E-3
325.176430E-3
320.669174E-3
315.726471E-3
310.993195E-3
308.667183E-3
305.797005E-3
305.678558E-3
306.588936E-3
307.752228E-3
310.758018E-3
312.300110E-3
314.632988E-3
316.907501E-3
318.607521E-3
320.630836E-3
320.932961E-3
321.719742E-3
321.922874E-3
320.407104E-3
