Notes :


2023-11-06 ¿ÀÈÄ 10:42:37
Volts
Ch : LED 2,
416.015053E-3
415.972710E-3
415.898323E-3
415.876579E-3
415.907478E-3
415.888023E-3
415.677452E-3
415.773582E-3
415.696335E-3
415.711212E-3
415.623665E-3
415.596199E-3
415.599632E-3
415.547562E-3
415.438843E-3
415.536690E-3
415.320396E-3
415.207100E-3
415.109253E-3
415.032005E-3
415.050888E-3
415.002823E-3
415.156174E-3
415.250015E-3
415.679741E-3
416.432190E-3
417.100525E-3
418.020630E-3
418.967628E-3
419.655991E-3
420.222473E-3
420.750046E-3
420.883369E-3
420.799255E-3
420.753479E-3
420.576668E-3
420.304871E-3
419.978142E-3
419.820786E-3
419.638252E-3
419.394493E-3
419.431114E-3
419.571304E-3
419.441986E-3
419.530678E-3
419.560432E-3
419.534111E-3
419.599342E-3
419.487762E-3
419.552422E-3
419.276047E-3
418.985367E-3
418.826294E-3
418.707275E-3
418.519020E-3
418.378258E-3
418.335915E-3
418.353653E-3
418.433189E-3
418.470383E-3
418.589401E-3
418.575096E-3
418.614578E-3
418.710136E-3
418.696404E-3
418.604279E-3
418.543625E-3
418.402290E-3
418.269539E-3
418.117905E-3
418.032646E-3
418.024063E-3
417.985153E-3
417.827225E-3
417.682457E-3
417.600060E-3
417.695045E-3
417.493629E-3
417.321968E-3
417.255592E-3
417.107391E-3
416.966057E-3
416.880226E-3
416.856194E-3
416.733742E-3
416.700554E-3
416.622162E-3
416.638184E-3
416.527176E-3
416.448784E-3
416.481972E-3
416.450500E-3
416.261673E-3
416.325760E-3
416.310310E-3
416.293144E-3
416.198158E-3
416.184425E-3
416.127205E-3
416.108894E-3
416.138649E-3
416.180420E-3
416.091728E-3
416.067123E-3
415.948677E-3
415.862274E-3
415.728951E-3
415.706062E-3
415.687180E-3
415.624237E-3
415.431976E-3
415.458298E-3
415.406799E-3
415.439987E-3
415.386772E-3
415.491486E-3
415.687752E-3
416.192436E-3
416.968918E-3
417.902184E-3
418.640327E-3
419.411087E-3
420.141220E-3
420.659065E-3
420.935440E-3
420.954895E-3
420.860481E-3
420.814705E-3
420.537758E-3
420.117760E-3
419.861984E-3
419.678307E-3
419.385338E-3
419.329262E-3
419.236565E-3
419.256020E-3
419.286346E-3
419.377899E-3
419.355011E-3
419.306374E-3
419.269753E-3
419.289780E-3
419.069481E-3
418.780518E-3
418.509293E-3
418.322182E-3
418.144798E-3
418.239212E-3
418.180847E-3
418.252373E-3
418.306732E-3
418.404579E-3
418.502998E-3
418.612289E-3
418.643761E-3
418.650627E-3
418.599129E-3
418.643761E-3
418.448067E-3
418.412018E-3
418.297005E-3
418.150520E-3
418.279839E-3
418.020630E-3
417.889023E-3
417.824364E-3
417.785454E-3
417.717934E-3
417.704773E-3
417.520523E-3
417.515373E-3
417.241859E-3
417.230415E-3
417.225266E-3
417.154312E-3
417.080498E-3
416.923714E-3
416.880798E-3
416.841888E-3
416.827011E-3
416.613579E-3
416.554642E-3
416.504860E-3
416.528893E-3
416.427040E-3
416.527748E-3
416.331482E-3
416.361809E-3
416.294289E-3
416.211319E-3
416.214752E-3
416.190720E-3
416.202164E-3
416.134071E-3
416.017914E-3
416.032219E-3
415.929222E-3
415.794182E-3
415.873146E-3
415.666580E-3
415.588188E-3
415.520096E-3
415.527534E-3
415.435410E-3
415.302658E-3
415.362740E-3
415.695763E-3
416.362953E-3
416.999245E-3
417.736244E-3
418.615723E-3
419.285202E-3
419.955826E-3
420.336914E-3
420.652199E-3
420.647621E-3
420.734596E-3
420.412445E-3
420.139503E-3
419.813919E-3
419.543266E-3
419.266319E-3
419.042587E-3
419.001389E-3
418.903542E-3
418.848610E-3
418.936729E-3
418.876076E-3
418.942451E-3
418.944168E-3
418.885803E-3
418.707848E-3
418.591690E-3
418.281555E-3
418.010902E-3
417.936516E-3
417.769432E-3
417.728806E-3
417.736244E-3
417.814064E-3
417.830086E-3
417.935944E-3
418.026352E-3
418.059540E-3
417.979431E-3
418.010330E-3
417.949677E-3
417.932510E-3
417.871284E-3
417.799759E-3
417.455292E-3
417.367172E-3
417.327118E-3
417.304802E-3
417.249870E-3
417.232704E-3
417.097664E-3
417.023849E-3
416.883659E-3
416.663933E-3
416.647911E-3
416.546059E-3
416.571808E-3
416.510010E-3
416.366386E-3
416.270828E-3
416.119766E-3
416.056252E-3
416.284561E-3
416.007614E-3
415.938950E-3
415.755272E-3
415.739822E-3
415.748978E-3
415.651703E-3
415.592194E-3
415.583038E-3
415.544701E-3
415.528107E-3
415.377617E-3
415.364456E-3
415.292931E-3
415.194511E-3
415.167046E-3
415.166473E-3
415.110970E-3
415.007401E-3
414.966774E-3
414.863777E-3
414.822578E-3
414.686966E-3
414.571381E-3
414.485550E-3
414.322472E-3
414.329338E-3
414.294434E-3
414.292145E-3
414.379120E-3
414.768219E-3
415.293503E-3
416.165543E-3
416.990089E-3
417.747688E-3
418.682671E-3
419.415092E-3
419.844818E-3
420.120621E-3
420.176697E-3
420.061111E-3
419.872284E-3
419.733810E-3
419.409370E-3
419.116974E-3
418.870354E-3
418.642616E-3
418.633461E-3
418.592834E-3
418.594551E-3
418.643761E-3
418.610001E-3
418.532753E-3
418.512726E-3
418.559647E-3
418.559647E-3
418.414879E-3
418.206596E-3
418.001175E-3
417.800903E-3
417.630386E-3
417.564011E-3
417.438126E-3
417.330551E-3
417.410660E-3
417.492485E-3
417.585182E-3
417.561722E-3
417.477036E-3
417.584610E-3
417.564011E-3
417.510223E-3
417.456436E-3
417.291069E-3
417.215538E-3
417.213249E-3
417.080498E-3
416.874504E-3
416.813278E-3
416.780090E-3
416.682243E-3
416.519165E-3
416.503716E-3
416.378975E-3
416.298866E-3
416.246796E-3
416.155815E-3
416.146660E-3
415.999603E-3
415.969276E-3
415.913773E-3
415.822220E-3
415.754128E-3
415.641403E-3
415.531540E-3
415.441132E-3
415.339279E-3
415.379333E-3
415.290070E-3
415.175629E-3
415.125275E-3
415.042305E-3
415.062332E-3
414.986801E-3
414.830589E-3
414.867210E-3
414.912415E-3
414.842033E-3
414.820290E-3
414.776230E-3
414.808273E-3
414.822006E-3
414.750481E-3
414.630318E-3
414.637184E-3
414.587975E-3
414.503288E-3
414.444351E-3
414.337921E-3
414.201164E-3
414.229202E-3
414.172554E-3
414.288139E-3
414.194298E-3
414.246941E-3
414.453506E-3
414.965057E-3
415.697479E-3
416.602707E-3
417.536545E-3
418.436050E-3
419.087791E-3
419.714928E-3
419.968987E-3
419.994736E-3
420.040512E-3
419.895744E-3
419.766998E-3
419.432831E-3
419.137001E-3
418.963623E-3
418.651772E-3
418.584251E-3
418.563080E-3
418.568230E-3
418.492699E-3
418.489265E-3
418.428040E-3
418.619156E-3
418.576813E-3
418.532753E-3
418.395996E-3
418.282127E-3
418.008614E-3
417.821503E-3
417.790604E-3
417.774010E-3
417.664146E-3
417.654419E-3
417.701912E-3
417.717361E-3
417.850113E-3
417.942810E-3
417.886162E-3
417.952538E-3
417.920494E-3
417.927933E-3
417.854691E-3
417.746544E-3
417.641830E-3
417.535973E-3
417.440414E-3
417.427826E-3
417.341995E-3
417.111397E-3
417.144012E-3
417.120552E-3
416.991806E-3
416.931152E-3
416.774368E-3
416.754913E-3
416.600418E-3
416.539192E-3
416.518021E-3
416.375542E-3
416.233635E-3
416.144371E-3
416.083717E-3
416.051102E-3
415.969849E-3
415.878868E-3
415.880585E-3
415.891457E-3
415.815926E-3
415.656281E-3
415.706062E-3
415.650558E-3
415.677452E-3
415.608215E-3
415.585899E-3
415.608215E-3
415.540695E-3
415.556145E-3
415.492058E-3
415.397644E-3
415.312386E-3
415.256882E-3
415.201950E-3
415.242004E-3
415.006256E-3
414.935875E-3
414.864349E-3
414.835739E-3
414.716721E-3
414.743042E-3
414.668083E-3
414.822578E-3
415.049171E-3
415.711212E-3
416.485405E-3
417.380333E-3
418.184280E-3
418.945885E-3
419.509506E-3
419.838524E-3
419.972992E-3
419.978142E-3
419.808197E-3
419.615936E-3
419.251442E-3
419.028854E-3
418.639755E-3
418.389702E-3
418.172836E-3
418.141937E-3
418.009758E-3
418.046379E-3
417.997742E-3
417.980003E-3
417.867279E-3
417.950821E-3
417.942238E-3
417.711067E-3
417.462730E-3
417.315674E-3
417.170906E-3
416.936874E-3
416.901398E-3
416.831589E-3
416.790390E-3
416.932297E-3
416.961479E-3
416.999245E-3
417.058182E-3
417.128563E-3
417.124557E-3
417.160034E-3
417.179489E-3
417.027283E-3
416.969490E-3
416.898537E-3
416.764069E-3
416.727448E-3
416.578674E-3
416.527176E-3
416.471100E-3
416.419029E-3
416.287422E-3
416.218185E-3
416.230774E-3
416.045380E-3
415.995598E-3
415.921783E-3
415.793610E-3
415.797615E-3
415.724373E-3
415.607643E-3
415.588760E-3
415.558434E-3
415.430832E-3
415.279770E-3
415.124702E-3
415.092087E-3
414.991951E-3
414.926147E-3
414.911270E-3
414.831161E-3
414.961052E-3
414.799118E-3
414.883232E-3
414.807129E-3
414.714432E-3
414.787102E-3
414.680672E-3
414.665222E-3
414.664650E-3
414.535904E-3
414.534187E-3
414.486694E-3
414.364243E-3
414.333344E-3
414.264679E-3
414.242935E-3
414.142799E-3
414.113617E-3
414.012909E-3
413.945389E-3
413.873863E-3
413.909912E-3
414.313889E-3
414.837456E-3
415.573311E-3
416.409874E-3
417.296219E-3
418.121338E-3
418.778229E-3
419.253159E-3
419.577026E-3
419.693184E-3
419.629097E-3
419.388199E-3
419.190788E-3
418.929291E-3
418.643761E-3
418.371964E-3
418.204880E-3
418.014908E-3
418.056679E-3
417.961693E-3
417.988014E-3
417.855263E-3
417.984009E-3
417.980003E-3
417.993164E-3
417.935944E-3
417.822647E-3
417.672157E-3
417.578316E-3
417.343140E-3
417.206383E-3
417.091942E-3
417.025566E-3
417.059326E-3
417.054176E-3
417.103386E-3
417.229271E-3
417.192650E-3
417.363167E-3
417.356873E-3
417.318535E-3
417.360306E-3
417.307663E-3
417.233276E-3
417.151451E-3
417.018127E-3
416.931725E-3
416.876793E-3
416.691971E-3
416.717148E-3
416.570091E-3
416.425323E-3
416.349220E-3
416.302299E-3
416.145515E-3
415.995598E-3
416.005898E-3
415.733528E-3
415.790176E-3
415.642548E-3
415.636253E-3
415.545273E-3
415.405083E-3
415.335846E-3
415.213394E-3
415.240860E-3
415.169907E-3
415.144157E-3
415.057755E-3
415.002251E-3
414.939880E-3
414.960480E-3
414.915848E-3
414.962196E-3
414.903831E-3
414.860916E-3
414.895821E-3
414.820862E-3
414.725876E-3
414.701843E-3
414.739037E-3
414.797401E-3
414.589119E-3
414.665222E-3
414.654922E-3
414.584541E-3
414.495277E-3
414.490128E-3
414.390564E-3
414.267540E-3
414.242935E-3
414.246941E-3
414.114189E-3
414.197159E-3
414.066124E-3
414.185715E-3
414.628029E-3
415.275192E-3
416.089439E-3
416.990089E-3
417.939949E-3
418.731880E-3
419.182777E-3
419.644547E-3
419.895172E-3
419.927788E-3
419.787598E-3
419.629669E-3
419.356155E-3
419.257164E-3
418.910980E-3
418.629456E-3
418.437767E-3
418.353653E-3
418.362808E-3
418.480110E-3
418.517303E-3
418.482971E-3
418.623734E-3
418.656349E-3
418.618011E-3
418.477249E-3
418.299866E-3
418.105888E-3
417.950249E-3
417.818642E-3
417.754555E-3
417.823219E-3
417.745399E-3
417.700768E-3
417.738533E-3
417.852402E-3
417.910767E-3
417.990303E-3
418.054962E-3
418.042374E-3
418.097305E-3
418.053818E-3
417.921066E-3
417.889595E-3
417.792892E-3
417.717361E-3
417.521095E-3
417.528534E-3
417.535973E-3
417.442703E-3
417.456436E-3
417.329407E-3
417.226982E-3
417.215538E-3
417.160606E-3
417.043304E-3
416.797256E-3
416.821861E-3
416.800690E-3
416.736603E-3
416.690254E-3
416.595268E-3
416.567802E-3
416.424179E-3
416.393280E-3
416.432190E-3
416.338348E-3
416.259956E-3
416.333771E-3
416.249084E-3
416.184425E-3
416.123772E-3
416.086578E-3
416.190147E-3
416.161537E-3
416.123772E-3
416.066551E-3
416.039658E-3
416.086578E-3
415.985870E-3
415.983582E-3
415.900040E-3
415.814209E-3
415.751266E-3
415.694618E-3
415.645981E-3
415.636253E-3
415.700912E-3
415.545845E-3
415.544128E-3
415.449142E-3
415.585327E-3
416.051102E-3
416.709137E-3
417.497063E-3
418.294716E-3
419.119835E-3
419.890022E-3
420.341492E-3
420.570946E-3
420.744324E-3
420.750618E-3
420.592690E-3
420.413589E-3
420.158958E-3
419.825363E-3
419.563866E-3
419.381332E-3
419.062042E-3
418.997383E-3
419.014549E-3
418.964195E-3
418.993378E-3
418.975639E-3
418.916702E-3
418.848038E-3
418.856049E-3
418.813705E-3
418.433189E-3
418.173981E-3
418.010902E-3
417.885017E-3
417.806053E-3
417.816353E-3
417.804337E-3
417.882156E-3
417.959976E-3
417.935944E-3
418.020058E-3
418.017197E-3
417.996597E-3
418.005753E-3
417.958832E-3
417.916489E-3
417.846680E-3
417.593193E-3
417.547417E-3
417.512512E-3
417.428398E-3
417.247581E-3
417.169762E-3
417.043304E-3
416.986656E-3
416.939735E-3
416.842461E-3
416.780663E-3
416.702271E-3
416.595840E-3
416.516304E-3
416.425323E-3
416.378403E-3
416.429329E-3
416.246223E-3
416.191864E-3
416.039658E-3
416.014481E-3
415.897179E-3
415.869141E-3
415.892029E-3
415.761566E-3
415.690041E-3
415.778160E-3
415.696335E-3
415.658569E-3
415.678024E-3
415.660858E-3
415.613365E-3
415.566444E-3
415.571022E-3
415.583611E-3
415.607071E-3
415.464592E-3
415.313530E-3
415.227699E-3
415.193367E-3
415.116692E-3
415.039444E-3
414.967918E-3
414.874649E-3
414.873505E-3
414.830017E-3
415.003967E-3
415.517235E-3
416.172409E-3
416.911125E-3
417.818642E-3
418.569374E-3
419.399071E-3
419.874001E-3
420.173264E-3
420.266533E-3
420.227051E-3
420.086288E-3
419.905472E-3
419.616508E-3
419.389343E-3
418.953896E-3
418.807411E-3
418.794250E-3
418.608856E-3
418.651199E-3
418.608856E-3
418.597412E-3
418.632317E-3
418.614006E-3
418.629456E-3
418.519592E-3
418.381119E-3
418.246078E-3
418.060112E-3
417.842102E-3
417.754555E-3
417.679596E-3
417.717934E-3
417.648697E-3
417.684746E-3
417.681885E-3
417.698479E-3
417.736816E-3
417.765427E-3
417.859840E-3
417.967415E-3
418.000031E-3
417.891312E-3
417.794037E-3
417.715645E-3
417.613792E-3
417.467308E-3
417.422104E-3
417.284203E-3
417.118835E-3
417.154312E-3
417.059326E-3
417.034149E-3
416.964340E-3
416.839027E-3
416.760635E-3
416.642189E-3
416.612434E-3
416.473389E-3
416.390419E-3
416.314888E-3
416.250801E-3
416.240501E-3
416.057396E-3
416.009903E-3
415.980721E-3
415.842247E-3
415.700912E-3
415.694046E-3
415.714645E-3
415.719223E-3
415.587044E-3
415.640259E-3
415.589333E-3
415.442276E-3
415.418243E-3
415.577316E-3
415.458298E-3
415.382767E-3
415.436554E-3
415.276909E-3
415.292931E-3
415.203094E-3
415.061188E-3
414.991379E-3
414.925003E-3
414.903831E-3
414.787102E-3
414.685249E-3
414.630890E-3
414.626884E-3
414.598846E-3
414.785957E-3
415.060043E-3
415.702057E-3
416.425323E-3
417.340851E-3
418.115616E-3
418.906403E-3
419.536400E-3
420.101166E-3
420.297432E-3
420.490837E-3
420.475388E-3
420.321465E-3
420.104599E-3
419.840813E-3
419.657135E-3
419.366455E-3
419.170761E-3
418.840599E-3
418.894958E-3
418.916702E-3
418.825722E-3
418.816566E-3
418.832016E-3
418.918419E-3
418.855476E-3
418.820572E-3
418.766212E-3
418.538475E-3
418.262100E-3
418.074989E-3
417.927933E-3
417.912483E-3
417.847252E-3
417.823792E-3
417.882156E-3
417.875290E-3
417.982292E-3
418.160820E-3
418.191147E-3
418.343353E-3
418.325615E-3
418.413162E-3
418.374825E-3
418.284416E-3
418.159103E-3
418.133926E-3
418.016624E-3
417.941666E-3
417.904472E-3
417.893028E-3
417.733383E-3
417.676735E-3
417.557716E-3
417.535973E-3
417.456436E-3
417.430115E-3
417.389488E-3
417.314529E-3
417.229843E-3
417.138290E-3
416.707993E-3
416.904259E-3
417.009544E-3
416.968346E-3
416.936874E-3
416.677094E-3
416.714859E-3
416.698837E-3
416.609573E-3
416.861916E-3
416.737175E-3
416.745186E-3
416.638184E-3
416.599846E-3
416.637611E-3
416.543198E-3
416.516304E-3
