Notes :


2023-11-10 ¿ÀÈÄ 11:52:21
Volts
Ch : LED 2,
742.712402E-3
742.150497E-3
741.790009E-3
741.321373E-3
740.980911E-3
740.769768E-3
740.310860E-3
740.354919E-3
740.158081E-3
740.193558E-3
740.547180E-3
741.616631E-3
743.708038E-3
746.588516E-3
750.536156E-3
755.092621E-3
759.350967E-3
763.355827E-3
766.457748E-3
768.617249E-3
769.709587E-3
769.621468E-3
768.991470E-3
767.671967E-3
766.377068E-3
765.103912E-3
763.612747E-3
762.525558E-3
761.884117E-3
761.594009E-3
761.441231E-3
761.605453E-3
762.069511E-3
762.378502E-3
762.724113E-3
762.835121E-3
762.632561E-3
762.122154E-3
760.928535E-3
759.515190E-3
758.219719E-3
757.303047E-3
756.770325E-3
756.409264E-3
756.528282E-3
756.936264E-3
757.508469E-3
758.084679E-3
758.484077E-3
758.642578E-3
758.589935E-3
758.325577E-3
758.109856E-3
757.405472E-3
756.775475E-3
756.213570E-3
755.477715E-3
754.961586E-3
754.234314E-3
753.672981E-3
753.212357E-3
752.601814E-3
752.309990E-3
752.057076E-3
751.827621E-3
751.506615E-3
751.103210E-3
751.074600E-3
750.788498E-3
750.553894E-3
750.289536E-3
749.966812E-3
749.926186E-3
749.731064E-3
749.495888E-3
749.510193E-3
749.279594E-3
749.104500E-3
748.966026E-3
748.821259E-3
748.653030E-3
748.477936E-3
748.276520E-3
748.126030E-3
747.950935E-3
747.724342E-3
747.675133E-3
747.387886E-3
747.262001E-3
746.978188E-3
746.915245E-3
746.612549E-3
746.694374E-3
746.463203E-3
746.272659E-3
746.283531E-3
745.898437E-3
745.785141E-3
745.539093E-3
745.196915E-3
745.015526E-3
744.498253E-3
744.172096E-3
743.745804E-3
743.415070E-3
743.053436E-3
742.599678E-3
742.628288E-3
742.544746E-3
742.639732E-3
743.365860E-3
744.560051E-3
747.144127E-3
750.492668E-3
754.654884E-3
759.340096E-3
763.638496E-3
767.535210E-3
770.519257E-3
772.270775E-3
773.010063E-3
772.531700E-3
771.639633E-3
770.447731E-3
768.783188E-3
767.456818E-3
766.010284E-3
765.161705E-3
764.524841E-3
764.182091E-3
764.405251E-3
764.699936E-3
764.975166E-3
765.262413E-3
765.463257E-3
765.529633E-3
764.956856E-3
764.059067E-3
762.753868E-3
761.275291E-3
760.227013E-3
759.255981E-3
758.837700E-3
758.717537E-3
758.926964E-3
759.473991E-3
759.791565E-3
760.226440E-3
760.659599E-3
760.697365E-3
760.861015E-3
760.490799E-3
760.088539E-3
759.602165E-3
758.985329E-3
758.380508E-3
757.593727E-3
757.142258E-3
756.610107E-3
755.881119E-3
755.401039E-3
754.961586E-3
754.623985E-3
754.245186E-3
753.805161E-3
753.574562E-3
753.157425E-3
752.900505E-3
752.551460E-3
752.225304E-3
752.167511E-3
751.826477E-3
751.582146E-3
751.510620E-3
751.344109E-3
751.233101E-3
750.913811E-3
750.868034E-3
750.706673E-3
750.527573E-3
750.515556E-3
750.125885E-3
750.086403E-3
749.994850E-3
749.603462E-3
749.562836E-3
749.206924E-3
748.962021E-3
748.873901E-3
748.441315E-3
748.301125E-3
747.988701E-3
747.827339E-3
747.595024E-3
747.461128E-3
747.257423E-3
747.051430E-3
746.928406E-3
746.753883E-3
746.443176E-3
746.338463E-3
746.155357E-3
745.990562E-3
745.850372E-3
745.664978E-3
745.302773E-3
744.966316E-3
744.564629E-3
744.352913E-3
743.990707E-3
743.869400E-3
743.659973E-3
743.643951E-3
743.766403E-3
743.907738E-3
744.445610E-3
745.629501E-3
748.196411E-3
751.684570E-3
755.744362E-3
760.270500E-3
764.563751E-3
768.445015E-3
771.090889E-3
772.711372E-3
773.382568E-3
772.919655E-3
771.847916E-3
770.515251E-3
768.780899E-3
767.268562E-3
765.838051E-3
764.712524E-3
764.057350E-3
763.561821E-3
763.594437E-3
763.649940E-3
763.903427E-3
764.437294E-3
764.291954E-3
764.263344E-3
763.486862E-3
762.392235E-3
761.079597E-3
759.792137E-3
758.919525E-3
758.339882E-3
758.294678E-3
758.677483E-3
758.937836E-3
759.661102E-3
760.286522E-3
760.615540E-3
761.098480E-3
760.977745E-3
760.854149E-3
760.368347E-3
759.771538E-3
759.241104E-3
758.498955E-3
757.854652E-3
757.132530E-3
756.468201E-3
755.941772E-3
755.449104E-3
755.077171E-3
754.555893E-3
754.232025E-3
754.135323E-3
753.758812E-3
753.501320E-3
753.167152E-3
752.978325E-3
752.845001E-3
752.548599E-3
752.396393E-3
752.185249E-3
752.076530E-3
751.834488E-3
751.585007E-3
751.520348E-3
751.284027E-3
751.019096E-3
751.017952E-3
750.756454E-3
750.661469E-3
750.465775E-3
750.454330E-3
750.329590E-3
750.010300E-3
749.810028E-3
749.522209E-3
749.285316E-3
749.147415E-3
748.766899E-3
748.616982E-3
748.325729E-3
748.251343E-3
748.129463E-3
747.835922E-3
747.732353E-3
747.496605E-3
747.276306E-3
747.165298E-3
746.976471E-3
746.759605E-3
746.508408E-3
746.265793E-3
745.951653E-3
745.456696E-3
745.203209E-3
744.887924E-3
744.503403E-3
744.247627E-3
744.022751E-3
744.000435E-3
743.976974E-3
744.115448E-3
744.929123E-3
746.490669E-3
749.216652E-3
752.791786E-3
757.024956E-3
761.630058E-3
766.035461E-3
769.758797E-3
772.524261E-3
774.158478E-3
774.540710E-3
773.998260E-3
773.040390E-3
771.332932E-3
769.636917E-3
768.158913E-3
766.666603E-3
765.558815E-3
764.747429E-3
764.338303E-3
764.331436E-3
764.504242E-3
764.820671E-3
765.086174E-3
765.060997E-3
765.025520E-3
764.270782E-3
763.248253E-3
761.882401E-3
760.348320E-3
759.534645E-3
758.717537E-3
758.675766E-3
758.789635E-3
759.158707E-3
759.981537E-3
760.407829E-3
760.941696E-3
761.305618E-3
761.266708E-3
761.263847E-3
760.901070E-3
760.354042E-3
759.796143E-3
759.138107E-3
758.492661E-3
757.592010E-3
756.927109E-3
756.218719E-3
755.561256E-3
755.259132E-3
754.499817E-3
754.172516E-3
753.925896E-3
753.519058E-3
753.473282E-3
753.077316E-3
752.831841E-3
752.558327E-3
752.378654E-3
752.202988E-3
751.891136E-3
751.823044E-3
751.582146E-3
751.409912E-3
751.280022E-3
751.061440E-3
750.796509E-3
750.678062E-3
750.371933E-3
750.315857E-3
750.033188E-3
749.872398E-3
749.508476E-3
749.331665E-3
749.316788E-3
748.937988E-3
748.690224E-3
748.463058E-3
748.177528E-3
747.887421E-3
747.612762E-3
747.458839E-3
747.161293E-3
746.830559E-3
746.732140E-3
746.363068E-3
746.332169E-3
746.178246E-3
745.944786E-3
746.000862E-3
745.842934E-3
745.727348E-3
745.573997E-3
745.360565E-3
745.279312E-3
745.103073E-3
744.886780E-3
744.684792E-3
744.256783E-3
744.053650E-3
743.746948E-3
743.368149E-3
743.042564E-3
742.608261E-3
742.738152E-3
742.746735E-3
743.007088E-3
743.420792E-3
744.783211E-3
747.626495E-3
751.310349E-3
755.930901E-3
760.749435E-3
765.432930E-3
769.549942E-3
772.727394E-3
774.611664E-3
775.120926E-3
774.669456E-3
773.704720E-3
772.046471E-3
770.347023E-3
768.600082E-3
767.051125E-3
765.885544E-3
765.005493E-3
764.604950E-3
764.512253E-3
764.650726E-3
765.125656E-3
765.336800E-3
765.733337E-3
765.891838E-3
765.581131E-3
765.054131E-3
763.931465E-3
762.585068E-3
761.291885E-3
760.269928E-3
759.641647E-3
759.313202E-3
759.532356E-3
759.871674E-3
760.164642E-3
760.687065E-3
760.978889E-3
761.294174E-3
761.300468E-3
761.155701E-3
760.890770E-3
760.336876E-3
759.893990E-3
759.254265E-3
758.617401E-3
757.983398E-3
757.176018E-3
756.634140E-3
755.976105E-3
755.443954E-3
755.217361E-3
754.574776E-3
754.232025E-3
753.939629E-3
753.595734E-3
753.245544E-3
752.910233E-3
752.624130E-3
752.372932E-3
752.088547E-3
751.956940E-3
751.752090E-3
751.559258E-3
751.543808E-3
751.200485E-3
751.086617E-3
750.787354E-3
750.766754E-3
750.629997E-3
750.161934E-3
750.061226E-3
749.723053E-3
749.648094E-3
749.550247E-3
749.222374E-3
748.990631E-3
748.653030E-3
748.479652E-3
748.247337E-3
747.886848E-3
747.646523E-3
747.421646E-3
747.088051E-3
746.898079E-3
746.642303E-3
746.335030E-3
746.355057E-3
746.185112E-3
746.009445E-3
745.887566E-3
745.884705E-3
745.579720E-3
745.547104E-3
745.376015E-3
745.209503E-3
745.294189E-3
745.024109E-3
744.774055E-3
744.423294E-3
743.966675E-3
743.738365E-3
743.435097E-3
743.136406E-3
742.990494E-3
742.795372E-3
742.933846E-3
742.890358E-3
743.056297E-3
743.835640E-3
745.573425E-3
748.904228E-3
752.645874E-3
757.086754E-3
761.655235E-3
765.719032E-3
769.093895E-3
771.424484E-3
772.474480E-3
772.507668E-3
771.546936E-3
770.218277E-3
768.462181E-3
766.592216E-3
764.872169E-3
763.307190E-3
762.209129E-3
761.382294E-3
761.069870E-3
761.035538E-3
761.096764E-3
761.477852E-3
761.720467E-3
761.923599E-3
761.771965E-3
761.017799E-3
760.139465E-3
758.717537E-3
757.644081E-3
757.045555E-3
756.603813E-3
756.617546E-3
756.983757E-3
757.450104E-3
758.066940E-3
758.572769E-3
759.041405E-3
759.108353E-3
759.301758E-3
759.177589E-3
758.699799E-3
758.275795E-3
757.757950E-3
756.924248E-3
756.415558E-3
755.476570E-3
754.820824E-3
754.126167E-3
753.572273E-3
753.035545E-3
752.636719E-3
752.271652E-3
752.073097E-3
751.677704E-3
751.550674E-3
751.198769E-3
751.150131E-3
750.853729E-3
750.614548E-3
750.488091E-3
750.228882E-3
750.137901E-3
749.999428E-3
749.785423E-3
749.587440E-3
749.458694E-3
749.432373E-3
749.190331E-3
749.071884E-3
748.920822E-3
748.667908E-3
748.770905E-3
748.497391E-3
748.306847E-3
748.161507E-3
747.854805E-3
747.650528E-3
747.384453E-3
747.018242E-3
746.975899E-3
746.651459E-3
746.519279E-3
746.204567E-3
745.918465E-3
745.812035E-3
745.519638E-3
745.376587E-3
745.198631E-3
744.938278E-3
744.968605E-3
744.572067E-3
744.424438E-3
744.236755E-3
743.949509E-3
743.804741E-3
743.267441E-3
743.042564E-3
742.735291E-3
742.272377E-3
742.045784E-3
741.552544E-3
741.434097E-3
741.438103E-3
741.613770E-3
742.111588E-3
743.364143E-3
745.955658E-3
749.639511E-3
754.024887E-3
758.681488E-3
763.022804E-3
767.003632E-3
769.794273E-3
771.510887E-3
772.133446E-3
771.666527E-3
770.589066E-3
768.895912E-3
766.968155E-3
765.246964E-3
763.612747E-3
762.392807E-3
761.490440E-3
760.807800E-3
760.671043E-3
760.766602E-3
760.987473E-3
761.238670E-3
761.499596E-3
761.759377E-3
761.412048E-3
760.791206E-3
759.679413E-3
758.523560E-3
757.544518E-3
756.623268E-3
756.147766E-3
756.072235E-3
756.211281E-3
756.677628E-3
757.004929E-3
757.604027E-3
757.923317E-3
757.947350E-3
758.012581E-3
757.738495E-3
757.553673E-3
757.078171E-3
756.390953E-3
755.925179E-3
755.079460E-3
754.450035E-3
753.731918E-3
752.894211E-3
752.359772E-3
751.765823E-3
751.362419E-3
750.914383E-3
750.576782E-3
750.225449E-3
749.978256E-3
749.862671E-3
749.614334E-3
749.295044E-3
749.281883E-3
748.929405E-3
748.703957E-3
748.538017E-3
748.489380E-3
748.231316E-3
748.007584E-3
747.802734E-3
747.922897E-3
747.539520E-3
747.504044E-3
747.254562E-3
747.122955E-3
747.041130E-3
746.682358E-3
746.684074E-3
746.390533E-3
746.202850E-3
745.954514E-3
745.604897E-3
745.382309E-3
745.047569E-3
744.808960E-3
744.766045E-3
744.464493E-3
744.257927E-3
743.875122E-3
743.643951E-3
743.641663E-3
743.292046E-3
743.161583E-3
742.897797E-3
742.858315E-3
742.739296E-3
742.576790E-3
742.518425E-3
742.389679E-3
742.189407E-3
742.261505E-3
741.858673E-3
741.612625E-3
741.157722E-3
740.827560E-3
740.550041E-3
740.284538E-3
740.040207E-3
739.640808E-3
739.647675E-3
739.773560E-3
739.848518E-3
741.160011E-3
743.341827E-3
746.772766E-3
751.174164E-3
755.681419E-3
760.427284E-3
764.448738E-3
767.728043E-3
769.631195E-3
770.446587E-3
770.304108E-3
769.249535E-3
767.730904E-3
766.014290E-3
764.064217E-3
762.373352E-3
761.058998E-3
759.926605E-3
759.383011E-3
758.985329E-3
758.948135E-3
759.160995E-3
759.650230E-3
760.041046E-3
760.427856E-3
760.454750E-3
760.114288E-3
759.439087E-3
758.547020E-3
757.189751E-3
756.278229E-3
755.625916E-3
755.263138E-3
755.292892E-3
755.548096E-3
755.921745E-3
756.303978E-3
756.732559E-3
757.091331E-3
757.121086E-3
757.110786E-3
756.804085E-3
756.337166E-3
755.930901E-3
755.338669E-3
754.702377E-3
754.170799E-3
753.316498E-3
752.801514E-3
752.046204E-3
751.519203E-3
751.032257E-3
750.572777E-3
750.285530E-3
749.938202E-3
749.702454E-3
749.457550E-3
749.159431E-3
748.894501E-3
748.527718E-3
748.416138E-3
748.242187E-3
748.164940E-3
747.968102E-3
747.756386E-3
747.618484E-3
747.527504E-3
747.115517E-3
747.125244E-3
746.764183E-3
746.581078E-3
746.473503E-3
746.305275E-3
746.269226E-3
745.915031E-3
745.864677E-3
745.717049E-3
745.427513E-3
745.299911E-3
744.875336E-3
744.809532E-3
744.518280E-3
744.188690E-3
744.130325E-3
743.828201E-3
743.596458E-3
743.336678E-3
743.198204E-3
743.058586E-3
742.838860E-3
742.759895E-3
742.546463E-3
742.387962E-3
742.350769E-3
742.010880E-3
742.003441E-3
741.763687E-3
741.620064E-3
741.458130E-3
741.181755E-3
740.987778E-3
740.699387E-3
740.285110E-3
740.073967E-3
739.747238E-3
739.640236E-3
739.532089E-3
739.518929E-3
739.620781E-3
740.257072E-3
741.741371E-3
744.511414E-3
748.124313E-3
752.449608E-3
756.616974E-3
760.679054E-3
764.062500E-3
766.212845E-3
767.439079E-3
767.469978E-3
766.826248E-3
765.361977E-3
763.692284E-3
762.031746E-3
760.199547E-3
758.724976E-3
757.253838E-3
756.309128E-3
755.803299E-3
755.270576E-3
755.463982E-3
755.495453E-3
755.732918E-3
755.905151E-3
755.721474E-3
755.426788E-3
754.493523E-3
753.583717E-3
752.671623E-3
751.948357E-3
751.982689E-3
752.216148E-3
752.473640E-3
753.111649E-3
753.680420E-3
754.256630E-3
754.851151E-3
755.150414E-3
755.253410E-3
755.037689E-3
754.808807E-3
754.474640E-3
753.852081E-3
753.341675E-3
752.598953E-3
752.034760E-3
751.206207E-3
750.472641E-3
750.131035E-3
749.419785E-3
749.115372E-3
748.699951E-3
748.281097E-3
748.167229E-3
747.809601E-3
747.725487E-3
747.417641E-3
747.119522E-3
747.037125E-3
746.787643E-3
746.756744E-3
746.589661E-3
746.430016E-3
746.365356E-3
746.131897E-3
746.144485E-3
745.853233E-3
745.663261E-3
745.660973E-3
745.341110E-3
745.271301E-3
745.218658E-3
745.006371E-3
744.920540E-3
744.713974E-3
744.689941E-3
744.519424E-3
744.227028E-3
744.176674E-3
743.925476E-3
743.660545E-3
743.663406E-3
743.345261E-3
743.126678E-3
742.925835E-3
742.727280E-3
742.592239E-3
742.398834E-3
742.287254E-3
741.989708E-3
741.918182E-3
741.769409E-3
741.382027E-3
741.190910E-3
740.812111E-3
740.569496E-3
740.173531E-3
739.721489E-3
739.625359E-3
739.320946E-3
739.132118E-3
739.121246E-3
739.181900E-3
739.856529E-3
741.419220E-3
744.053078E-3
747.732353E-3
752.072525E-3
756.724548E-3
760.773468E-3
764.325714E-3
766.844559E-3
767.988396E-3
768.418121E-3
767.694283E-3
766.593933E-3
765.040398E-3
763.094902E-3
761.446381E-3
759.728622E-3
758.434296E-3
757.420921E-3
756.736565E-3
756.448174E-3
756.276512E-3
756.475067E-3
756.826401E-3
756.971741E-3
757.297325E-3
756.867599E-3
756.336021E-3
755.465698E-3
754.474068E-3
753.763962E-3
753.222656E-3
752.994919E-3
753.050995E-3
753.293610E-3
753.850365E-3
754.423141E-3
754.840279E-3
755.389023E-3
755.340958E-3
755.542946E-3
755.318642E-3
754.967880E-3
754.581070E-3
753.989410E-3
753.512192E-3
752.644730E-3
752.011299E-3
751.447678E-3
750.634003E-3
750.161934E-3
749.493027E-3
749.143410E-3
748.645020E-3
748.292542E-3
748.031616E-3
747.751808E-3
747.569275E-3
747.389030E-3
747.153854E-3
