Notes :


2023-11-10 ¿ÀÈÄ 10:04:23
Volts
Ch : LED 2,
308.835983E-3
308.790207E-3
308.684921E-3
308.546448E-3
308.346748E-3
308.220863E-3
307.965660E-3
308.050919E-3
307.911301E-3
307.905579E-3
307.884407E-3
307.929039E-3
308.495522E-3
309.518623E-3
311.179161E-3
313.138962E-3
315.294456E-3
317.538071E-3
319.630051E-3
321.247673E-3
322.199821E-3
322.471619E-3
322.311974E-3
321.494865E-3
320.494652E-3
319.350243E-3
318.279648E-3
317.329216E-3
316.478348E-3
315.769386E-3
315.313911E-3
314.942551E-3
314.797211E-3
314.692497E-3
314.927101E-3
314.804649E-3
314.745712E-3
314.608955E-3
314.321709E-3
313.887978E-3
313.349533E-3
312.927818E-3
312.845993E-3
312.834549E-3
312.835693E-3
313.002205E-3
313.238525E-3
313.550949E-3
313.660812E-3
313.779259E-3
313.764954E-3
313.728905E-3
313.453674E-3
313.372421E-3
313.229370E-3
313.031387E-3
312.664604E-3
312.518692E-3
312.114716E-3
311.754799E-3
311.496162E-3
311.344528E-3
311.067581E-3
310.775185E-3
310.633850E-3
310.486221E-3
310.270500E-3
310.342598E-3
310.171509E-3
310.043335E-3
309.998703E-3
309.838486E-3
309.826469E-3
309.642792E-3
309.625626E-3
309.523773E-3
309.407616E-3
309.550667E-3
309.364128E-3
309.445381E-3
309.373283E-3
309.195328E-3
309.280014E-3
309.218216E-3
309.138107E-3
309.169579E-3
309.111214E-3
309.154129E-3
309.057999E-3
308.938408E-3
308.914948E-3
308.795357E-3
308.794785E-3
308.662605E-3
308.711243E-3
308.845711E-3
308.635139E-3
308.726120E-3
308.484650E-3
308.477211E-3
308.430862E-3
308.281517E-3
308.326721E-3
308.172226E-3
308.267784E-3
307.986832E-3
307.798576E-3
307.740784E-3
307.519913E-3
307.564545E-3
307.589722E-3
307.786560E-3
308.440590E-3
309.428787E-3
310.960007E-3
312.926674E-3
315.062141E-3
317.436790E-3
319.636345E-3
321.578979E-3
322.778320E-3
323.337364E-3
323.093033E-3
322.659302E-3
321.768379E-3
320.795631E-3
319.688988E-3
318.840981E-3
317.947769E-3
317.278290E-3
316.823387E-3
316.504669E-3
316.437149E-3
316.330147E-3
316.428566E-3
316.516113E-3
316.599083E-3
316.757011E-3
316.560173E-3
316.157913E-3
315.618896E-3
315.246964E-3
314.798927E-3
314.536858E-3
314.365196E-3
314.293098E-3
314.380074E-3
314.547729E-3
314.731407E-3
315.070152E-3
315.144539E-3
315.090752E-3
315.093040E-3
315.050697E-3
314.925957E-3
314.797783E-3
314.702797E-3
314.491081E-3
314.060783E-3
313.766670E-3
313.552094E-3
313.158417E-3
312.907791E-3
312.523842E-3
312.421989E-3
312.196541E-3
311.999702E-3
311.994553E-3
311.844063E-3
311.663246E-3
311.583710E-3
311.375999E-3
311.398315E-3
311.342239E-3
311.331940E-3
311.143112E-3
310.857010E-3
310.882759E-3
310.825539E-3
310.798645E-3
310.752869E-3
310.668755E-3
310.658455E-3
310.328293E-3
310.438156E-3
310.490227E-3
310.420990E-3
310.400391E-3
310.236740E-3
310.252762E-3
310.232735E-3
310.085678E-3
309.997559E-3
309.964371E-3
309.888268E-3
309.902000E-3
309.752083E-3
309.713173E-3
309.696007E-3
309.689713E-3
309.635353E-3
309.717178E-3
309.562683E-3
309.455681E-3
309.364700E-3
309.377861E-3
309.153557E-3
309.098053E-3
308.999634E-3
308.819389E-3
308.754730E-3
308.553886E-3
308.541298E-3
308.470917E-3
308.483505E-3
308.592224E-3
308.862877E-3
309.677124E-3
311.134529E-3
313.084602E-3
315.291595E-3
317.565536E-3
319.905853E-3
321.790123E-3
323.150253E-3
324.041748E-3
324.064636E-3
323.637772E-3
322.716522E-3
321.645927E-3
320.538139E-3
319.398308E-3
318.594933E-3
317.848206E-3
317.372131E-3
317.281723E-3
316.897774E-3
316.812515E-3
316.832542E-3
316.955566E-3
317.069435E-3
317.130089E-3
317.083168E-3
316.690636E-3
315.971947E-3
315.746498E-3
315.242958E-3
314.947128E-3
314.747429E-3
314.634705E-3
314.775467E-3
314.790916E-3
314.936829E-3
314.888763E-3
315.074730E-3
315.275002E-3
315.248680E-3
315.289879E-3
315.159416E-3
315.013504E-3
314.859009E-3
314.516830E-3
314.096260E-3
313.904572E-3
313.676834E-3
313.383865E-3
312.983322E-3
312.730408E-3
312.404251E-3
312.174225E-3
311.943054E-3
311.697578E-3
311.691856E-3
311.561966E-3
311.433792E-3
311.316490E-3
311.096764E-3
310.980034E-3
310.670471E-3
310.680771E-3
310.624695E-3
310.474205E-3
310.413551E-3
310.367775E-3
310.305405E-3
310.336304E-3
310.188103E-3
310.150337E-3
310.063362E-3
309.936333E-3
309.938622E-3
309.730911E-3
309.702301E-3
309.650803E-3
309.575272E-3
309.577560E-3
309.534645E-3
309.411049E-3
309.236526E-3
309.051704E-3
309.014511E-3
308.922958E-3
308.785629E-3
308.769608E-3
308.564758E-3
308.657455E-3
308.532143E-3
308.539009E-3
308.427429E-3
308.349609E-3
308.300972E-3
308.166504E-3
308.149338E-3
307.919884E-3
307.925034E-3
307.637787E-3
307.437515E-3
307.364273E-3
307.233810E-3
307.200623E-3
307.122231E-3
306.991196E-3
307.261848E-3
307.748795E-3
308.659744E-3
310.237312E-3
312.020874E-3
314.187241E-3
316.237450E-3
318.161774E-3
319.596291E-3
320.574760E-3
320.930672E-3
320.534134E-3
319.723320E-3
318.743134E-3
317.517471E-3
316.461182E-3
315.464401E-3
314.491081E-3
313.959503E-3
313.530350E-3
313.264847E-3
313.054276E-3
313.027382E-3
313.098335E-3
313.088036E-3
313.066292E-3
312.935257E-3
312.694931E-3
312.327003E-3
311.870384E-3
311.539650E-3
311.375427E-3
311.255836E-3
311.290741E-3
311.338234E-3
311.271286E-3
311.707306E-3
311.823463E-3
312.088966E-3
312.089539E-3
312.148476E-3
312.067795E-3
311.852074E-3
311.770821E-3
311.252403E-3
311.198044E-3
310.790634E-3
310.530281E-3
310.279083E-3
309.833908E-3
309.557533E-3
309.452248E-3
309.225655E-3
309.265709E-3
308.916092E-3
308.808517E-3
308.682060E-3
308.413696E-3
308.429146E-3
308.109856E-3
307.963371E-3
307.923889E-3
307.731628E-3
307.757950E-3
307.685280E-3
307.725906E-3
307.673836E-3
307.514763E-3
307.521057E-3
307.402611E-3
307.347679E-3
307.530785E-3
307.265854E-3
307.327080E-3
307.236671E-3
307.211494E-3
307.101059E-3
307.014656E-3
307.142830E-3
306.888199E-3
306.837273E-3
306.781197E-3
306.675911E-3
306.601524E-3
306.525421E-3
306.538582E-3
306.621552E-3
306.414413E-3
306.483078E-3
306.298828E-3
306.274796E-3
306.196976E-3
306.072235E-3
305.943489E-3
305.684853E-3
305.551529E-3
305.696869E-3
305.490303E-3
305.545807E-3
305.532074E-3
305.719185E-3
306.256485E-3
307.067871E-3
308.462906E-3
310.145760E-3
312.229729E-3
314.182663E-3
315.950775E-3
317.786407E-3
318.883324E-3
319.309044E-3
319.231224E-3
318.520546E-3
317.682266E-3
316.422272E-3
315.539932E-3
314.584923E-3
313.698578E-3
313.129234E-3
312.716103E-3
312.492943E-3
312.586212E-3
312.480354E-3
312.388802E-3
312.449455E-3
312.584496E-3
312.655449E-3
312.452888E-3
312.070084E-3
311.596870E-3
311.104202E-3
310.915375E-3
310.771179E-3
310.809517E-3
310.869026E-3
311.020088E-3
311.198616E-3
311.255836E-3
311.487579E-3
311.495018E-3
311.543083E-3
311.226654E-3
311.224937E-3
311.364555E-3
311.195755E-3
311.125946E-3
310.935402E-3
310.617256E-3
310.308838E-3
309.948921E-3
309.633636E-3
309.401321E-3
309.090042E-3
308.908653E-3
308.734703E-3
308.668327E-3
308.763885E-3
308.718109E-3
308.568764E-3
308.426857E-3
308.227158E-3
308.199120E-3
307.966805E-3
307.913017E-3
307.749367E-3
307.671547E-3
307.533646E-3
307.611465E-3
307.803726E-3
307.802010E-3
307.637787E-3
307.637787E-3
307.547379E-3
307.502747E-3
307.350540E-3
307.249832E-3
307.254410E-3
307.149696E-3
307.118797E-3
307.079887E-3
307.074738E-3
307.171440E-3
307.035828E-3
307.036972E-3
307.022667E-3
306.848717E-3
306.864738E-3
306.664467E-3
306.600380E-3
306.461334E-3
306.422997E-3
306.532288E-3
306.513405E-3
306.753731E-3
306.539726E-3
306.285667E-3
306.172943E-3
305.916023E-3
305.787277E-3
305.690002E-3
305.529213E-3
305.584145E-3
305.692291E-3
306.342316E-3
307.455826E-3
308.988762E-3
310.934258E-3
312.923241E-3
315.141678E-3
317.106056E-3
318.640709E-3
319.584274E-3
319.926453E-3
319.769669E-3
319.144249E-3
318.314552E-3
317.374420E-3
316.446877E-3
315.593147E-3
314.805794E-3
314.408684E-3
313.902283E-3
313.473701E-3
313.402748E-3
313.323784E-3
313.378716E-3
313.483429E-3
313.552666E-3
313.801575E-3
313.472557E-3
313.242531E-3
312.845993E-3
312.336731E-3
311.881828E-3
311.615181E-3
311.392021E-3
311.191750E-3
311.145401E-3
311.285591E-3
311.467552E-3
311.751366E-3
311.901855E-3
311.987686E-3
312.059212E-3
311.987686E-3
311.964798E-3
311.713600E-3
311.317062E-3
311.090469E-3
310.723686E-3
310.407829E-3
310.126305E-3
309.821892E-3
309.755516E-3
309.670830E-3
309.392738E-3
309.193611E-3
308.970451E-3
308.774185E-3
308.665466E-3
308.435440E-3
308.325005E-3
308.091545E-3
308.109856E-3
307.854652E-3
307.835770E-3
307.874680E-3
307.704735E-3
307.766533E-3
307.681274E-3
307.539940E-3
307.532501E-3
307.119370E-3
307.210922E-3
307.200050E-3
307.250404E-3
307.204056E-3
307.173729E-3
307.202339E-3
307.236671E-3
307.081032E-3
307.317924E-3
306.960297E-3
306.841278E-3
306.710815E-3
306.610107E-3
306.532860E-3
306.451607E-3
306.431007E-3
306.344604E-3
306.207275E-3
306.344032E-3
306.210709E-3
306.122589E-3
306.059074E-3
305.860519E-3
305.749512E-3
305.398178E-3
305.362129E-3
304.908943E-3
304.950142E-3
305.015373E-3
304.956436E-3
305.021667E-3
305.182457E-3
305.675125E-3
306.871033E-3
308.239174E-3
310.115433E-3
312.058067E-3
313.997841E-3
315.755081E-3
316.922951E-3
317.674828E-3
317.702866E-3
317.116356E-3
316.330719E-3
315.404892E-3
314.447594E-3
313.437653E-3
312.538147E-3
311.968231E-3
311.347961E-3
311.046982E-3
310.814095E-3
310.782051E-3
310.864449E-3
310.882759E-3
310.954857E-3
310.956001E-3
310.720253E-3
310.426140E-3
309.877968E-3
309.211922E-3
309.104919E-3
308.950996E-3
309.039688E-3
309.068298E-3
309.229660E-3
309.321785E-3
309.480286E-3
309.697151E-3
309.848785E-3
309.820747E-3
309.686279E-3
309.456253E-3
309.472275E-3
309.283447E-3
309.130669E-3
308.852005E-3
308.493233E-3
308.375359E-3
307.997704E-3
307.620621E-3
307.418633E-3
307.056427E-3
306.992912E-3
306.855011E-3
306.763458E-3
306.669617E-3
306.432724E-3
306.491661E-3
306.329155E-3
306.227303E-3
306.112862E-3
305.945778E-3
305.811882E-3
305.699158E-3
305.606461E-3
305.550385E-3
305.486870E-3
305.531502E-3
305.590439E-3
305.480576E-3
305.450821E-3
305.358124E-3
305.358124E-3
305.246544E-3
304.899788E-3
304.957008E-3
304.892921E-3
304.963303E-3
304.896355E-3
304.948425E-3
305.035400E-3
304.876328E-3
304.900932E-3
304.721260E-3
304.687500E-3
304.647446E-3
304.520988E-3
304.444313E-3
304.291534E-3
304.157066E-3
304.118729E-3
304.018021E-3
304.007721E-3
303.834915E-3
303.825188E-3
303.807449E-3
303.774261E-3
304.114723E-3
304.720116E-3
305.918884E-3
307.390594E-3
309.261131E-3
311.305046E-3
313.164139E-3
314.814377E-3
316.160774E-3
316.821671E-3
317.029381E-3
316.292381E-3
315.685272E-3
314.885902E-3
313.957787E-3
313.153267E-3
312.387085E-3
311.755371E-3
311.301041E-3
310.888481E-3
310.822105E-3
310.855865E-3
310.910797E-3
311.028671E-3
311.005211E-3
311.050987E-3
310.845566E-3
310.568619E-3
310.085106E-3
309.666824E-3
309.313202E-3
309.123230E-3
309.052277E-3
309.245682E-3
309.312057E-3
309.629059E-3
309.778404E-3
309.961510E-3
310.362053E-3
310.312271E-3
310.292816E-3
310.139465E-3
309.974098E-3
309.857941E-3
309.561539E-3
309.312630E-3
309.003067E-3
308.512688E-3
308.464050E-3
308.206558E-3
308.008003E-3
307.759094E-3
307.661247E-3
307.540512E-3
307.345390E-3
307.320213E-3
307.074738E-3
307.030678E-3
306.984329E-3
306.911087E-3
306.864166E-3
306.697655E-3
306.714821E-3
306.841850E-3
306.733704E-3
306.768608E-3
306.690788E-3
306.623840E-3
306.578064E-3
306.456184E-3
306.444168E-3
306.345177E-3
306.390381E-3
306.436157E-3
306.364059E-3
306.418991E-3
306.293106E-3
306.329155E-3
306.355476E-3
306.142616E-3
306.210136E-3
306.154060E-3
306.097984E-3
306.054497E-3
305.890846E-3
305.952644E-3
305.881119E-3
305.917168E-3
305.945206E-3
305.787277E-3
305.801582E-3
305.597878E-3
305.439949E-3
305.311775E-3
305.077171E-3
304.997063E-3
304.868317E-3
304.870033E-3
304.962158E-3
304.969597E-3
305.336952E-3
305.847359E-3
306.845856E-3
308.472061E-3
310.340309E-3
312.567329E-3
314.814377E-3
316.825104E-3
318.298531E-3
319.448090E-3
320.070076E-3
319.872665E-3
319.333649E-3
318.545723E-3
317.400742E-3
316.433144E-3
315.489578E-3
314.633560E-3
314.187241E-3
313.758087E-3
313.731766E-3
313.822174E-3
313.889694E-3
314.108276E-3
314.256477E-3
314.462471E-3
314.467049E-3
314.099693E-3
313.648796E-3
313.085747E-3
312.494087E-3
311.911583E-3
311.482430E-3
311.211205E-3
311.153984E-3
311.258125E-3
311.434937E-3
311.602020E-3
311.874390E-3
311.891556E-3
311.928177E-3
311.848068E-3
311.341667E-3
311.342239E-3
311.080742E-3
310.907936E-3
310.634995E-3
310.298538E-3
310.122299E-3
309.745789E-3
309.558105E-3
309.382439E-3
309.063148E-3
308.900070E-3
308.544731E-3
308.386803E-3
308.179665E-3
308.096123E-3
307.950211E-3
307.752800E-3
307.689285E-3
307.583427E-3
307.481003E-3
307.527924E-3
307.379150E-3
307.339096E-3
307.184601E-3
307.091331E-3
306.988907E-3
306.976891E-3
306.812668E-3
306.698799E-3
306.585503E-3
306.707382E-3
306.582069E-3
306.605530E-3
306.637001E-3
306.493950E-3
306.159782E-3
306.200409E-3
306.204987E-3
305.976677E-3
305.902863E-3
305.892563E-3
305.833626E-3
305.795860E-3
305.690575E-3
305.679131E-3
305.628777E-3
305.443382E-3
305.419922E-3
305.274582E-3
305.146408E-3
305.092049E-3
304.999352E-3
304.964447E-3
305.086899E-3
304.883194E-3
304.678345E-3
304.513550E-3
304.354477E-3
304.224586E-3
304.042053E-3
304.101562E-3
304.082108E-3
304.245186E-3
304.753304E-3
305.671120E-3
307.137108E-3
308.964729E-3
311.158562E-3
313.372993E-3
315.178871E-3
317.143822E-3
318.171501E-3
318.727684E-3
318.577194E-3
317.893410E-3
317.015076E-3
315.963936E-3
315.028381E-3
313.910294E-3
313.217926E-3
312.714958E-3
312.251472E-3
312.087250E-3
311.928177E-3
311.892700E-3
312.083244E-3
312.147331E-3
312.527275E-3
312.413406E-3
312.157631E-3
311.687279E-3
311.074448E-3
310.516548E-3
309.974098E-3
309.676552E-3
309.653664E-3
309.710884E-3
309.785843E-3
309.979248E-3
310.239029E-3
310.558891E-3
310.712242E-3
310.604095E-3
310.560036E-3
310.233879E-3
310.120010E-3
309.766388E-3
309.551239E-3
309.260559E-3
308.881760E-3
308.613968E-3
308.310699E-3
308.119011E-3
307.855797E-3
307.505035E-3
307.486153E-3
307.212639E-3
307.081604E-3
306.913376E-3
306.621552E-3
306.556320E-3
306.427574E-3
306.371498E-3
306.336594E-3
306.150055E-3
306.156349E-3
306.026459E-3
305.972672E-3
305.912590E-3
305.713463E-3
305.709457E-3
305.514908E-3
305.470848E-3
305.361557E-3
305.331230E-3
305.386734E-3
305.242538E-3
305.194473E-3
305.248260E-3
305.039406E-3
304.994774E-3
304.803085E-3
304.736137E-3
304.743576E-3
304.619980E-3
304.599953E-3
304.515266E-3
304.459763E-3
304.512405E-3
304.296684E-3
304.244041E-3
304.083824E-3
303.969955E-3
303.988266E-3
303.866386E-3
303.694153E-3
303.574562E-3
303.630066E-3
