Notes :


2023-10-24 ¿ÀÈÄ 10:00:58
Volts
Ch : LED 2,
208.871269E-3
209.956169E-3
209.341049E-3
209.200859E-3
209.803391E-3
208.431244E-3
210.202789E-3
209.541321E-3
209.426308E-3
209.857750E-3
209.410286E-3
210.591316E-3
209.884644E-3
210.083771E-3
210.464859E-3
210.040855E-3
211.449623E-3
211.216164E-3
210.871124E-3
211.602974E-3
211.038208E-3
211.818695E-3
210.896301E-3
210.046005E-3
209.361649E-3
207.391548E-3
207.086563E-3
204.869843E-3
203.330612E-3
203.342628E-3
201.859474E-3
202.421379E-3
201.508141E-3
201.811981E-3
202.773857E-3
202.149010E-3
203.569794E-3
203.281975E-3
203.208160E-3
204.078484E-3
203.059959E-3
204.608917E-3
203.898239E-3
203.695679E-3
204.308510E-3
203.453064E-3
204.469872E-3
203.879356E-3
203.726006E-3
204.677010E-3
204.397202E-3
205.974770E-3
205.586815E-3
205.430031E-3
206.346703E-3
205.545616E-3
206.390190E-3
205.884361E-3
205.296135E-3
205.984497E-3
204.942513E-3
206.034851E-3
205.514717E-3
205.294991E-3
206.239128E-3
205.091858E-3
206.644249E-3
206.362152E-3
206.079483E-3
206.483459E-3
205.130196E-3
206.863403E-3
206.526375E-3
206.586456E-3
207.554054E-3
206.771851E-3
208.096504E-3
207.547188E-3
207.207870E-3
207.996941E-3
207.248497E-3
208.321953E-3
207.905960E-3
207.640457E-3
208.820343E-3
207.544899E-3
208.786583E-3
208.554840E-3
208.400917E-3
209.326172E-3
208.034706E-3
209.180260E-3
208.695030E-3
208.382607E-3
209.463501E-3
208.301353E-3
209.574509E-3
208.848953E-3
208.616638E-3
209.598541E-3
207.928848E-3
209.472084E-3
209.219170E-3
209.001160E-3
209.774780E-3
208.732224E-3
210.075760E-3
209.632301E-3
209.562492E-3
210.369301E-3
209.349060E-3
210.472298E-3
210.310364E-3
210.017395E-3
211.150360E-3
209.246063E-3
210.908890E-3
210.614204E-3
209.845161E-3
209.695244E-3
206.980705E-3
206.750107E-3
204.645538E-3
203.268242E-3
203.180695E-3
201.282692E-3
202.187920E-3
201.840591E-3
201.882362E-3
202.963257E-3
202.020836E-3
203.343773E-3
203.344345E-3
202.995300E-3
204.170036E-3
203.088570E-3
204.518509E-3
203.956604E-3
203.507423E-3
204.543686E-3
202.612495E-3
204.302788E-3
203.717995E-3
203.881645E-3
204.928207E-3
204.416656E-3
205.920982E-3
205.672073E-3
205.563354E-3
206.125832E-3
205.149078E-3
206.366158E-3
205.927277E-3
205.509567E-3
205.919838E-3
204.537964E-3
205.818558E-3
205.482674E-3
205.199432E-3
205.815697E-3
204.891014E-3
206.374168E-3
206.175041E-3
206.029129E-3
206.767845E-3
205.733299E-3
206.859398E-3
206.889725E-3
206.244850E-3
207.382393E-3
206.405067E-3
207.618713E-3
207.643318E-3
207.084846E-3
208.123398E-3
207.068825E-3
207.994652E-3
208.042145E-3
207.880783E-3
208.200645E-3
207.443047E-3
208.626366E-3
208.588600E-3
208.030128E-3
208.951378E-3
207.869911E-3
208.965683E-3
208.750534E-3
208.256149E-3
209.160233E-3
208.286476E-3
209.556198E-3
209.375381E-3
208.552551E-3
209.321022E-3
208.479309E-3
209.353065E-3
209.255219E-3
208.660698E-3
209.396553E-3
208.236122E-3
209.680367E-3
209.549904E-3
209.159088E-3
209.986496E-3
208.824348E-3
210.473442E-3
210.316658E-3
209.956169E-3
210.621071E-3
209.551048E-3
211.133766E-3
210.956955E-3
210.053444E-3
210.409355E-3
208.056450E-3
208.436966E-3
206.941795E-3
204.922485E-3
203.725433E-3
201.496696E-3
202.213669E-3
201.583672E-3
200.769424E-3
201.372528E-3
200.594330E-3
202.228546E-3
202.256584E-3
201.924706E-3
202.654266E-3
201.916122E-3
203.302574E-3
203.082848E-3
202.665138E-3
203.098297E-3
201.996803E-3
203.253365E-3
202.915192E-3
202.171326E-3
203.350639E-3
202.489471E-3
204.032707E-3
204.167175E-3
203.870773E-3
204.745674E-3
204.002953E-3
205.419731E-3
205.385399E-3
204.398346E-3
204.998589E-3
203.736877E-3
205.156517E-3
205.054092E-3
204.210663E-3
204.880142E-3
203.827286E-3
205.221748E-3
205.254364E-3
204.437256E-3
205.421448E-3
204.478455E-3
205.645180E-3
205.530739E-3
204.969978E-3
206.147575E-3
205.188560E-3
206.694031E-3
206.537819E-3
205.810547E-3
206.751251E-3
205.590820E-3
207.223320E-3
207.066536E-3
206.311798E-3
207.153511E-3
206.262016E-3
207.676506E-3
207.657051E-3
206.658554E-3
207.488251E-3
206.609344E-3
208.211517E-3
208.231544E-3
207.249069E-3
207.943726E-3
206.952095E-3
208.367157E-3
208.364868E-3
207.446480E-3
208.359718E-3
207.299423E-3
208.657265E-3
208.787155E-3
207.948875E-3
208.656120E-3
207.650757E-3
208.632088E-3
208.851814E-3
207.685661E-3
208.634377E-3
207.765198E-3
209.227753E-3
209.187126E-3
208.473015E-3
209.412003E-3
208.794022E-3
210.052299E-3
210.167885E-3
209.099579E-3
209.964752E-3
209.290695E-3
210.276031E-3
210.182762E-3
208.553696E-3
208.039856E-3
206.252289E-3
206.045151E-3
204.475594E-3
202.519798E-3
202.304649E-3
201.046944E-3
201.691818E-3
201.525879E-3
200.896454E-3
201.858902E-3
201.186562E-3
202.217102E-3
202.639389E-3
202.099800E-3
203.168678E-3
202.408791E-3
203.331184E-3
203.193855E-3
202.426529E-3
203.140068E-3
202.345276E-3
203.052521E-3
203.528023E-3
202.769852E-3
203.827286E-3
203.574371E-3
204.763985E-3
205.112457E-3
204.638100E-3
205.212021E-3
204.336548E-3
205.217743E-3
205.279541E-3
204.313087E-3
204.881287E-3
204.124832E-3
205.034065E-3
204.840660E-3
204.486465E-3
205.209732E-3
204.309654E-3
205.236626E-3
205.499840E-3
204.856682E-3
205.827141E-3
205.147362E-3
205.932426E-3
205.974770E-3
205.635452E-3
205.825424E-3
205.412292E-3
206.515503E-3
206.640244E-3
205.975342E-3
206.948662E-3
206.256294E-3
207.101440E-3
207.306862E-3
206.410217E-3
207.435608E-3
206.545830E-3
207.657051E-3
207.515717E-3
206.699181E-3
207.522583E-3
206.937218E-3
207.885361E-3
207.989502E-3
207.043076E-3
207.573509E-3
207.102013E-3
208.136559E-3
207.913971E-3
207.121468E-3
208.188057E-3
207.254791E-3
207.982635E-3
208.036423E-3
206.859398E-3
207.744026E-3
207.333183E-3
208.550835E-3
208.601761E-3
207.938576E-3
208.926773E-3
208.383751E-3
209.398270E-3
209.443474E-3
208.785439E-3
209.634018E-3
208.604622E-3
209.533310E-3
209.115601E-3
207.726860E-3
207.530594E-3
205.392838E-3
204.758263E-3
203.342628E-3
201.704407E-3
201.662064E-3
200.224686E-3
200.937080E-3
201.157379E-3
200.617218E-3
201.582527E-3
200.992012E-3
202.256012E-3
202.630806E-3
202.077484E-3
203.142357E-3
202.337837E-3
202.943230E-3
203.217888E-3
202.222252E-3
202.894020E-3
202.129555E-3
202.936935E-3
203.764915E-3
203.010178E-3
203.588104E-3
203.161812E-3
204.612923E-3
204.683304E-3
204.089355E-3
204.983711E-3
204.212952E-3
204.798889E-3
205.009460E-3
203.941727E-3
204.203224E-3
203.498268E-3
204.567146E-3
204.719353E-3
203.997231E-3
204.715919E-3
203.861046E-3
204.921913E-3
205.600548E-3
204.442406E-3
205.403137E-3
205.000305E-3
205.872345E-3
206.227112E-3
205.735588E-3
206.312370E-3
205.276680E-3
206.347847E-3
206.524658E-3
205.877495E-3
206.655693E-3
205.665207E-3
206.732368E-3
207.156944E-3
206.549835E-3
207.332039E-3
206.387901E-3
207.388687E-3
207.190704E-3
206.630516E-3
207.646751E-3
206.707764E-3
208.019257E-3
207.681656E-3
207.132912E-3
207.910538E-3
206.957245E-3
207.853317E-3
207.912827E-3
206.648827E-3
208.121109E-3
207.317162E-3
208.182335E-3
208.299637E-3
207.790947E-3
208.489037E-3
207.525444E-3
208.682442E-3
208.886147E-3
208.236122E-3
209.195709E-3
208.188057E-3
209.107018E-3
209.130478E-3
208.675003E-3
209.707832E-3
208.730507E-3
209.694672E-3
209.818840E-3
209.189987E-3
209.412003E-3
207.686806E-3
207.243919E-3
205.989647E-3
203.881073E-3
203.327751E-3
201.169395E-3
201.148796E-3
200.650406E-3
199.946594E-3
200.807190E-3
200.259018E-3
201.231766E-3
201.712418E-3
201.355362E-3
202.070618E-3
201.248360E-3
202.321815E-3
202.547836E-3
201.647758E-3
202.580452E-3
201.552200E-3
202.297783E-3
202.260590E-3
201.603699E-3
202.654266E-3
202.076340E-3
203.304291E-3
203.653336E-3
203.375244E-3
204.647827E-3
203.694534E-3
204.512787E-3
204.599762E-3
203.814125E-3
205.080986E-3
204.114532E-3
204.660416E-3
204.647255E-3
203.731155E-3
204.586029E-3
203.597832E-3
204.404640E-3
204.951668E-3
204.039574E-3
205.272675E-3
204.393196E-3
205.348778E-3
205.558777E-3
204.753113E-3
205.698395E-3
204.872131E-3
205.863762E-3
205.991364E-3
205.472374E-3
206.118965E-3
205.526161E-3
206.769562E-3
206.807899E-3
206.120110E-3
206.828499E-3
206.117249E-3
206.805038E-3
207.158661E-3
206.530380E-3
207.649040E-3
206.672287E-3
207.405853E-3
207.287407E-3
206.613922E-3
207.560921E-3
206.714058E-3
207.984352E-3
207.924271E-3
207.229614E-3
208.148575E-3
207.068825E-3
207.958031E-3
208.078194E-3
206.619644E-3
207.939148E-3
207.560921E-3
208.070755E-3
208.300781E-3
207.727432E-3
208.593750E-3
207.903671E-3
208.583450E-3
208.606339E-3
208.275032E-3
209.285545E-3
208.497047E-3
209.294701E-3
210.010529E-3
209.245491E-3
209.938431E-3
208.916473E-3
209.683228E-3
209.962463E-3
208.479309E-3
208.589745E-3
206.398201E-3
205.694389E-3
204.489899E-3
202.461433E-3
202.504349E-3
200.590897E-3
201.115036E-3
201.589394E-3
200.937080E-3
201.896095E-3
201.442909E-3
202.610779E-3
202.916336E-3
202.132416E-3
202.716637E-3
202.394485E-3
203.418159E-3
203.598976E-3
201.858330E-3
203.243065E-3
202.258873E-3
203.116035E-3
203.291130E-3
202.883720E-3
204.016113E-3
203.359795E-3
204.552841E-3
205.038643E-3
204.483604E-3
205.430603E-3
204.850388E-3
205.241203E-3
205.216026E-3
204.358292E-3
205.093575E-3
204.056168E-3
204.803467E-3
204.790878E-3
203.037071E-3
204.678726E-3
204.170609E-3
205.346489E-3
205.520439E-3
204.913902E-3
205.683517E-3
205.038643E-3
205.865479E-3
206.108093E-3
205.404854E-3
206.252861E-3
205.533028E-3
206.678581E-3
206.790161E-3
205.884361E-3
206.883430E-3
205.947304E-3
207.020187E-3
207.111168E-3
206.474304E-3
207.423592E-3
206.613350E-3
207.641602E-3
207.820702E-3
206.985855E-3
207.977486E-3
206.984138E-3
207.562637E-3
207.913971E-3
207.115173E-3
208.090210E-3
207.276535E-3
208.284760E-3
208.232689E-3
207.485390E-3
208.446693E-3
207.366943E-3
207.934570E-3
208.297348E-3
207.441902E-3
208.285332E-3
207.733727E-3
208.331108E-3
208.743095E-3
207.049942E-3
207.908821E-3
208.056450E-3
209.336472E-3
209.456062E-3
208.761406E-3
209.573936E-3
208.966827E-3
209.609985E-3
209.991646E-3
208.594322E-3
208.705902E-3
207.282829E-3
206.751251E-3
205.413437E-3
203.089714E-3
202.631950E-3
201.058388E-3
201.318741E-3
201.249504E-3
200.238991E-3
201.282120E-3
200.861549E-3
201.903534E-3
202.488327E-3
201.909828E-3
202.857399E-3
202.394485E-3
203.038216E-3
203.185844E-3
202.504921E-3
203.441048E-3
202.482033E-3
202.806473E-3
203.157806E-3
202.351570E-3
203.849030E-3
203.437042E-3
204.100227E-3
204.828072E-3
204.125404E-3
205.335045E-3
204.556274E-3
205.066681E-3
205.123329E-3
203.952026E-3
204.963684E-3
203.957176E-3
204.477882E-3
204.797745E-3
203.810692E-3
205.211449E-3
204.229546E-3
205.116463E-3
205.324745E-3
204.513931E-3
205.923843E-3
204.853821E-3
205.590820E-3
205.977631E-3
204.682159E-3
206.580734E-3
205.712128E-3
206.473732E-3
206.431961E-3
205.934715E-3
207.402420E-3
206.601334E-3
207.207298E-3
207.225609E-3
205.833435E-3
207.687378E-3
206.927490E-3
207.596397E-3
207.771492E-3
207.195854E-3
208.641815E-3
207.453346E-3
207.928848E-3
208.166885E-3
207.288551E-3
208.713341E-3
207.618141E-3
208.238411E-3
208.580589E-3
207.459068E-3
209.145927E-3
208.081627E-3
208.630943E-3
209.204292E-3
207.422447E-3
209.327888E-3
208.371735E-3
208.969116E-3
209.073830E-3
208.351135E-3
209.789085E-3
208.294487E-3
209.177399E-3
209.585381E-3
208.673286E-3
210.071754E-3
208.977127E-3
209.679794E-3
210.276604E-3
209.623718E-3
211.018181E-3
209.940147E-3
210.303497E-3
210.524368E-3
209.765625E-3
210.880280E-3
209.036636E-3
207.994080E-3
207.000732E-3
204.824066E-3
204.630661E-3
202.346992E-3
201.944160E-3
201.744461E-3
200.431252E-3
201.822281E-3
200.679588E-3
201.749039E-3
201.996231E-3
201.573372E-3
203.299713E-3
202.130699E-3
202.657700E-3
203.130913E-3
201.949883E-3
203.502274E-3
202.373886E-3
202.367592E-3
203.073692E-3
202.208519E-3
203.651047E-3
202.564430E-3
203.441620E-3
204.230118E-3
203.568649E-3
205.228615E-3
204.301643E-3
204.541969E-3
205.181122E-3
204.532814E-3
206.062889E-3
204.785728E-3
204.776573E-3
205.213737E-3
204.515648E-3
205.830002E-3
204.412651E-3
204.586601E-3
205.015755E-3
204.612350E-3
206.587029E-3
205.094719E-3
205.641747E-3
206.318092E-3
205.575371E-3
207.274818E-3
205.832291E-3
206.274605E-3
206.581306E-3
206.340981E-3
207.895088E-3
206.704330E-3
206.994438E-3
207.425308E-3
206.805038E-3
208.529091E-3
207.219887E-3
207.214737E-3
207.650757E-3
207.006454E-3
208.831787E-3
207.586098E-3
207.610703E-3
208.158302E-3
207.439613E-3
209.419441E-3
207.853317E-3
207.864189E-3
208.573151E-3
207.240486E-3
209.612846E-3
208.197212E-3
208.617783E-3
209.294128E-3
208.711052E-3
210.199356E-3
208.821487E-3
208.943367E-3
209.470940E-3
208.627510E-3
210.310364E-3
209.032631E-3
208.953094E-3
209.559059E-3
208.121109E-3
210.243416E-3
209.075546E-3
209.292984E-3
210.223389E-3
209.626007E-3
211.313438E-3
210.147285E-3
210.218811E-3
210.877419E-3
210.308075E-3
212.055588E-3
211.032486E-3
210.911751E-3
211.435318E-3
209.823418E-3
210.255432E-3
207.713127E-3
206.174469E-3
205.602837E-3
203.545189E-3
203.780937E-3
201.862907E-3
201.460075E-3
202.381897E-3
201.806831E-3
203.626442E-3
202.536392E-3
202.921486E-3
204.071045E-3
203.401566E-3
204.899597E-3
203.615570E-3
203.677940E-3
204.353142E-3
203.760338E-3
205.033493E-3
203.383255E-3
203.652191E-3
204.476738E-3
203.818130E-3
205.478096E-3
204.351997E-3
204.981422E-3
205.840302E-3
204.546547E-3
206.482887E-3
205.285835E-3
205.230331E-3
205.933571E-3
205.305862E-3
206.560707E-3
205.194283E-3
205.073547E-3
205.809975E-3
205.226326E-3
206.418800E-3
205.362511E-3
205.581665E-3
206.216240E-3
205.004311E-3
206.914902E-3
206.176758E-3
206.359291E-3
207.250786E-3
206.896591E-3
207.902527E-3
206.978989E-3
207.076836E-3
208.010101E-3
207.215881E-3
208.716774E-3
207.452774E-3
207.701683E-3
208.522797E-3
208.022690E-3
209.226036E-3
207.942581E-3
208.057594E-3
208.802032E-3
208.207512E-3
209.424019E-3
208.059311E-3
208.497047E-3
209.275246E-3
208.280754E-3
209.739876E-3
208.624077E-3
208.812904E-3
209.511566E-3
208.982849E-3
210.155869E-3
209.123611E-3
209.279251E-3
210.003662E-3
209.323883E-3
210.294914E-3
209.246063E-3
209.365082E-3
209.893227E-3
209.747314E-3
210.477448E-3
209.502411E-3
209.545898E-3
210.725784E-3
210.075760E-3
211.406708E-3
210.491180E-3
210.518646E-3
211.252213E-3
210.606194E-3
211.673927E-3
210.761833E-3
210.185051E-3
210.120392E-3
208.358002E-3
207.983780E-3
205.677223E-3
204.402924E-3
203.533745E-3
202.332115E-3
202.856255E-3
201.703835E-3
201.664352E-3
202.598190E-3
202.265739E-3
203.439903E-3
202.612495E-3
203.384972E-3
204.136276E-3
203.598976E-3
204.538536E-3
203.942299E-3
203.992653E-3
204.294205E-3
203.604698E-3
