Notes :


2023-10-27 ¿ÀÈÄ 9:14:40
Volts
Ch : LED 2,
778.336143E-3
777.725029E-3
775.683403E-3
776.581192E-3
774.033737E-3
773.365402E-3
772.669601E-3
770.646858E-3
771.865654E-3
769.672966E-3
769.592285E-3
769.133377E-3
767.625046E-3
768.977165E-3
767.128372E-3
767.333221E-3
767.304039E-3
766.350174E-3
767.971230E-3
766.204262E-3
766.419411E-3
766.581345E-3
765.793419E-3
767.472839E-3
765.721893E-3
765.994263E-3
765.869522E-3
765.033531E-3
766.621399E-3
765.048409E-3
765.451813E-3
765.344810E-3
763.588715E-3
766.053772E-3
764.380074E-3
764.538574E-3
764.579773E-3
763.636780E-3
764.917374E-3
762.736702E-3
762.694359E-3
762.202835E-3
760.943413E-3
762.214279E-3
760.185242E-3
760.051918E-3
760.121155E-3
758.986473E-3
760.536575E-3
759.620476E-3
762.006569E-3
765.979958E-3
770.354462E-3
777.706718E-3
782.468033E-3
788.151169E-3
792.514229E-3
794.610214E-3
797.265816E-3
795.503426E-3
794.806480E-3
793.248940E-3
789.911842E-3
789.565659E-3
786.061478E-3
784.851265E-3
783.896828E-3
782.644844E-3
783.998680E-3
782.579613E-3
783.384132E-3
784.055328E-3
783.697701E-3
785.333633E-3
783.463097E-3
782.449150E-3
781.189156E-3
778.857422E-3
779.277420E-3
777.326202E-3
777.537346E-3
778.249168E-3
778.017426E-3
780.271912E-3
779.353523E-3
780.169487E-3
780.785751E-3
779.973793E-3
781.182861E-3
779.287720E-3
778.775024E-3
778.063202E-3
776.194954E-3
776.911926E-3
774.658012E-3
773.788261E-3
773.250389E-3
771.626472E-3
772.536850E-3
770.922089E-3
770.376778E-3
770.151329E-3
768.985176E-3
770.236588E-3
768.752289E-3
768.687630E-3
768.778610E-3
767.763519E-3
769.343948E-3
768.074226E-3
768.106270E-3
768.433571E-3
766.878891E-3
768.572617E-3
767.606163E-3
767.394447E-3
767.577553E-3
766.293526E-3
767.601013E-3
766.553307E-3
766.345596E-3
766.514969E-3
764.590073E-3
766.294670E-3
765.609741E-3
765.533066E-3
765.625763E-3
763.618469E-3
765.050697E-3
763.860512E-3
763.570404E-3
763.356400E-3
761.540794E-3
762.630844E-3
761.349678E-3
760.945129E-3
761.016655E-3
758.934402E-3
760.573769E-3
759.999847E-3
760.446739E-3
762.832260E-3
764.889336E-3
772.194099E-3
777.566528E-3
783.523750E-3
789.582253E-3
792.522240E-3
796.814919E-3
797.780800E-3
797.025490E-3
796.278191E-3
792.821503E-3
792.567444E-3
789.847755E-3
787.542915E-3
786.383629E-3
783.749199E-3
785.021210E-3
784.356308E-3
784.029579E-3
784.718513E-3
783.484840E-3
785.688400E-3
785.204887E-3
784.408951E-3
783.725166E-3
781.026649E-3
781.271553E-3
779.561806E-3
778.091240E-3
778.408241E-3
777.117348E-3
779.314041E-3
779.691124E-3
779.409599E-3
780.742264E-3
779.370117E-3
781.120491E-3
780.476761E-3
779.211044E-3
779.109192E-3
777.268982E-3
777.765083E-3
776.191521E-3
774.512100E-3
774.254036E-3
772.544289E-3
773.092461E-3
771.737480E-3
770.257187E-3
770.409393E-3
769.246101E-3
770.212555E-3
769.047546E-3
767.856789E-3
768.251610E-3
767.182159E-3
768.575478E-3
767.873383E-3
766.800499E-3
767.490578E-3
766.556168E-3
768.117714E-3
767.355537E-3
766.285515E-3
767.102051E-3
766.053772E-3
767.344666E-3
766.352463E-3
765.372276E-3
765.954208E-3
764.997482E-3
766.385078E-3
765.501022E-3
764.726830E-3
765.185165E-3
764.361191E-3
765.321922E-3
764.426422E-3
763.317490E-3
763.478851E-3
762.357330E-3
763.200760E-3
761.878967E-3
760.509109E-3
760.773468E-3
759.614754E-3
760.307693E-3
759.782982E-3
758.689499E-3
759.376144E-3
758.946419E-3
761.651230E-3
764.269638E-3
768.291092E-3
774.951553E-3
780.284500E-3
787.134361E-3
790.950966E-3
792.806625E-3
794.587326E-3
793.928146E-3
794.128990E-3
791.677666E-3
788.532829E-3
786.812210E-3
783.561516E-3
783.171844E-3
781.646919E-3
779.773521E-3
780.420685E-3
779.561806E-3
781.081581E-3
781.177711E-3
780.225563E-3
781.030655E-3
779.843330E-3
779.899406E-3
777.948189E-3
775.686264E-3
776.019287E-3
774.978447E-3
776.392937E-3
776.973724E-3
776.768875E-3
778.587341E-3
778.506088E-3
780.080223E-3
779.940605E-3
778.658867E-3
778.854561E-3
777.566528E-3
777.432060E-3
776.196671E-3
773.879242E-3
773.862076E-3
772.317123E-3
772.233582E-3
771.296883E-3
768.574905E-3
769.690132E-3
768.459892E-3
768.970871E-3
768.400383E-3
767.016792E-3
768.099976E-3
766.928101E-3
767.482567E-3
767.385864E-3
766.105270E-3
768.102264E-3
766.780472E-3
767.417336E-3
767.171288E-3
765.830612E-3
767.587852E-3
765.923309E-3
766.719818E-3
766.355324E-3
765.008926E-3
766.757011E-3
765.099335E-3
765.473557E-3
765.321350E-3
764.065933E-3
766.019440E-3
764.378357E-3
764.679909E-3
764.394379E-3
762.825394E-3
764.328575E-3
762.371063E-3
762.534714E-3
761.951065E-3
760.589218E-3
761.738205E-3
759.838486E-3
760.063934E-3
759.775543E-3
758.571053E-3
760.403252E-3
759.610748E-3
762.278938E-3
766.477776E-3
770.895195E-3
779.017067E-3
783.586121E-3
789.385414E-3
793.715286E-3
795.158958E-3
797.682953E-3
795.964050E-3
794.892311E-3
793.004608E-3
789.970779E-3
789.446068E-3
785.893822E-3
784.811783E-3
783.970642E-3
782.472038E-3
784.047890E-3
782.697487E-3
783.395576E-3
784.020424E-3
782.822800E-3
784.934807E-3
783.081436E-3
782.284927E-3
781.114197E-3
778.927231E-3
779.487991E-3
777.266693E-3
777.653503E-3
778.273201E-3
777.792549E-3
779.969788E-3
778.953552E-3
779.816437E-3
780.182648E-3
779.331779E-3
780.570602E-3
778.388786E-3
778.133011E-3
777.446365E-3
775.744057E-3
776.547432E-3
774.069214E-3
773.489571E-3
772.616959E-3
771.247673E-3
772.228432E-3
769.989967E-3
769.983101E-3
769.692421E-3
768.680763E-3
769.710732E-3
768.025589E-3
768.192101E-3
768.360329E-3
767.467117E-3
768.852425E-3
767.166710E-3
767.358398E-3
767.372704E-3
766.585350E-3
767.940331E-3
766.475487E-3
766.690636E-3
766.764450E-3
765.768814E-3
767.380714E-3
765.692139E-3
765.502167E-3
765.561676E-3
764.487648E-3
765.850639E-3
764.134026E-3
764.335442E-3
764.496231E-3
763.447952E-3
764.821243E-3
763.080025E-3
763.063431E-3
762.902641E-3
761.646080E-3
762.554169E-3
760.627556E-3
760.183525E-3
760.097122E-3
758.841133E-3
760.112572E-3
758.700943E-3
758.919525E-3
759.786415E-3
759.605026E-3
765.658951E-3
769.876671E-3
776.171494E-3
782.762146E-3
787.408447E-3
793.580818E-3
795.166969E-3
796.563721E-3
796.951675E-3
794.987297E-3
794.474030E-3
791.113472E-3
788.820648E-3
787.116623E-3
783.868217E-3
784.706497E-3
783.138657E-3
783.012772E-3
783.472252E-3
782.843971E-3
784.844398E-3
784.272194E-3
784.422684E-3
784.194946E-3
782.089233E-3
782.373047E-3
780.023003E-3
778.520966E-3
777.991676E-3
776.266479E-3
777.880669E-3
777.493286E-3
778.044319E-3
779.237366E-3
777.063560E-3
779.893684E-3
779.545784E-3
779.146385E-3
778.936386E-3
776.556587E-3
777.359390E-3
775.671387E-3
774.716949E-3
774.279785E-3
771.592140E-3
772.598648E-3
771.043968E-3
770.193672E-3
770.327568E-3
768.109703E-3
769.623184E-3
768.657303E-3
767.860794E-3
767.978096E-3
766.271210E-3
767.877388E-3
767.252541E-3
766.719818E-3
767.008209E-3
765.328789E-3
766.883469E-3
766.369629E-3
765.907860E-3
766.316986E-3
764.499092E-3
766.227722E-3
765.489578E-3
765.025520E-3
765.270424E-3
763.438797E-3
764.849281E-3
764.046478E-3
763.387871E-3
763.853073E-3
762.111282E-3
763.825035E-3
763.303185E-3
762.440300E-3
762.696075E-3
760.679054E-3
762.064362E-3
761.381149E-3
760.494804E-3
760.437012E-3
758.374786E-3
759.639931E-3
758.693504E-3
757.642937E-3
758.012581E-3
756.215286E-3
758.058929E-3
757.915306E-3
758.421135E-3
761.856079E-3
764.835548E-3
772.475052E-3
778.054047E-3
783.028221E-3
788.374329E-3
790.338135E-3
793.739891E-3
793.490982E-3
791.893387E-3
790.722656E-3
787.723732E-3
786.553001E-3
784.117699E-3
781.307030E-3
780.751991E-3
778.819084E-3
779.463387E-3
778.852844E-3
778.418541E-3
779.518318E-3
778.801918E-3
780.426979E-3
779.519463E-3
777.578545E-3
776.927376E-3
774.861145E-3
775.607300E-3
774.612236E-3
773.880959E-3
775.269127E-3
775.074005E-3
777.314758E-3
777.593422E-3
777.199745E-3
778.085518E-3
777.461243E-3
778.456306E-3
777.155685E-3
775.367546E-3
775.185013E-3
773.451233E-3
773.870087E-3
772.048187E-3
769.929314E-3
769.639206E-3
768.209267E-3
769.172287E-3
767.898560E-3
766.209984E-3
766.127014E-3
765.689278E-3
766.949844E-3
766.526985E-3
765.462685E-3
765.917587E-3
765.105629E-3
766.248894E-3
765.588570E-3
764.332008E-3
765.245819E-3
764.461327E-3
765.688705E-3
765.008354E-3
764.252472E-3
764.785767E-3
763.807869E-3
764.876175E-3
764.017296E-3
763.007927E-3
763.498878E-3
762.377930E-3
763.682556E-3
762.944984E-3
761.953926E-3
762.482071E-3
761.458397E-3
762.466621E-3
761.616898E-3
760.418129E-3
760.344887E-3
759.257698E-3
760.313988E-3
759.101486E-3
757.559967E-3
757.777977E-3
756.747437E-3
757.834053E-3
757.336235E-3
756.457329E-3
759.472847E-3
762.492371E-3
769.014359E-3
774.726105E-3
780.162621E-3
786.718369E-3
790.290642E-3
794.326973E-3
795.348930E-3
794.096375E-3
793.763351E-3
791.282272E-3
790.180779E-3
787.646484E-3
784.443283E-3
783.728027E-3
781.935310E-3
782.260323E-3
781.807137E-3
780.795479E-3
781.838608E-3
781.525612E-3
783.155823E-3
782.762718E-3
781.401443E-3
781.455803E-3
779.322052E-3
778.944397E-3
777.334785E-3
775.425339E-3
776.051903E-3
775.648499E-3
776.899910E-3
777.297592E-3
776.619530E-3
777.906990E-3
777.422905E-3
778.677750E-3
778.321266E-3
776.572037E-3
776.813507E-3
775.461960E-3
775.487709E-3
774.431992E-3
772.511673E-3
772.307968E-3
770.695496E-3
770.665169E-3
769.807434E-3
767.923164E-3
768.233299E-3
767.138100E-3
767.805290E-3
767.168999E-3
765.927887E-3
767.028236E-3
765.820312E-3
766.798782E-3
766.383934E-3
764.969444E-3
766.537285E-3
764.860725E-3
765.701866E-3
765.406609E-3
763.366699E-3
765.900421E-3
764.476204E-3
765.137672E-3
764.877319E-3
762.846565E-3
765.004349E-3
763.356400E-3
764.127731E-3
763.584137E-3
761.404037E-3
763.499451E-3
761.876678E-3
762.512398E-3
762.256622E-3
760.933113E-3
762.687492E-3
760.578918E-3
761.071587E-3
760.677338E-3
759.171295E-3
760.747147E-3
758.560181E-3
758.569336E-3
758.201981E-3
756.097984E-3
757.783699E-3
756.212425E-3
756.764030E-3
757.439232E-3
758.109856E-3
763.270569E-3
766.831970E-3
773.519897E-3
779.862785E-3
784.760284E-3
791.041946E-3
792.562866E-3
794.552422E-3
794.436264E-3
792.378616E-3
792.527390E-3
788.809776E-3
786.971283E-3
785.000038E-3
782.251167E-3
782.914925E-3
780.545998E-3
780.670166E-3
780.792046E-3
779.921722E-3
782.185936E-3
781.084442E-3
781.779099E-3
781.742477E-3
780.207825E-3
780.612946E-3
777.727890E-3
776.641273E-3
775.939178E-3
774.726677E-3
776.866722E-3
775.520325E-3
776.442719E-3
777.359390E-3
776.471901E-3
778.445435E-3
776.809502E-3
777.252388E-3
776.720810E-3
775.104332E-3
776.014709E-3
773.848915E-3
773.193169E-3
772.357178E-3
770.734406E-3
771.710014E-3
769.291306E-3
768.968582E-3
768.174934E-3
767.086029E-3
767.956924E-3
766.106415E-3
766.149330E-3
766.095543E-3
765.121078E-3
766.585922E-3
764.939690E-3
765.113068E-3
764.959717E-3
764.085388E-3
765.646935E-3
764.040756E-3
764.305115E-3
764.279938E-3
763.378716E-3
764.662170E-3
762.981606E-3
763.525200E-3
763.458252E-3
762.413406E-3
763.719749E-3
762.110138E-3
762.166214E-3
762.153625E-3
761.259842E-3
762.562752E-3
760.818100E-3
760.999489E-3
760.733414E-3
759.946060E-3
761.151695E-3
759.322929E-3
759.180450E-3
758.878899E-3
757.789993E-3
758.705521E-3
756.847572E-3
756.619263E-3
756.413269E-3
755.337524E-3
756.939125E-3
755.680847E-3
756.370354E-3
758.185959E-3
761.058998E-3
767.622185E-3
772.317696E-3
778.543282E-3
784.226418E-3
787.605286E-3
791.693115E-3
791.051102E-3
791.084862E-3
789.950180E-3
787.272835E-3
786.338997E-3
782.726097E-3
781.046677E-3
779.337502E-3
777.210617E-3
777.949905E-3
776.068497E-3
776.531982E-3
777.101898E-3
776.510239E-3
778.347015E-3
776.980591E-3
776.620102E-3
775.670815E-3
773.590279E-3
774.010277E-3
771.858788E-3
771.842766E-3
772.497368E-3
772.475624E-3
774.914360E-3
774.268913E-3
775.182724E-3
776.026726E-3
775.529480E-3
776.832962E-3
774.828529E-3
774.539566E-3
773.724747E-3
771.988678E-3
772.410393E-3
769.877243E-3
769.024086E-3
768.423271E-3
766.857719E-3
767.510033E-3
765.676689E-3
765.435791E-3
765.077019E-3
763.886261E-3
764.962006E-3
763.461685E-3
763.374710E-3
763.615608E-3
762.691498E-3
763.984108E-3
762.766457E-3
762.847710E-3
762.897491E-3
762.166214E-3
763.459969E-3
762.240601E-3
762.100983E-3
762.125015E-3
761.238670E-3
762.717247E-3
761.210632E-3
760.922241E-3
761.062431E-3
760.279655E-3
761.701012E-3
760.121155E-3
760.045052E-3
760.285378E-3
759.172440E-3
760.278511E-3
759.164429E-3
758.645439E-3
758.529282E-3
757.278442E-3
758.367348E-3
756.722260E-3
756.108284E-3
756.107712E-3
754.649734E-3
755.320358E-3
754.227448E-3
754.442024E-3
755.372429E-3
756.130600E-3
761.641502E-3
766.100693E-3
772.334290E-3
778.864288E-3
782.916069E-3
788.900757E-3
790.686035E-3
791.860199E-3
792.063332E-3
789.319038E-3
789.384270E-3
786.353874E-3
784.019852E-3
782.438850E-3
779.239655E-3
779.980659E-3
778.656006E-3
778.210831E-3
778.684044E-3
777.344513E-3
779.651070E-3
779.253387E-3
779.328918E-3
779.606438E-3
776.792908E-3
777.405167E-3
775.228500E-3
774.289513E-3
774.026299E-3
772.069359E-3
774.118996E-3
773.740768E-3
774.069214E-3
775.172424E-3
774.156189E-3
776.400375E-3
775.504875E-3
774.944115E-3
774.942970E-3
772.778320E-3
774.024582E-3
772.548866E-3
771.308899E-3
770.781898E-3
768.285942E-3
769.367409E-3
767.940903E-3
766.757584E-3
766.809654E-3
764.591789E-3
766.035461E-3
764.880180E-3
764.402962E-3
764.824677E-3
762.983322E-3
764.516830E-3
763.796425E-3
763.112068E-3
763.571548E-3
761.831474E-3
763.558960E-3
762.999916E-3
762.393379E-3
762.833405E-3
761.105347E-3
762.994194E-3
762.343597E-3
761.691856E-3
762.040901E-3
760.240746E-3
761.665535E-3
761.243820E-3
760.401535E-3
760.861015E-3
759.215927E-3
760.870743E-3
760.318565E-3
759.351540E-3
759.675407E-3
757.816315E-3
759.324646E-3
758.504677E-3
756.918526E-3
757.155991E-3
755.455399E-3
756.595802E-3
755.642509E-3
754.581642E-3
754.991341E-3
753.528786E-3
755.698013E-3
757.115364E-3
759.851074E-3
765.662384E-3
770.848846E-3
778.411102E-3
783.033371E-3
786.465454E-3
789.842033E-3
790.171051E-3
791.539192E-3
789.767647E-3
787.041092E-3
785.390282E-3
782.279778E-3
781.864357E-3
779.384995E-3
777.259827E-3
777.114487E-3
776.024437E-3
777.515602E-3
777.215767E-3
776.705933E-3
777.717018E-3
776.976585E-3
778.063202E-3
776.447868E-3
774.450302E-3
773.553085E-3
771.637344E-3
772.643280E-3
772.108841E-3
771.307755E-3
772.772026E-3
772.583199E-3
774.644279E-3
774.547005E-3
773.775673E-3
774.338150E-3
773.248672E-3
773.875237E-3
772.750282E-3
770.989609E-3
770.697784E-3
768.997192E-3
769.330215E-3
767.864227E-3
766.413116E-3
766.252899E-3
764.764023E-3
765.620613E-3
764.492798E-3
763.364410E-3
763.623619E-3
762.507820E-3
