Notes :


2023-11-04 ¿ÀÈÄ 9:32:06
Volts
Ch : LED 2,
542.296600E-3
542.088318E-3
541.758156E-3
541.467476E-3
541.217995E-3
540.910721E-3
540.732765E-3
540.841484E-3
541.383362E-3
542.995834E-3
545.643997E-3
548.993111E-3
552.766228E-3
556.878662E-3
560.747910E-3
563.794899E-3
565.906906E-3
567.160606E-3
567.112541E-3
566.449928E-3
564.842606E-3
563.180923E-3
561.231995E-3
559.433556E-3
557.805061E-3
556.290436E-3
555.341148E-3
554.596138E-3
554.240799E-3
553.839684E-3
553.668594E-3
553.713799E-3
553.920364E-3
553.866005E-3
553.683472E-3
553.318977E-3
552.882957E-3
552.526474E-3
552.046394E-3
551.998901E-3
552.016640E-3
552.268982E-3
552.519608E-3
552.825737E-3
553.266907E-3
553.469467E-3
553.515244E-3
553.537560E-3
553.285789E-3
553.052330E-3
552.638054E-3
552.151108E-3
551.697350E-3
551.216698E-3
550.671959E-3
549.997330E-3
549.423409E-3
548.856926E-3
548.351097E-3
548.016357E-3
547.715950E-3
547.307396E-3
547.498512E-3
547.035599E-3
546.893692E-3
546.685982E-3
546.474838E-3
546.373558E-3
546.225929E-3
546.197891E-3
546.120071E-3
546.012497E-3
546.133232E-3
545.973587E-3
545.966721E-3
545.841980E-3
545.699501E-3
545.639420E-3
545.404816E-3
545.452309E-3
545.351601E-3
545.199966E-3
545.122719E-3
544.991112E-3
544.897842E-3
544.740486E-3
544.678688E-3
544.543076E-3
544.291878E-3
543.903351E-3
543.867302E-3
543.763733E-3
543.782043E-3
543.640709E-3
543.556023E-3
543.409538E-3
543.189812E-3
543.063927E-3
543.062782E-3
542.733192E-3
542.397308E-3
542.100906E-3
541.852570E-3
541.484642E-3
541.366196E-3
541.279793E-3
541.484070E-3
542.289734E-3
543.745422E-3
546.350670E-3
549.704933E-3
553.704071E-3
557.573891E-3
561.102676E-3
564.122200E-3
566.045380E-3
567.091942E-3
566.948318E-3
565.914345E-3
564.576530E-3
562.772369E-3
560.798264E-3
559.128571E-3
557.335281E-3
556.098175E-3
555.077362E-3
554.375839E-3
553.885460E-3
553.658867E-3
553.693199E-3
553.542709E-3
553.708649E-3
553.665161E-3
553.260040E-3
552.880096E-3
552.401733E-3
552.002335E-3
551.842690E-3
551.762009E-3
552.036667E-3
552.350807E-3
552.813721E-3
553.353310E-3
553.575325E-3
553.952408E-3
553.898048E-3
553.797913E-3
553.687477E-3
553.154755E-3
552.811432E-3
552.181435E-3
551.736832E-3
551.242447E-3
550.697136E-3
550.261116E-3
549.691772E-3
549.133301E-3
548.658943E-3
548.229790E-3
548.093033E-3
547.810936E-3
547.470474E-3
547.413826E-3
547.227859E-3
547.077370E-3
547.073936E-3
546.895409E-3
546.827316E-3
546.796989E-3
546.904564E-3
546.843910E-3
546.714020E-3
546.753502E-3
546.636200E-3
546.611595E-3
546.571541E-3
546.498299E-3
546.591568E-3
546.374702E-3
546.288872E-3
546.082878E-3
545.992470E-3
545.946121E-3
545.698357E-3
545.673180E-3
545.563889E-3
545.514679E-3
545.268631E-3
545.050049E-3
544.893265E-3
544.742775E-3
544.576263E-3
544.488144E-3
544.285583E-3
544.040108E-3
543.843269E-3
543.538857E-3
543.327713E-3
542.901993E-3
542.700005E-3
542.469978E-3
542.316055E-3
542.300034E-3
542.110634E-3
542.415047E-3
543.396378E-3
545.202255E-3
547.997475E-3
551.375198E-3
555.147743E-3
558.786964E-3
561.624527E-3
564.089584E-3
565.295792E-3
565.565300E-3
564.799690E-3
563.448143E-3
561.797333E-3
559.904480E-3
558.092308E-3
556.335068E-3
555.109978E-3
553.964424E-3
553.119278E-3
552.654648E-3
552.330208E-3
552.205467E-3
552.214622E-3
552.066422E-3
552.077293E-3
551.570320E-3
551.134872E-3
550.754356E-3
550.380135E-3
550.345802E-3
550.453377E-3
550.766945E-3
551.217270E-3
551.820946E-3
552.338791E-3
552.672958E-3
552.955627E-3
553.112984E-3
552.964783E-3
552.715302E-3
552.318192E-3
551.828384E-3
551.068497E-3
550.487709E-3
549.921227E-3
549.318695E-3
548.815727E-3
548.170853E-3
547.595215E-3
547.218132E-3
546.865654E-3
546.600151E-3
546.430779E-3
546.153259E-3
546.040535E-3
545.927811E-3
545.837402E-3
545.806503E-3
545.698929E-3
545.724106E-3
545.702934E-3
545.532990E-3
545.580482E-3
545.702934E-3
545.878029E-3
545.894623E-3
545.863724E-3
545.997047E-3
545.879173E-3
545.855141E-3
545.797920E-3
545.507813E-3
545.611954E-3
545.429993E-3
545.384216E-3
545.355034E-3
545.473480E-3
545.498085E-3
545.341873E-3
545.332146E-3
545.177078E-3
544.977951E-3
544.955063E-3
544.721603E-3
544.701576E-3
544.721031E-3
544.503593E-3
544.540215E-3
544.330788E-3
544.201469E-3
543.939400E-3
543.561172E-3
543.507385E-3
543.144608E-3
543.003273E-3
542.700577E-3
542.547226E-3
542.893410E-3
543.807793E-3
545.701790E-3
548.640633E-3
552.179146E-3
556.303596E-3
560.117340E-3
563.765144E-3
566.586113E-3
568.187141E-3
569.118690E-3
568.892097E-3
568.009758E-3
566.623878E-3
564.931297E-3
563.255882E-3
561.566162E-3
560.362244E-3
559.321404E-3
558.488846E-3
558.145523E-3
557.742691E-3
557.838821E-3
557.790756E-3
557.956696E-3
558.260536E-3
558.306313E-3
558.267403E-3
558.012199E-3
557.482910E-3
557.146454E-3
556.697273E-3
556.498146E-3
556.242371E-3
556.349373E-3
556.666374E-3
556.879807E-3
557.227707E-3
557.339859E-3
557.324409E-3
557.353592E-3
557.101822E-3
556.741333E-3
556.424904E-3
555.834961E-3
555.430984E-3
554.897690E-3
554.435349E-3
554.055977E-3
553.536415E-3
553.289795E-3
552.735901E-3
552.268410E-3
551.792908E-3
551.325989E-3
551.355171E-3
551.193237E-3
551.296234E-3
551.260185E-3
551.230431E-3
551.259041E-3
551.039314E-3
550.916290E-3
550.867081E-3
550.697708E-3
550.853348E-3
550.812721E-3
550.843620E-3
550.786400E-3
550.591850E-3
550.673676E-3
550.455666E-3
550.352097E-3
550.295448E-3
550.051689E-3
550.028801E-3
549.742699E-3
549.755859E-3
549.709511E-3
549.547005E-3
549.640846E-3
549.548149E-3
549.461746E-3
549.434280E-3
549.149895E-3
549.268913E-3
549.121857E-3
549.034309E-3
549.038315E-3
548.875237E-3
549.037743E-3
549.014854E-3
549.015999E-3
549.114418E-3
548.959923E-3
548.890686E-3
548.508453E-3
548.372841E-3
548.280144E-3
548.102760E-3
548.272133E-3
548.687553E-3
549.851990E-3
552.235794E-3
555.199814E-3
559.046173E-3
562.858200E-3
566.691399E-3
570.033073E-3
572.227478E-3
573.724937E-3
574.075127E-3
573.884010E-3
573.096085E-3
571.742249E-3
570.372963E-3
568.701553E-3
567.313385E-3
566.191292E-3
565.453148E-3
564.937019E-3
564.619446E-3
564.592552E-3
564.809418E-3
564.850044E-3
565.026855E-3
564.943886E-3
564.820290E-3
564.411163E-3
563.705063E-3
563.138008E-3
562.565804E-3
562.379265E-3
562.414742E-3
562.536049E-3
562.984657E-3
563.281631E-3
563.529968E-3
564.000893E-3
563.995743E-3
563.983154E-3
563.626671E-3
563.236427E-3
562.899399E-3
562.326050E-3
562.046814E-3
561.675453E-3
561.001968E-3
560.456085E-3
559.724236E-3
559.345436E-3
558.843040E-3
558.455658E-3
558.342361E-3
558.000755E-3
558.032227E-3
557.836533E-3
557.655144E-3
557.554436E-3
557.216263E-3
557.227707E-3
557.160759E-3
557.244301E-3
557.412529E-3
557.276344E-3
557.420540E-3
557.334709E-3
557.270622E-3
557.419968E-3
557.215691E-3
557.219124E-3
557.126999E-3
557.098389E-3
557.248306E-3
556.887245E-3
556.887817E-3
556.677818E-3
556.534195E-3
556.450653E-3
556.103897E-3
556.062698E-3
555.994034E-3
555.891609E-3
555.837250E-3
555.590057E-3
555.636978E-3
555.412102E-3
555.364609E-3
555.350876E-3
555.184937E-3
555.281639E-3
555.120850E-3
554.858780E-3
554.715729E-3
554.309464E-3
554.087448E-3
553.733253E-3
553.413963E-3
553.330421E-3
553.123283E-3
553.439713E-3
553.585625E-3
554.422760E-3
556.344223E-3
558.831024E-3
562.389565E-3
566.155243E-3
569.968414E-3
573.276329E-3
575.653839E-3
577.185059E-3
577.489471E-3
576.926422E-3
575.770569E-3
574.060249E-3
572.376251E-3
570.515442E-3
569.107246E-3
567.981148E-3
566.991806E-3
566.578102E-3
566.200447E-3
566.114616E-3
566.374969E-3
566.389847E-3
566.535759E-3
566.603851E-3
566.392708E-3
565.936089E-3
565.042305E-3
564.451790E-3
563.936806E-3
563.723373E-3
563.967133E-3
564.200020E-3
564.876938E-3
565.346146E-3
565.801048E-3
566.079140E-3
565.989304E-3
565.763855E-3
565.265465E-3
564.668655E-3
564.285851E-3
563.579750E-3
563.190079E-3
562.553215E-3
561.853409E-3
561.367035E-3
560.647774E-3
560.279274E-3
559.731674E-3
559.515953E-3
559.245300E-3
558.811569E-3
558.734322E-3
558.643913E-3
558.589554E-3
558.474541E-3
558.322906E-3
558.424759E-3
558.360672E-3
558.189583E-3
558.207321E-3
557.932091E-3
557.985306E-3
557.887459E-3
557.771873E-3
557.869720E-3
557.735825E-3
557.587051E-3
557.457161E-3
557.342720E-3
557.285500E-3
557.024002E-3
556.926155E-3
556.785393E-3
556.553078E-3
556.405449E-3
556.050110E-3
555.866432E-3
555.671883E-3
555.431557E-3
555.465317E-3
555.116844E-3
555.073357E-3
555.098534E-3
554.762077E-3
554.635048E-3
554.328346E-3
554.165840E-3
553.878021E-3
553.674889E-3
553.642273E-3
553.269196E-3
552.904701E-3
552.714729E-3
552.279854E-3
552.062988E-3
551.799202E-3
551.990318E-3
552.462959E-3
553.658867E-3
556.030083E-3
558.994102E-3
562.484550E-3
566.131783E-3
569.538689E-3
572.638893E-3
574.746895E-3
576.032639E-3
576.355934E-3
575.723648E-3
574.526024E-3
572.990227E-3
571.447563E-3
569.885445E-3
568.419456E-3
567.484474E-3
566.619873E-3
566.202164E-3
566.007614E-3
565.729523E-3
566.133499E-3
566.342926E-3
566.737747E-3
566.947174E-3
566.970634E-3
566.766930E-3
565.952682E-3
565.324974E-3
564.617729E-3
564.141655E-3
564.161682E-3
564.147377E-3
564.589691E-3
564.894104E-3
565.111542E-3
565.438271E-3
565.450287E-3
565.557289E-3
565.405083E-3
565.053749E-3
564.840317E-3
564.225769E-3
563.786888E-3
563.257027E-3
562.573242E-3
562.079430E-3
561.713791E-3
561.281776E-3
560.854912E-3
560.459518E-3
560.279846E-3
559.848976E-3
559.636116E-3
559.446144E-3
559.172058E-3
559.280777E-3
559.110260E-3
559.140587E-3
559.169769E-3
559.034729E-3
559.109116E-3
558.825874E-3
558.958626E-3
558.832169E-3
558.611870E-3
558.587837E-3
558.492851E-3
558.462524E-3
558.340073E-3
558.009911E-3
558.040810E-3
557.849693E-3
557.611656E-3
557.464600E-3
557.181358E-3
557.053757E-3
556.771660E-3
556.588554E-3
556.340218E-3
555.899048E-3
555.642128E-3
555.408669E-3
555.257607E-3
555.150032E-3
555.077362E-3
555.092239E-3
554.897118E-3
554.823303E-3
554.664803E-3
554.366112E-3
554.368973E-3
554.213333E-3
554.244804E-3
554.223061E-3
553.947258E-3
553.927803E-3
553.604507E-3
553.377914E-3
553.062057E-3
552.564812E-3
552.603149E-3
552.484131E-3
552.878952E-3
553.866005E-3
555.710220E-3
558.661079E-3
561.975288E-3
565.692329E-3
569.502068E-3
572.629166E-3
575.328255E-3
576.635170E-3
577.042007E-3
576.807404E-3
575.833511E-3
574.623871E-3
573.026276E-3
571.706772E-3
570.512009E-3
569.365883E-3
568.640900E-3
568.113899E-3
567.895889E-3
567.884445E-3
567.937660E-3
568.497849E-3
568.736458E-3
569.067764E-3
569.194794E-3
568.889236E-3
568.437767E-3
567.562866E-3
566.895676E-3
566.329193E-3
565.956116E-3
565.997887E-3
566.142082E-3
566.467094E-3
566.864204E-3
567.054749E-3
567.388344E-3
567.249298E-3
567.256737E-3
567.123413E-3
566.695976E-3
566.344070E-3
565.736389E-3
565.328979E-3
564.756203E-3
564.181709E-3
563.741112E-3
563.283348E-3
562.973785E-3
562.647057E-3
562.197876E-3
562.047958E-3
561.822510E-3
561.698914E-3
561.650848E-3
561.458015E-3
561.548424E-3
561.397362E-3
561.412239E-3
561.466599E-3
561.337280E-3
561.458015E-3
561.364746E-3
561.415672E-3
561.563873E-3
561.331558E-3
561.436272E-3
561.228561E-3
561.157608E-3
561.169624E-3
561.021423E-3
561.016273E-3
560.729599E-3
560.755920E-3
560.639763E-3
560.421753E-3
560.317612E-3
560.107040E-3
559.932518E-3
559.892464E-3
559.576035E-3
559.495354E-3
559.352303E-3
559.242439E-3
559.288788E-3
559.154320E-3
559.236717E-3
559.117699E-3
559.130859E-3
559.093666E-3
558.996391E-3
558.895111E-3
558.828163E-3
558.856201E-3
558.772087E-3
558.534050E-3
558.517456E-3
558.257103E-3
558.033943E-3
557.975578E-3
557.657433E-3
557.781029E-3
557.770729E-3
558.138084E-3
559.162331E-3
560.977364E-3
564.036369E-3
567.561150E-3
571.235847E-3
574.927711E-3
577.815056E-3
580.137062E-3
581.367302E-3
581.661987E-3
581.172180E-3
579.852104E-3
578.406143E-3
576.612854E-3
574.941444E-3
573.682594E-3
572.266960E-3
571.563148E-3
570.978928E-3
570.814705E-3
570.956612E-3
570.924568E-3
571.110535E-3
571.282196E-3
571.243286E-3
571.012688E-3
570.272827E-3
569.698906E-3
568.983650E-3
568.605423E-3
568.257523E-3
568.243790E-3
568.640327E-3
568.910408E-3
569.272614E-3
569.642258E-3
569.569588E-3
569.664001E-3
569.371033E-3
568.708420E-3
568.367958E-3
567.670441E-3
567.075348E-3
566.319466E-3
565.647697E-3
565.132713E-3
564.313316E-3
563.969994E-3
563.592911E-3
563.082504E-3
562.764931E-3
562.223053E-3
562.101173E-3
561.849403E-3
561.696625E-3
561.680603E-3
561.578751E-3
561.705208E-3
561.649704E-3
561.673737E-3
561.704636E-3
561.508942E-3
561.681175E-3
561.719513E-3
561.796188E-3
561.857414E-3
561.626244E-3
561.709213E-3
561.670303E-3
561.575317E-3
561.635399E-3
561.472893E-3
561.432838E-3
561.341858E-3
561.177635E-3
561.099243E-3
560.860062E-3
560.746765E-3
560.515594E-3
560.264397E-3
560.232353E-3
559.957695E-3
559.886742E-3
559.701920E-3
559.622955E-3
559.598351E-3
559.382629E-3
559.476471E-3
559.360313E-3
559.250450E-3
559.304237E-3
559.204674E-3
558.860207E-3
558.574104E-3
558.179855E-3
558.064842E-3
557.822227E-3
557.878876E-3
558.001328E-3
558.288002E-3
559.411812E-3
561.229706E-3
564.260101E-3
567.796898E-3
571.718788E-3
575.538254E-3
578.790092E-3
581.333542E-3
582.908249E-3
583.350563E-3
583.081627E-3
582.084274E-3
580.828285E-3
579.182053E-3
577.676010E-3
576.404572E-3
575.190353E-3
574.395561E-3
573.759270E-3
573.594475E-3
573.670006E-3
573.632240E-3
574.053383E-3
574.349785E-3
574.662209E-3
574.786377E-3
574.433327E-3
574.206734E-3
573.367310E-3
572.445488E-3
572.005463E-3
571.505928E-3
571.489906E-3
571.445274E-3
571.660995E-3
572.068977E-3
572.175980E-3
572.630882E-3
572.637177E-3
572.452927E-3
572.328758E-3
571.784592E-3
571.320534E-3
570.839882E-3
570.246506E-3
570.034790E-3
569.282913E-3
568.811417E-3
568.192291E-3
567.778587E-3
567.382050E-3
566.822433E-3
566.499138E-3
566.344643E-3
566.092300E-3
565.969276E-3
565.607643E-3
565.397072E-3
565.239716E-3
565.049744E-3
565.165329E-3
565.019989E-3
564.977074E-3
564.884377E-3
564.672089E-3
564.685822E-3
564.514732E-3
564.500999E-3
564.475822E-3
564.446068E-3
564.289856E-3
564.133072E-3
564.244080E-3
564.194298E-3
563.984299E-3
563.968277E-3
563.739395E-3
563.508797E-3
563.291359E-3
562.735176E-3
563.003540E-3
562.767220E-3
562.858772E-3
562.720299E-3
562.472534E-3
562.431908E-3
562.090874E-3
561.844826E-3
561.456299E-3
561.108398E-3
560.861778E-3
560.597420E-3
560.462379E-3
560.240364E-3
559.964561E-3
559.902763E-3
559.445572E-3
559.344292E-3
558.953476E-3
558.540916E-3
558.237076E-3
557.653427E-3
557.491493E-3
557.506371E-3
557.837105E-3
559.242439E-3
561.292648E-3
564.672089E-3
568.456650E-3
572.273254E-3
575.923347E-3
