Notes :


2023-11-04 ¿ÀÈÄ 7:34:41
Volts
Ch : LED 2,
769.731331E-3
771.326637E-3
773.172569E-3
774.786186E-3
776.234436E-3
777.173424E-3
777.596855E-3
777.857208E-3
777.500153E-3
777.066422E-3
776.449013E-3
775.718880E-3
775.075150E-3
774.318695E-3
773.884392E-3
773.654938E-3
773.538208E-3
773.451805E-3
773.507881E-3
773.621750E-3
773.772812E-3
773.974228E-3
773.752213E-3
773.834610E-3
773.674965E-3
773.419189E-3
772.982025E-3
772.674179E-3
772.342300E-3
772.140884E-3
772.176361E-3
772.100830E-3
772.348595E-3
772.567749E-3
772.810364E-3
772.995186E-3
773.161697E-3
773.238945E-3
773.203468E-3
773.016357E-3
772.651291E-3
772.521400E-3
772.391510E-3
772.064781E-3
771.759796E-3
771.604156E-3
771.191025E-3
771.067429E-3
770.818520E-3
770.752144E-3
770.507812E-3
770.170784E-3
770.169067E-3
770.134735E-3
769.861794E-3
769.744492E-3
769.663239E-3
769.654083E-3
769.363403E-3
769.389725E-3
769.347954E-3
769.381142E-3
769.398880E-3
769.387436E-3
769.230080E-3
769.319916E-3
769.194603E-3
769.308472E-3
769.347954E-3
769.178581E-3
769.236946E-3
769.078445E-3
769.043541E-3
768.935394E-3
768.545151E-3
768.664169E-3
768.735695E-3
768.608093E-3
768.455887E-3
768.466187E-3
768.375206E-3
768.178368E-3
768.187523E-3
768.147469E-3
768.097115E-3
768.025017E-3
767.962646E-3
767.856789E-3
767.732620E-3
767.646790E-3
767.573547E-3
767.541504E-3
767.262268E-3
767.207336E-3
767.127228E-3
767.173004E-3
766.926956E-3
766.779900E-3
766.723251E-3
766.785049E-3
766.711235E-3
766.705513E-3
766.730690E-3
766.993332E-3
767.655945E-3
768.689346E-3
769.980240E-3
771.594429E-3
773.319054E-3
774.986458E-3
776.487350E-3
777.466965E-3
778.020859E-3
778.112984E-3
777.880096E-3
777.447510E-3
776.700783E-3
776.134872E-3
775.483131E-3
774.842262E-3
774.326706E-3
773.994255E-3
773.795128E-3
773.700714E-3
773.761368E-3
773.842621E-3
773.934746E-3
774.131584E-3
774.258041E-3
774.268341E-3
774.069214E-3
773.643494E-3
773.299026E-3
772.845268E-3
772.602654E-3
772.674179E-3
772.588921E-3
772.713661E-3
772.968292E-3
773.265266E-3
773.554230E-3
773.723030E-3
773.791695E-3
773.768806E-3
773.417473E-3
773.387146E-3
773.164558E-3
773.078156E-3
772.737122E-3
772.558022E-3
772.290230E-3
771.954346E-3
771.740913E-3
771.749496E-3
771.381569E-3
771.124077E-3
770.907211E-3
770.807648E-3
770.717812E-3
770.625114E-3
770.550156E-3
770.369911E-3
770.098114E-3
770.217133E-3
770.114708E-3
770.192528E-3
770.188522E-3
770.079803E-3
770.185661E-3
770.077515E-3
770.087242E-3
770.124435E-3
770.095825E-3
770.020294E-3
770.004845E-3
769.977951E-3
769.787979E-3
769.761086E-3
769.705009E-3
769.565964E-3
769.565392E-3
769.341660E-3
769.437790E-3
769.261551E-3
769.259262E-3
769.134521E-3
769.029236E-3
768.970871E-3
768.923378E-3
768.723679E-3
768.554306E-3
768.419266E-3
768.396950E-3
768.266487E-3
768.029022E-3
767.920876E-3
767.741776E-3
767.630768E-3
767.465401E-3
767.357254E-3
767.415047E-3
767.340660E-3
767.315483E-3
767.409897E-3
767.710876E-3
768.497086E-3
769.511032E-3
771.083450E-3
772.639847E-3
774.215698E-3
775.759506E-3
776.862144E-3
777.585411E-3
777.919006E-3
777.899551E-3
777.573395E-3
776.867294E-3
776.283646E-3
775.712585E-3
774.960136E-3
774.501801E-3
774.065781E-3
773.733330E-3
773.347092E-3
773.383713E-3
773.503876E-3
773.581123E-3
773.629761E-3
773.613167E-3
773.562241E-3
773.348808E-3
772.929382E-3
772.286224E-3
772.061348E-3
771.848488E-3
771.940041E-3
771.824455E-3
772.049332E-3
772.302818E-3
772.598076E-3
772.982025E-3
773.290443E-3
773.335075E-3
773.281860E-3
773.139954E-3
773.008347E-3
772.768593E-3
772.485352E-3
772.279930E-3
771.857071E-3
771.658516E-3
771.245384E-3
771.068001E-3
770.669174E-3
770.429993E-3
770.241737E-3
770.142746E-3
769.726181E-3
769.792557E-3
769.672966E-3
769.594002E-3
769.512749E-3
769.417763E-3
769.446373E-3
769.309044E-3
769.393730E-3
769.116211E-3
769.226074E-3
769.327354E-3
769.176865E-3
769.311905E-3
769.107628E-3
769.204330E-3
769.115639E-3
769.103622E-3
769.008064E-3
768.950844E-3
768.881607E-3
768.913651E-3
768.895912E-3
768.851852E-3
768.750572E-3
768.683624E-3
768.589211E-3
768.592644E-3
768.461609E-3
768.261909E-3
768.224716E-3
768.099976E-3
768.083954E-3
768.045616E-3
767.902565E-3
767.826462E-3
767.611313E-3
767.596436E-3
767.613029E-3
767.503166E-3
767.411041E-3
767.316055E-3
767.130089E-3
767.004776E-3
766.852570E-3
767.009926E-3
766.834259E-3
766.763306E-3
766.862297E-3
766.854858E-3
767.229080E-3
768.011284E-3
769.227791E-3
770.726967E-3
772.339439E-3
774.088669E-3
775.798988E-3
776.989746E-3
777.997398E-3
778.388786E-3
778.456879E-3
778.092957E-3
777.655220E-3
777.039528E-3
776.271057E-3
775.716591E-3
775.176430E-3
774.651718E-3
774.432564E-3
774.215698E-3
774.092674E-3
774.220848E-3
774.381065E-3
774.641418E-3
774.716949E-3
774.785614E-3
774.682045E-3
774.393654E-3
774.080086E-3
773.785400E-3
773.251534E-3
772.837257E-3
772.648430E-3
772.740555E-3
772.869873E-3
773.054123E-3
773.357391E-3
773.491287E-3
773.600006E-3
773.695564E-3
773.719025E-3
773.702431E-3
773.495293E-3
773.312187E-3
773.098755E-3
772.888184E-3
772.546005E-3
772.364616E-3
772.033882E-3
771.704865E-3
771.426201E-3
771.307755E-3
771.073723E-3
771.007919E-3
770.811653E-3
770.700073E-3
770.516968E-3
770.480347E-3
770.499229E-3
770.442581E-3
770.388222E-3
770.324707E-3
770.259476E-3
770.285225E-3
770.200539E-3
770.337868E-3
770.221710E-3
770.202827E-3
770.239449E-3
770.188522E-3
770.145607E-3
770.110130E-3
770.048332E-3
770.107841E-3
770.050049E-3
769.846916E-3
769.895554E-3
769.754219E-3
769.659805E-3
769.685555E-3
769.484138E-3
769.185448E-3
769.194603E-3
769.275856E-3
769.084167E-3
769.108772E-3
769.152260E-3
769.006348E-3
768.991470E-3
768.889618E-3
769.017220E-3
768.828392E-3
768.525124E-3
768.482780E-3
768.355751E-3
768.255615E-3
768.110275E-3
767.988396E-3
767.851639E-3
767.500305E-3
767.591858E-3
767.642212E-3
767.617035E-3
767.655373E-3
767.717743E-3
768.021011E-3
768.871880E-3
769.940186E-3
771.259689E-3
772.934532E-3
774.620247E-3
776.228714E-3
777.412033E-3
778.163910E-3
778.484917E-3
778.444862E-3
778.050613E-3
777.662086E-3
776.998329E-3
776.227570E-3
775.516319E-3
775.027657E-3
774.540710E-3
774.298096E-3
774.265480E-3
774.212265E-3
774.161911E-3
774.283791E-3
774.441719E-3
774.569321E-3
774.504089E-3
774.332428E-3
773.855209E-3
773.379135E-3
773.051262E-3
772.844124E-3
772.788048E-3
772.787476E-3
773.075294E-3
773.373413E-3
773.669815E-3
773.990250E-3
773.923874E-3
774.124146E-3
774.199677E-3
774.189949E-3
774.013710E-3
773.682976E-3
773.509026E-3
773.210907E-3
772.862434E-3
772.844696E-3
772.342300E-3
771.961212E-3
771.757507E-3
771.593285E-3
771.496582E-3
771.272850E-3
771.153259E-3
771.000481E-3
771.161270E-3
770.851135E-3
770.733833E-3
770.685768E-3
770.623398E-3
770.436859E-3
770.426559E-3
770.364761E-3
770.326996E-3
770.052910E-3
770.245171E-3
770.278931E-3
770.229721E-3
770.286369E-3
770.170784E-3
770.169640E-3
770.128441E-3
770.018005E-3
769.953918E-3
769.886971E-3
769.877243E-3
769.784546E-3
769.603729E-3
769.606590E-3
769.499588E-3
769.417763E-3
769.354820E-3
769.247818E-3
769.203186E-3
769.090462E-3
768.970299E-3
768.897629E-3
768.729973E-3
768.636703E-3
768.364334E-3
768.152618E-3
768.145180E-3
767.856216E-3
767.792130E-3
767.730331E-3
767.603302E-3
767.598724E-3
767.490578E-3
767.664528E-3
767.853928E-3
768.394661E-3
769.465828E-3
770.732117E-3
772.317696E-3
773.992538E-3
775.710869E-3
777.037811E-3
778.048897E-3
778.751564E-3
778.790474E-3
778.545570E-3
778.181076E-3
777.384567E-3
776.753998E-3
776.194382E-3
775.554085E-3
774.905777E-3
774.734688E-3
774.549866E-3
774.551582E-3
774.484062E-3
774.625397E-3
774.679184E-3
774.882889E-3
774.910927E-3
774.675751E-3
774.525261E-3
774.124718E-3
773.780251E-3
773.216629E-3
772.944832E-3
772.909927E-3
772.849846E-3
772.963715E-3
773.266983E-3
773.432350E-3
773.740196E-3
773.806000E-3
774.003983E-3
774.042892E-3
774.000549E-3
774.073219E-3
773.694420E-3
773.338509E-3
773.034668E-3
772.770882E-3
772.459030E-3
772.126007E-3
771.856499E-3
771.632195E-3
771.315765E-3
771.192741E-3
770.955849E-3
770.931244E-3
770.786476E-3
770.587921E-3
770.539284E-3
770.411682E-3
770.458031E-3
770.132446E-3
770.272636E-3
770.227432E-3
770.266914E-3
770.226288E-3
770.170212E-3
770.128441E-3
770.098114E-3
770.118141E-3
770.321846E-3
770.096397E-3
770.046616E-3
769.988823E-3
769.941330E-3
769.910431E-3
769.845772E-3
769.744492E-3
769.747925E-3
769.374275E-3
769.429779E-3
769.367981E-3
769.237518E-3
769.312477E-3
769.083595E-3
769.153404E-3
769.078445E-3
769.002914E-3
769.083595E-3
768.797493E-3
768.771744E-3
768.656731E-3
768.527412E-3
768.458748E-3
768.238449E-3
768.191528E-3
768.027306E-3
767.893982E-3
767.800713E-3
767.596436E-3
767.546654E-3
767.407608E-3
767.324638E-3
767.405319E-3
767.598724E-3
767.823601E-3
768.559456E-3
769.595718E-3
771.048546E-3
772.582054E-3
774.447441E-3
776.161766E-3
777.554512E-3
778.248596E-3
778.649712E-3
778.807068E-3
778.553009E-3
777.964211E-3
777.246094E-3
776.606941E-3
775.991821E-3
775.387573E-3
775.172424E-3
774.688911E-3
774.417686E-3
774.473763E-3
774.498367E-3
774.617386E-3
774.836540E-3
774.922371E-3
775.060844E-3
774.740410E-3
774.581909E-3
774.283791E-3
773.780251E-3
773.387146E-3
773.124504E-3
772.933960E-3
773.020363E-3
773.083878E-3
773.561668E-3
773.633766E-3
773.894119E-3
774.057198E-3
774.072075E-3
774.014282E-3
774.004555E-3
773.720741E-3
773.522758E-3
773.386002E-3
773.028374E-3
772.785759E-3
772.443581E-3
772.204399E-3
771.901131E-3
771.654510E-3
771.585274E-3
771.319771E-3
771.169853E-3
770.971298E-3
770.944977E-3
770.823669E-3
770.678902E-3
770.676613E-3
770.511818E-3
770.608521E-3
770.440292E-3
770.390511E-3
770.442009E-3
770.383072E-3
770.351601E-3
770.361900E-3
770.335007E-3
770.330429E-3
770.083237E-3
770.154190E-3
770.197105E-3
770.274353E-3
770.197678E-3
770.075226E-3
770.026588E-3
769.965363E-3
769.903564E-3
769.564819E-3
769.616890E-3
769.613457E-3
769.507027E-3
769.494438E-3
769.405174E-3
769.357109E-3
769.328499E-3
769.203758E-3
769.106483E-3
769.157982E-3
769.072723E-3
768.919373E-3
768.780327E-3
768.683624E-3
768.558884E-3
768.438721E-3
768.296814E-3
768.191528E-3
768.043327E-3
768.059349E-3
768.018723E-3
767.982674E-3
767.962074E-3
768.020439E-3
768.463326E-3
769.080734E-3
770.224571E-3
771.562958E-3
773.102760E-3
774.732399E-3
776.315117E-3
777.549934E-3
778.467178E-3
778.694344E-3
778.724670E-3
778.263474E-3
777.814293E-3
777.157974E-3
776.457596E-3
775.850487E-3
775.220490E-3
774.803925E-3
774.273491E-3
774.342728E-3
774.338722E-3
774.310684E-3
774.542999E-3
774.529266E-3
774.405670E-3
774.457169E-3
774.089813E-3
773.458672E-3
773.166847E-3
772.840118E-3
772.763443E-3
772.648430E-3
772.711945E-3
773.061562E-3
773.251534E-3
773.600006E-3
773.671532E-3
773.982239E-3
774.085236E-3
774.036598E-3
773.931885E-3
773.602867E-3
773.370552E-3
773.058128E-3
772.781181E-3
772.744560E-3
772.188950E-3
771.940041E-3
771.699142E-3
771.311188E-3
771.192169E-3
770.938110E-3
770.740128E-3
770.690346E-3
770.633125E-3
770.522690E-3
770.343018E-3
770.258331E-3
770.190239E-3
770.114708E-3
770.073509E-3
769.981956E-3
769.944763E-3
770.011711E-3
769.958496E-3
769.902992E-3
769.842911E-3
769.767380E-3
769.826317E-3
769.703293E-3
769.702148E-3
769.715309E-3
769.624329E-3
769.548225E-3
769.378853E-3
769.414330E-3
769.289017E-3
769.265556E-3
769.135666E-3
769.271278E-3
769.128227E-3
769.042969E-3
768.927383E-3
768.828964E-3
768.724251E-3
768.684196E-3
768.554306E-3
768.482780E-3
768.381500E-3
768.161774E-3
768.041611E-3
767.875099E-3
767.647934E-3
767.530632E-3
767.385292E-3
767.444229E-3
767.447662E-3
767.353821E-3
767.518044E-3
767.797852E-3
768.576050E-3
769.626617E-3
771.037102E-3
772.777176E-3
774.483490E-3
776.197243E-3
777.398872E-3
778.515816E-3
778.987312E-3
779.034233E-3
778.801346E-3
778.222275E-3
777.692986E-3
776.898766E-3
776.292801E-3
775.795555E-3
775.305176E-3
775.138664E-3
774.996185E-3
774.928093E-3
775.168991E-3
775.211334E-3
775.403023E-3
775.563240E-3
775.635338E-3
775.551224E-3
775.185013E-3
774.851990E-3
774.294662E-3
773.880386E-3
773.641777E-3
773.488426E-3
773.456383E-3
773.281860E-3
773.669243E-3
773.981667E-3
774.193382E-3
774.353600E-3
774.399376E-3
774.438286E-3
774.319839E-3
774.129868E-3
773.920441E-3
773.606300E-3
773.336792E-3
773.178291E-3
772.816086E-3
772.545433E-3
772.275925E-3
772.254753E-3
771.986389E-3
771.640205E-3
771.414757E-3
771.272850E-3
771.146393E-3
771.168709E-3
771.034813E-3
770.929527E-3
770.562172E-3
770.665169E-3
770.702362E-3
770.649147E-3
770.603943E-3
770.576477E-3
770.568466E-3
770.531845E-3
770.541000E-3
770.619965E-3
770.530701E-3
770.402527E-3
770.370483E-3
770.238304E-3
770.198822E-3
770.099831E-3
769.992256E-3
769.995117E-3
769.753075E-3
769.770241E-3
769.773674E-3
769.638634E-3
769.496727E-3
769.354248E-3
769.295883E-3
769.283295E-3
769.212341E-3
769.147682E-3
769.016075E-3
768.963432E-3
768.890190E-3
768.745995E-3
768.706512E-3
768.542290E-3
768.450737E-3
768.290520E-3
768.082237E-3
768.066788E-3
767.872810E-3
767.801285E-3
767.631340E-3
767.514038E-3
767.550087E-3
767.542076E-3
767.698860E-3
767.920303E-3
768.416977E-3
769.387436E-3
770.689201E-3
772.346306E-3
774.097824E-3
775.781822E-3
777.244949E-3
778.313828E-3
778.758430E-3
779.157829E-3
778.926659E-3
778.386497E-3
777.759933E-3
777.037811E-3
776.461601E-3
775.927162E-3
775.448799E-3
775.068855E-3
774.909210E-3
774.905205E-3
774.925804E-3
775.110626E-3
775.257683E-3
775.361252E-3
775.765228E-3
775.500298E-3
775.188446E-3
774.758720E-3
774.330139E-3
773.946762E-3
773.591423E-3
773.427773E-3
773.351097E-3
773.388290E-3
773.734474E-3
773.910713E-3
774.246597E-3
774.320984E-3
774.343872E-3
774.444008E-3
774.267197E-3
774.081230E-3
773.530197E-3
773.511887E-3
773.373985E-3
773.039818E-3
772.773170E-3
772.562027E-3
772.396088E-3
772.078514E-3
771.879387E-3
771.811867E-3
771.587563E-3
771.352959E-3
771.334648E-3
771.189880E-3
771.091461E-3
770.985031E-3
770.964432E-3
770.868301E-3
770.770454E-3
770.756149E-3
770.759010E-3
770.676613E-3
770.764160E-3
770.638847E-3
770.670891E-3
770.695496E-3
770.610237E-3
770.712090E-3
770.579910E-3
770.530701E-3
770.407677E-3
770.377922E-3
770.283508E-3
770.262909E-3
770.254898E-3
770.107269E-3
770.042610E-3
769.924736E-3
769.763374E-3
769.751930E-3
769.604874E-3
769.552231E-3
769.620323E-3
769.582558E-3
769.379997E-3
769.310188E-3
769.236946E-3
769.221497E-3
769.123077E-3
769.032669E-3
768.891907E-3
768.767738E-3
768.496513E-3
768.412399E-3
768.330002E-3
768.256187E-3
768.197250E-3
768.213844E-3
768.175507E-3
768.185234E-3
