Notes :


2023-11-11 ¿ÀÀü 12:05:27
Volts
Ch : LED 2,
782.448578E-3
782.173920E-3
781.815147E-3
781.645775E-3
781.272125E-3
780.993462E-3
780.699921E-3
780.290222E-3
780.000687E-3
779.798126E-3
779.510307E-3
779.371834E-3
778.799629E-3
778.725815E-3
778.623962E-3
778.256035E-3
778.111839E-3
777.814293E-3
777.576256E-3
777.469254E-3
777.228355E-3
776.927948E-3
776.539421E-3
776.207542E-3
775.937462E-3
775.531769E-3
775.245094E-3
774.975014E-3
774.759293E-3
774.331856E-3
774.074364E-3
773.840332E-3
773.525047E-3
773.255539E-3
772.931671E-3
772.632408E-3
772.472763E-3
771.753502E-3
771.617889E-3
771.315765E-3
771.027946E-3
770.871735E-3
770.290947E-3
769.804001E-3
769.551659E-3
768.976593E-3
768.511963E-3
768.304825E-3
768.220139E-3
768.265915E-3
768.359756E-3
769.018364E-3
770.453453E-3
773.369980E-3
777.635193E-3
782.635117E-3
788.789749E-3
794.413948E-3
799.328041E-3
803.176117E-3
805.410004E-3
806.380463E-3
806.009102E-3
804.795456E-3
803.164101E-3
800.958252E-3
799.106598E-3
797.422600E-3
796.185493E-3
795.374680E-3
794.772720E-3
794.682884E-3
794.914055E-3
795.311165E-3
795.825005E-3
796.031570E-3
796.249580E-3
795.891380E-3
795.063972E-3
793.401146E-3
791.268539E-3
789.649200E-3
788.321114E-3
787.651062E-3
787.656212E-3
787.998962E-3
788.832092E-3
789.677238E-3
790.598488E-3
791.031647E-3
791.380119E-3
791.501427E-3
791.252518E-3
790.756416E-3
790.200233E-3
789.349365E-3
788.754845E-3
787.862206E-3
787.118912E-3
786.271477E-3
785.479546E-3
784.811783E-3
784.151459E-3
783.546638E-3
783.249092E-3
782.767868E-3
782.584763E-3
781.965637E-3
781.698418E-3
781.415749E-3
780.954552E-3
780.603218E-3
780.254173E-3
779.752350E-3
779.355240E-3
778.966713E-3
778.713226E-3
778.385353E-3
778.189087E-3
777.964783E-3
777.534485E-3
777.316475E-3
777.127075E-3
776.619530E-3
776.613808E-3
776.261330E-3
776.097107E-3
775.860786E-3
775.550079E-3
775.192451E-3
774.896049E-3
774.732971E-3
774.572754E-3
774.425697E-3
774.267769E-3
773.990250E-3
773.759079E-3
773.415756E-3
773.147964E-3
772.919083E-3
772.532845E-3
772.464752E-3
771.790695E-3
771.492004E-3
771.074295E-3
770.488358E-3
769.994545E-3
769.377708E-3
768.781471E-3
768.410683E-3
767.883110E-3
767.816734E-3
767.999840E-3
768.190956E-3
768.977165E-3
770.827675E-3
774.171638E-3
778.734398E-3
784.395218E-3
790.502357E-3
796.214104E-3
801.450348E-3
805.272675E-3
807.776070E-3
808.919907E-3
808.677864E-3
807.537460E-3
805.834579E-3
804.010963E-3
802.257156E-3
800.588036E-3
799.601555E-3
798.750114E-3
798.278046E-3
798.307228E-3
797.936440E-3
798.591042E-3
799.039650E-3
799.251938E-3
799.519157E-3
799.295425E-3
798.628807E-3
797.220039E-3
795.559502E-3
793.797684E-3
792.014122E-3
790.879440E-3
790.213966E-3
790.159607E-3
790.502930E-3
791.057396E-3
791.814423E-3
792.489052E-3
793.144798E-3
793.549919E-3
793.307304E-3
793.072701E-3
792.467308E-3
791.682816E-3
791.001892E-3
790.204811E-3
789.433479E-3
788.666725E-3
787.766647E-3
787.040520E-3
786.143875E-3
785.638046E-3
785.006905E-3
784.504509E-3
784.112549E-3
783.569527E-3
783.542061E-3
782.996750E-3
782.531548E-3
782.061195E-3
781.600571E-3
781.268692E-3
780.906487E-3
780.642128E-3
780.298805E-3
779.883385E-3
779.555511E-3
779.170990E-3
778.761864E-3
778.531837E-3
777.958488E-3
777.782249E-3
777.487564E-3
777.273560E-3
776.943398E-3
776.538849E-3
776.452446E-3
776.115990E-3
775.790405E-3
775.546074E-3
775.116348E-3
774.756432E-3
774.590492E-3
774.353027E-3
774.164772E-3
773.784256E-3
773.661804E-3
773.397446E-3
773.279572E-3
773.177719E-3
772.588348E-3
772.744560E-3
772.504234E-3
772.230721E-3
771.919441E-3
771.442223E-3
771.103477E-3
770.467758E-3
769.882393E-3
769.178009E-3
768.652725E-3
768.281937E-3
767.764091E-3
767.665672E-3
767.752075E-3
768.172073E-3
769.370842E-3
771.955490E-3
776.272202E-3
781.430626E-3
787.358665E-3
793.621445E-3
799.243355E-3
803.882790E-3
807.254219E-3
809.038353E-3
809.326172E-3
808.799171E-3
807.489967E-3
805.794525E-3
804.071045E-3
802.516937E-3
801.255798E-3
800.424385E-3
799.821854E-3
799.634171E-3
799.825287E-3
800.082779E-3
800.540543E-3
801.050377E-3
801.310158E-3
801.639748E-3
801.208305E-3
800.622368E-3
799.137497E-3
796.995735E-3
795.291138E-3
793.628883E-3
792.551422E-3
792.097664E-3
792.037010E-3
792.539406E-3
793.621445E-3
794.104958E-3
794.820213E-3
795.041084E-3
795.130920E-3
795.034218E-3
794.467735E-3
793.821716E-3
793.017197E-3
792.117119E-3
791.417885E-3
790.699196E-3
789.974213E-3
789.182281E-3
788.425827E-3
787.818718E-3
787.155533E-3
786.655426E-3
786.117554E-3
785.662079E-3
785.172844E-3
784.882736E-3
784.546852E-3
783.994675E-3
783.645058E-3
783.388710E-3
782.911491E-3
782.554436E-3
782.116699E-3
781.930161E-3
781.661797E-3
781.180573E-3
780.948830E-3
780.551147E-3
780.191803E-3
780.045319E-3
779.755211E-3
779.532051E-3
779.184723E-3
778.956985E-3
778.632545E-3
778.340721E-3
778.103256E-3
777.731323E-3
777.518463E-3
777.002335E-3
776.736259E-3
776.447296E-3
775.998116E-3
775.769806E-3
775.517464E-3
775.231934E-3
775.076866E-3
774.756432E-3
774.609375E-3
774.418831E-3
774.237442E-3
773.868942E-3
773.585129E-3
773.324203E-3
772.933388E-3
772.816658E-3
772.296524E-3
771.849060E-3
771.315193E-3
770.918655E-3
770.431709E-3
770.326996E-3
770.007706E-3
770.142746E-3
770.423698E-3
770.959854E-3
772.596931E-3
775.491714E-3
780.051613E-3
785.537338E-3
791.428757E-3
797.291565E-3
802.055168E-3
805.787659E-3
807.925415E-3
808.864975E-3
808.503342E-3
807.152939E-3
805.634880E-3
803.871918E-3
802.087784E-3
800.414658E-3
799.016190E-3
798.187637E-3
797.488976E-3
797.248077E-3
797.325897E-3
797.549629E-3
797.856331E-3
797.903252E-3
797.994804E-3
797.534180E-3
796.619797E-3
794.918633E-3
792.937088E-3
791.312027E-3
790.101814E-3
789.352226E-3
789.323616E-3
789.891815E-3
790.483475E-3
791.536903E-3
792.473602E-3
793.319893E-3
793.576813E-3
793.619728E-3
793.365097E-3
792.487335E-3
791.969490E-3
791.194153E-3
790.296364E-3
789.579391E-3
788.661003E-3
787.847328E-3
786.920357E-3
786.141586E-3
785.285568E-3
784.640694E-3
784.352875E-3
783.932877E-3
783.408165E-3
783.223343E-3
782.696342E-3
782.560158E-3
782.161331E-3
781.791687E-3
781.488991E-3
780.994606E-3
780.770874E-3
780.480194E-3
780.149460E-3
779.891396E-3
779.707718E-3
779.432487E-3
779.090309E-3
778.660583E-3
778.463173E-3
778.100967E-3
777.947617E-3
777.707291E-3
777.343941E-3
777.341652E-3
776.810646E-3
776.471329E-3
776.105118E-3
775.693130E-3
775.516891E-3
775.037384E-3
774.803352E-3
774.440002E-3
773.966217E-3
773.909569E-3
773.585701E-3
773.635483E-3
773.349380E-3
773.141098E-3
772.956848E-3
772.716522E-3
772.488785E-3
772.266769E-3
771.992683E-3
771.595573E-3
771.176147E-3
770.840836E-3
770.137596E-3
769.659805E-3
769.241524E-3
768.765450E-3
768.858719E-3
768.657875E-3
768.573189E-3
769.057274E-3
770.347023E-3
773.126793E-3
777.527046E-3
782.963562E-3
789.062691E-3
795.037651E-3
800.502777E-3
804.986000E-3
807.810402E-3
809.184837E-3
809.157372E-3
808.316231E-3
806.733513E-3
804.901886E-3
803.063965E-3
801.464081E-3
800.247574E-3
799.336052E-3
798.716354E-3
798.565865E-3
798.608208E-3
799.056244E-3
799.462509E-3
799.902534E-3
800.329971E-3
800.269318E-3
799.900246E-3
798.867989E-3
797.423172E-3
795.579529E-3
793.696404E-3
792.208672E-3
791.233063E-3
790.807915E-3
790.843964E-3
791.194725E-3
791.808128E-3
792.410660E-3
792.885590E-3
793.429756E-3
793.478394E-3
793.406296E-3
792.971992E-3
792.252159E-3
791.630745E-3
790.817070E-3
789.884949E-3
789.082718E-3
788.272476E-3
787.437057E-3
786.620522E-3
785.789680E-3
785.112762E-3
784.650421E-3
784.212685E-3
783.635330E-3
783.283424E-3
782.900047E-3
782.403374E-3
782.145882E-3
781.524467E-3
781.320763E-3
780.871582E-3
780.474472E-3
780.060196E-3
779.682541E-3
779.585838E-3
779.251671E-3
778.819084E-3
778.609085E-3
778.221703E-3
778.086090E-3
777.805138E-3
777.326775E-3
777.375412E-3
777.158546E-3
776.941681E-3
776.696777E-3
776.380348E-3
776.082230E-3
775.629616E-3
775.375557E-3
775.100899E-3
774.838257E-3
774.571037E-3
774.212837E-3
773.942184E-3
773.577690E-3
773.261261E-3
773.149681E-3
772.983170E-3
772.793198E-3
772.572327E-3
772.295952E-3
772.180939E-3
771.995544E-3
771.768951E-3
771.401596E-3
771.037102E-3
770.839691E-3
770.384789E-3
769.761086E-3
769.147682E-3
768.584061E-3
768.160629E-3
767.748642E-3
767.421913E-3
767.251968E-3
767.328072E-3
767.881393E-3
769.469833E-3
772.651291E-3
777.256393E-3
782.839966E-3
789.182281E-3
795.062828E-3
800.372887E-3
804.395485E-3
807.072258E-3
808.214951E-3
808.039856E-3
807.171822E-3
805.578804E-3
803.831863E-3
802.083778E-3
800.249863E-3
799.200439E-3
798.531532E-3
798.033142E-3
797.819138E-3
798.013115E-3
798.246574E-3
798.711205E-3
799.249649E-3
799.867630E-3
799.683952E-3
799.421310E-3
798.505783E-3
796.908760E-3
795.082855E-3
793.163109E-3
791.861916E-3
790.891457E-3
790.399361E-3
790.632248E-3
791.020775E-3
791.671371E-3
792.368889E-3
792.892456E-3
793.302155E-3
793.282700E-3
793.267822E-3
793.098450E-3
792.202950E-3
791.469955E-3
790.687752E-3
790.100670E-3
789.237213E-3
788.442993E-3
787.834740E-3
786.977577E-3
786.186790E-3
785.696411E-3
785.140228E-3
784.720802E-3
784.213257E-3
783.837891E-3
783.536911E-3
783.219910E-3
782.906342E-3
782.490921E-3
782.299232E-3
781.917000E-3
781.442642E-3
781.285286E-3
780.884743E-3
780.617523E-3
780.094528E-3
779.849052E-3
779.804420E-3
779.612160E-3
779.271126E-3
779.077148E-3
778.882027E-3
778.684616E-3
778.419685E-3
778.455734E-3
777.947044E-3
777.528191E-3
777.267838E-3
777.048683E-3
776.687050E-3
776.355171E-3
775.940323E-3
775.605583E-3
775.615311E-3
775.253105E-3
774.813080E-3
774.512672E-3
774.363899E-3
774.128723E-3
773.923302E-3
773.698997E-3
773.473549E-3
773.286438E-3
772.967720E-3
772.923660E-3
772.559166E-3
772.211838E-3
771.878815E-3
771.328926E-3
771.124077E-3
770.666885E-3
770.404816E-3
769.951630E-3
769.246101E-3
769.105911E-3
768.910789E-3
768.831253E-3
769.055557E-3
769.678116E-3
771.537781E-3
774.844551E-3
779.572105E-3
785.409164E-3
791.191292E-3
796.772003E-3
801.393127E-3
804.660416E-3
806.792450E-3
807.142639E-3
806.545830E-3
805.096436E-3
803.352928E-3
801.513863E-3
799.461365E-3
797.954178E-3
796.709633E-3
795.893669E-3
795.065689E-3
794.678879E-3
794.679451E-3
794.841957E-3
795.112038E-3
795.435333E-3
795.481682E-3
795.069695E-3
794.436264E-3
792.658997E-3
790.918922E-3
789.286995E-3
788.329697E-3
787.968636E-3
787.957764E-3
788.511658E-3
789.339638E-3
790.019417E-3
790.973854E-3
791.528320E-3
792.104530E-3
791.984367E-3
791.841316E-3
791.365814E-3
790.631104E-3
789.882660E-3
788.596916E-3
787.946320E-3
787.146378E-3
786.131859E-3
785.503578E-3
784.571457E-3
783.839035E-3
783.085442E-3
782.427406E-3
781.966782E-3
781.608009E-3
781.222343E-3
780.895042E-3
780.393219E-3
780.184364E-3
779.699707E-3
779.156685E-3
779.024506E-3
778.662872E-3
778.467751E-3
778.094673E-3
777.929878E-3
777.638626E-3
777.202606E-3
777.056122E-3
776.893044E-3
776.575470E-3
776.205254E-3
775.955200E-3
775.846481E-3
775.469398E-3
775.196457E-3
775.016785E-3
774.708939E-3
774.338150E-3
774.134445E-3
773.910713E-3
773.636055E-3
773.106194E-3
773.137665E-3
772.674751E-3
772.425842E-3
772.184944E-3
772.198105E-3
771.838188E-3
771.533203E-3
771.226501E-3
771.169853E-3
770.886040E-3
770.780182E-3
770.428276E-3
770.228004E-3
770.194244E-3
769.686699E-3
769.386292E-3
768.831253E-3
768.365479E-3
767.820168E-3
767.221642E-3
766.890907E-3
766.696358E-3
766.323853E-3
766.351891E-3
766.698074E-3
767.706871E-3
769.892693E-3
773.721886E-3
778.948975E-3
784.794044E-3
790.933228E-3
796.570587E-3
801.306152E-3
804.810905E-3
806.612206E-3
807.180405E-3
806.605911E-3
805.372238E-3
803.757477E-3
801.611137E-3
799.895096E-3
798.236847E-3
797.153664E-3
796.252441E-3
795.751762E-3
795.611000E-3
795.582962E-3
795.828438E-3
796.295929E-3
796.611786E-3
797.151375E-3
797.095299E-3
796.620369E-3
795.457649E-3
793.707275E-3
792.098236E-3
790.632248E-3
789.458084E-3
788.872147E-3
788.815498E-3
789.146233E-3
789.502144E-3
790.172768E-3
790.813065E-3
791.151810E-3
791.499138E-3
791.413879E-3
791.072273E-3
790.627098E-3
789.911270E-3
789.301300E-3
788.350296E-3
787.553215E-3
786.855698E-3
785.776520E-3
785.052109E-3
784.256172E-3
783.630180E-3
783.071709E-3
782.473183E-3
782.117271E-3
781.589699E-3
781.258392E-3
780.923653E-3
780.508232E-3
780.259323E-3
779.813004E-3
779.588699E-3
779.138947E-3
778.843117E-3
778.258896E-3
778.036880E-3
777.889824E-3
777.576256E-3
777.198601E-3
777.057266E-3
776.791191E-3
776.590919E-3
776.333427E-3
775.746346E-3
775.855064E-3
775.611305E-3
775.403023E-3
775.195885E-3
774.872017E-3
774.787903E-3
774.434853E-3
774.235153E-3
773.668098E-3
773.419762E-3
773.236084E-3
772.828674E-3
772.560883E-3
772.350311E-3
771.913719E-3
771.647644E-3
771.329498E-3
771.074295E-3
770.861435E-3
770.620537E-3
770.528984E-3
770.430565E-3
770.237732E-3
770.073509E-3
769.654083E-3
769.551086E-3
768.973732E-3
768.910217E-3
768.638420E-3
768.176651E-3
767.696571E-3
767.220497E-3
766.771317E-3
766.199112E-3
765.646362E-3
765.625191E-3
765.311050E-3
765.418625E-3
765.891838E-3
767.341805E-3
770.396233E-3
774.778175E-3
780.395508E-3
786.396217E-3
792.339706E-3
797.530174E-3
801.612854E-3
804.159737E-3
805.355072E-3
805.303574E-3
804.453850E-3
802.540970E-3
800.970840E-3
799.150658E-3
797.439194E-3
796.186638E-3
794.959831E-3
794.305229E-3
794.069481E-3
793.856049E-3
793.931580E-3
794.403076E-3
794.905472E-3
795.399284E-3
795.681953E-3
795.521164E-3
794.535255E-3
793.295288E-3
791.782379E-3
790.236855E-3
788.852119E-3
787.982368E-3
787.756920E-3
787.912560E-3
788.315964E-3
789.085579E-3
789.646912E-3
790.125847E-3
790.658569E-3
790.617943E-3
790.442848E-3
789.920425E-3
789.293861E-3
788.640404E-3
788.010979E-3
787.276268E-3
786.483192E-3
785.910416E-3
785.024643E-3
784.119415E-3
783.490562E-3
782.995605E-3
782.490349E-3
781.977654E-3
781.254387E-3
781.219482E-3
780.837822E-3
780.583191E-3
780.436707E-3
780.001831E-3
779.778099E-3
779.373550E-3
779.041672E-3
778.919220E-3
778.375626E-3
778.038025E-3
777.723312E-3
777.518463E-3
777.207184E-3
776.817513E-3
776.705360E-3
776.436424E-3
776.057625E-3
776.101685E-3
775.768089E-3
775.778389E-3
775.458527E-3
775.193024E-3
775.016785E-3
774.566460E-3
774.433136E-3
773.844337E-3
773.769951E-3
773.578835E-3
773.120499E-3
773.066711E-3
772.686195E-3
772.376060E-3
772.007561E-3
771.726036E-3
771.416473E-3
771.114349E-3
770.914078E-3
770.813942E-3
770.603371E-3
770.454025E-3
770.233727E-3
769.992828E-3
769.756508E-3
769.288445E-3
769.013214E-3
768.596649E-3
768.220139E-3
767.733765E-3
767.284584E-3
