Notes :


2023-11-10 ¿ÀÈÄ 10:05:54
Volts
Ch : LED 2,
301.719475E-3
301.855659E-3
302.032471E-3
302.144051E-3
302.506256E-3
302.459908E-3
302.557755E-3
302.479362E-3
302.255058E-3
302.214432E-3
301.896286E-3
301.698875E-3
301.452827E-3
301.120377E-3
300.918388E-3
300.668335E-3
300.441742E-3
300.286674E-3
299.938774E-3
299.753952E-3
299.565697E-3
299.449539E-3
299.256134E-3
299.113655E-3
298.995781E-3
298.806381E-3
298.805809E-3
298.776054E-3
298.756599E-3
298.679924E-3
298.611832E-3
298.540306E-3
298.406410E-3
298.267937E-3
298.307991E-3
298.128891E-3
298.025322E-3
298.064232E-3
297.974968E-3
298.003578E-3
297.930908E-3
297.860527E-3
297.849083E-3
297.738075E-3
297.832489E-3
297.665977E-3
297.779846E-3
297.677422E-3
297.585297E-3
297.534370E-3
297.350121E-3
297.299194E-3
297.287750E-3
297.180748E-3
297.207069E-3
297.163582E-3
297.042847E-3
296.838570E-3
296.621132E-3
296.459198E-3
296.319580E-3
296.246910E-3
296.311569E-3
296.478081E-3
296.914101E-3
297.845650E-3
299.361992E-3
301.393890E-3
303.690720E-3
306.080246E-3
308.264351E-3
310.057068E-3
311.254120E-3
311.691284E-3
311.651230E-3
310.899353E-3
309.899139E-3
308.774757E-3
307.806587E-3
307.049561E-3
306.029892E-3
305.743790E-3
305.396461E-3
305.070305E-3
305.009079E-3
305.085754E-3
305.252266E-3
305.380440E-3
305.358696E-3
305.216217E-3
304.981041E-3
304.523277E-3
303.997993E-3
303.458405E-3
303.134537E-3
302.815247E-3
302.873039E-3
303.002930E-3
303.113937E-3
303.466988E-3
303.644371E-3
303.837776E-3
304.070091E-3
303.933907E-3
303.966522E-3
303.764534E-3
303.507614E-3
303.058434E-3
302.896500E-3
302.652740E-3
302.328873E-3
302.070236E-3
301.874542E-3
301.526642E-3
301.366997E-3
301.067734E-3
300.973320E-3
300.796509E-3
300.575638E-3
300.524139E-3
300.309563E-3
300.211716E-3
300.274086E-3
300.084114E-3
299.922180E-3
299.834633E-3
299.791718E-3
299.733353E-3
299.635506E-3
299.569130E-3
299.439240E-3
299.325371E-3
299.151993E-3
299.207497E-3
299.276733E-3
299.309921E-3
299.268723E-3
299.266434E-3
299.114799E-3
299.021530E-3
298.876190E-3
298.916817E-3
298.790359E-3
298.577499E-3
298.614693E-3
298.558044E-3
298.540306E-3
298.535728E-3
298.415565E-3
298.387527E-3
298.214722E-3
298.059654E-3
298.063660E-3
297.811317E-3
297.676277E-3
297.557259E-3
297.389030E-3
297.263718E-3
297.188759E-3
297.195625E-3
297.352409E-3
297.666550E-3
298.246193E-3
299.185753E-3
300.738716E-3
302.731705E-3
305.018234E-3
307.483864E-3
309.554672E-3
311.558533E-3
312.690926E-3
313.129807E-3
313.066292E-3
312.369347E-3
311.540222E-3
310.346603E-3
309.156418E-3
308.249474E-3
307.322502E-3
306.774902E-3
306.374931E-3
306.178093E-3
306.193542E-3
306.188393E-3
306.427574E-3
306.497383E-3
306.512260E-3
306.418991E-3
305.932617E-3
305.504036E-3
304.800224E-3
304.298973E-3
303.991127E-3
303.897285E-3
303.912163E-3
304.092407E-3
304.411697E-3
304.722404E-3
304.851151E-3
305.074310E-3
305.050278E-3
305.046272E-3
304.932404E-3
304.656029E-3
304.542732E-3
304.216003E-3
304.013443E-3
303.820038E-3
303.458405E-3
303.275299E-3
302.901077E-3
302.443314E-3
302.364349E-3
302.049065E-3
301.841927E-3
301.651955E-3
301.541519E-3
301.433945E-3
301.333809E-3
301.337242E-3
301.289177E-3
301.149559E-3
301.178169E-3
301.118088E-3
301.025391E-3
300.942421E-3
300.819969E-3
300.765038E-3
300.522423E-3
300.463486E-3
300.428581E-3
300.388527E-3
300.430298E-3
300.371361E-3
300.528717E-3
300.438881E-3
300.353622E-3
300.359917E-3
300.141907E-3
300.132179E-3
299.951363E-3
299.922752E-3
299.907303E-3
299.745941E-3
299.777412E-3
299.802589E-3
299.728775E-3
299.815750E-3
299.685287E-3
299.758530E-3
299.570274E-3
299.527359E-3
299.443817E-3
299.327087E-3
299.367714E-3
299.236679E-3
299.108505E-3
299.153137E-3
298.920822E-3
298.851585E-3
298.789787E-3
298.610687E-3
298.545456E-3
298.539162E-3
298.553467E-3
298.754883E-3
299.374008E-3
300.680923E-3
302.364349E-3
304.666328E-3
307.245255E-3
309.918022E-3
312.555885E-3
314.612961E-3
315.921593E-3
316.423988E-3
316.205406E-3
315.415192E-3
314.310837E-3
313.254547E-3
311.949921E-3
310.931969E-3
310.140610E-3
309.539223E-3
309.378433E-3
309.198761E-3
309.150696E-3
309.329796E-3
309.461975E-3
309.607887E-3
309.653664E-3
309.579277E-3
309.507751E-3
308.969307E-3
308.504105E-3
307.981110E-3
307.464409E-3
306.966019E-3
306.640434E-3
306.596375E-3
306.546593E-3
306.569481E-3
306.674767E-3
306.794930E-3
307.021523E-3
307.029533E-3
306.944275E-3
306.919670E-3
306.808662E-3
306.757736E-3
306.601524E-3
306.139183E-3
305.853653E-3
305.368423E-3
305.121803E-3
304.677773E-3
304.349899E-3
304.301834E-3
303.975105E-3
303.734779E-3
303.568268E-3
303.417206E-3
303.342247E-3
303.199768E-3
302.974892E-3
302.824402E-3
302.608109E-3
302.604675E-3
302.362061E-3
302.358055E-3
302.212715E-3
302.189255E-3
302.115440E-3
302.086258E-3
302.078819E-3
301.965523E-3
301.912880E-3
301.927757E-3
301.734352E-3
301.716614E-3
301.726913E-3
301.619339E-3
301.470566E-3
301.294899E-3
301.251984E-3
301.137543E-3
301.110649E-3
301.030540E-3
300.925255E-3
301.028824E-3
300.867462E-3
300.688934E-3
300.639153E-3
300.473213E-3
300.430870E-3
300.381088E-3
300.230598E-3
300.237465E-3
300.291252E-3
300.235748E-3
300.132751E-3
300.085831E-3
300.104141E-3
299.866104E-3
299.690437E-3
299.598885E-3
299.351692E-3
299.210358E-3
299.012947E-3
299.063301E-3
299.060440E-3
299.062729E-3
299.475288E-3
300.187683E-3
301.405334E-3
303.195190E-3
305.490303E-3
308.045769E-3
310.508537E-3
312.757874E-3
314.548874E-3
315.460396E-3
315.622902E-3
315.109062E-3
314.227295E-3
313.119507E-3
311.856079E-3
310.807228E-3
309.708023E-3
308.906364E-3
308.382225E-3
308.005142E-3
307.911301E-3
307.810593E-3
307.846069E-3
308.056068E-3
308.263206E-3
308.366776E-3
308.272934E-3
308.028603E-3
307.573128E-3
306.847000E-3
306.324005E-3
305.880547E-3
305.678558E-3
305.565834E-3
305.684853E-3
306.035042E-3
306.218147E-3
306.460762E-3
306.523705E-3
306.617546E-3
306.674767E-3
306.497955E-3
306.321144E-3
306.070518E-3
305.732346E-3
305.498314E-3
305.157852E-3
304.882622E-3
304.467773E-3
304.096985E-3
303.949928E-3
303.705025E-3
303.486443E-3
303.389168E-3
303.107071E-3
302.993774E-3
302.768326E-3
302.634430E-3
302.378654E-3
302.238464E-3
302.252769E-3
302.041054E-3
301.939201E-3
301.944351E-3
301.832199E-3
301.705170E-3
301.628494E-3
301.626778E-3
301.506042E-3
301.375580E-3
301.411057E-3
301.365852E-3
301.352119E-3
301.287460E-3
301.270294E-3
301.290894E-3
301.163864E-3
301.062012E-3
300.956154E-3
300.844574E-3
300.866318E-3
300.708389E-3
300.671196E-3
300.636292E-3
300.537300E-3
300.618553E-3
300.529861E-3
300.517273E-3
300.430870E-3
300.265503E-3
300.290108E-3
300.124741E-3
300.011444E-3
299.831772E-3
299.684715E-3
299.614906E-3
299.414062E-3
299.351692E-3
299.357986E-3
299.362564E-3
299.513626E-3
299.673271E-3
300.279808E-3
301.424789E-3
303.076744E-3
305.307198E-3
307.635498E-3
310.173225E-3
312.458038E-3
314.255905E-3
315.604019E-3
316.001129E-3
315.751648E-3
315.023804E-3
313.929176E-3
312.837982E-3
311.548805E-3
310.751724E-3
309.886551E-3
309.197617E-3
308.865738E-3
308.592224E-3
308.593941E-3
308.659172E-3
308.706093E-3
308.915520E-3
308.773041E-3
308.866882E-3
308.690643E-3
308.121300E-3
307.585716E-3
307.030678E-3
306.590652E-3
306.298256E-3
306.058502E-3
306.179237E-3
306.214142E-3
306.363487E-3
306.582069E-3
306.645584E-3
306.841850E-3
306.694794E-3
306.663322E-3
306.600380E-3
306.412697E-3
306.386375E-3
306.128311E-3
305.837631E-3
305.446815E-3
305.065727E-3
304.710388E-3
304.328156E-3
304.031181E-3
303.797150E-3
303.553963E-3
303.487015E-3
303.285027E-3
303.077888E-3
303.133965E-3
303.000069E-3
302.981186E-3
302.706528E-3
302.537155E-3
302.495956E-3
302.265930E-3
302.289963E-3
302.208138E-3
302.033043E-3
301.954079E-3
301.869965E-3
301.952934E-3
302.010727E-3
302.010155E-3
301.963806E-3
301.855659E-3
301.806450E-3
301.762962E-3
301.637077E-3
301.573563E-3
301.422501E-3
301.446533E-3
301.206207E-3
301.264572E-3
301.273727E-3
301.169586E-3
301.201057E-3
301.062012E-3
301.094055E-3
301.014519E-3
300.823402E-3
300.901222E-3
300.778198E-3
300.680351E-3
300.666618E-3
300.564194E-3
300.644875E-3
300.676918E-3
300.652313E-3
300.500679E-3
300.222015E-3
300.149345E-3
299.916458E-3
299.780846E-3
299.754524E-3
299.704742E-3
299.806595E-3
299.920464E-3
300.604248E-3
301.928329E-3
303.584862E-3
305.815887E-3
308.154488E-3
310.644722E-3
313.022232E-3
314.782906E-3
316.007423E-3
316.310120E-3
316.047478E-3
315.354538E-3
314.137459E-3
313.040543E-3
311.947060E-3
310.945702E-3
310.107994E-3
309.408760E-3
309.006500E-3
308.721542E-3
308.623695E-3
308.681488E-3
308.648872E-3
308.717537E-3
308.870888E-3
308.854294E-3
308.691788E-3
308.359909E-3
307.933617E-3
307.287025E-3
306.758881E-3
306.422424E-3
305.993271E-3
305.952644E-3
305.917740E-3
305.927467E-3
306.138039E-3
306.267357E-3
306.459045E-3
306.485367E-3
306.435585E-3
306.349754E-3
306.217575E-3
306.002998E-3
305.823326E-3
305.492020E-3
305.210495E-3
304.864883E-3
304.565048E-3
304.242897E-3
303.988266E-3
303.854370E-3
303.489876E-3
303.368568E-3
303.195190E-3
303.089905E-3
302.950287E-3
302.756310E-3
302.582359E-3
302.391815E-3
302.215004E-3
302.228737E-3
302.048492E-3
302.062798E-3
301.999283E-3
301.873398E-3
301.920891E-3
301.668549E-3
301.678848E-3
301.643372E-3
301.550674E-3
301.509476E-3
301.345825E-3
301.363564E-3
301.208496E-3
301.274300E-3
301.230240E-3
301.102066E-3
300.965881E-3
300.857735E-3
300.789070E-3
300.774765E-3
300.540161E-3
300.442314E-3
300.402832E-3
300.254059E-3
300.270653E-3
300.172234E-3
300.177956E-3
300.027466E-3
299.959373E-3
299.901581E-3
299.717903E-3
299.763107E-3
299.570274E-3
299.375725E-3
299.381447E-3
299.106216E-3
299.049568E-3
298.919678E-3
298.760033E-3
298.816109E-3
298.582077E-3
298.565483E-3
298.492241E-3
298.590088E-3
299.169159E-3
300.255775E-3
301.916313E-3
303.798866E-3
306.188965E-3
308.409119E-3
310.292244E-3
311.884117E-3
312.677193E-3
312.761879E-3
312.274361E-3
311.291313E-3
310.144043E-3
309.032822E-3
307.930183E-3
306.983185E-3
306.107712E-3
305.504036E-3
305.121803E-3
304.903793E-3
304.852867E-3
304.841423E-3
305.011940E-3
304.917526E-3
305.044556E-3
304.847717E-3
304.548454E-3
304.201126E-3
303.721619E-3
303.263855E-3
303.042412E-3
302.836990E-3
303.067589E-3
303.258705E-3
303.483582E-3
303.697586E-3
303.843498E-3
303.983116E-3
304.022026E-3
303.961945E-3
303.908730E-3
303.698730E-3
303.593445E-3
303.347397E-3
303.114510E-3
302.836418E-3
302.404976E-3
302.158928E-3
301.784134E-3
301.503181E-3
301.420784E-3
301.076889E-3
300.973892E-3
300.811386E-3
300.644302E-3
300.497246E-3
300.387955E-3
300.406265E-3
300.268936E-3
300.192261E-3
300.103569E-3
299.966812E-3
299.959373E-3
299.921608E-3
299.764252E-3
299.728775E-3
299.601173E-3
299.654388E-3
299.654388E-3
299.572563E-3
299.594879E-3
299.539375E-3
299.495316E-3
299.637794E-3
299.436951E-3
299.365997E-3
299.161148E-3
299.261284E-3
299.106789E-3
299.016380E-3
299.091339E-3
299.031830E-3
299.104500E-3
299.031830E-3
298.884773E-3
298.864174E-3
298.847008E-3
298.834991E-3
298.747444E-3
298.653030E-3
298.520851E-3
298.467636E-3
298.333740E-3
298.257065E-3
298.082542E-3
298.033333E-3
297.848511E-3
297.866249E-3
297.980118E-3
298.235893E-3
299.117661E-3
300.334167E-3
302.041054E-3
304.073524E-3
306.329727E-3
308.643723E-3
310.598373E-3
312.222862E-3
312.928963E-3
313.026810E-3
312.572479E-3
311.679840E-3
310.687637E-3
309.609032E-3
308.497238E-3
307.634354E-3
306.875610E-3
306.482506E-3
306.133461E-3
305.940628E-3
305.969810E-3
305.913734E-3
306.024742E-3
306.072235E-3
306.148338E-3
306.191826E-3
305.881119E-3
305.481720E-3
305.055428E-3
304.645729E-3
304.318428E-3
304.030037E-3
303.951645E-3
303.800011E-3
303.732491E-3
303.935051E-3
303.918457E-3
304.131889E-3
304.235458E-3
304.300690E-3
304.294968E-3
304.135323E-3
304.164505E-3
304.220581E-3
303.898430E-3
303.549957E-3
303.137398E-3
302.886772E-3
302.613258E-3
302.302551E-3
302.129745E-3
301.825333E-3
301.830482E-3
301.732635E-3
301.468849E-3
301.368141E-3
301.127243E-3
300.939560E-3
300.821686E-3
300.666618E-3
300.624847E-3
300.465202E-3
300.497818E-3
300.337601E-3
300.349617E-3
300.428581E-3
300.302696E-3
300.279236E-3
300.086403E-3
299.998283E-3
299.992561E-3
299.883270E-3
299.894142E-3
299.831772E-3
299.815178E-3
299.832344E-3
299.808311E-3
299.719620E-3
299.693298E-3
299.626923E-3
299.646378E-3
299.450111E-3
299.400902E-3
299.359131E-3
299.196625E-3
299.249268E-3
299.157143E-3
299.150848E-3
299.210930E-3
299.042702E-3
299.156570E-3
299.030113E-3
299.016953E-3
298.954010E-3
298.762321E-3
298.631287E-3
298.424149E-3
298.269653E-3
298.176956E-3
298.170662E-3
298.200417E-3
298.178673E-3
298.405266E-3
299.028397E-3
300.109291E-3
301.641655E-3
303.526497E-3
305.657959E-3
307.842064E-3
309.845924E-3
311.596298E-3
312.477493E-3
312.969017E-3
312.826538E-3
312.018013E-3
311.214066E-3
310.013008E-3
308.880043E-3
307.899857E-3
307.031250E-3
306.582642E-3
305.980110E-3
305.673409E-3
305.566978E-3
305.542946E-3
305.703163E-3
305.680275E-3
305.818748E-3
305.788422E-3
305.699730E-3
305.316353E-3
304.779625E-3
304.336739E-3
303.940201E-3
303.577995E-3
303.433800E-3
303.334808E-3
303.440094E-3
303.734207E-3
303.784561E-3
303.998566E-3
304.106140E-3
304.125595E-3
304.098701E-3
303.932762E-3
303.939629E-3
303.680420E-3
303.565979E-3
303.366852E-3
303.045845E-3
302.799225E-3
302.547455E-3
302.280807E-3
302.019882E-3
301.787567E-3
301.646233E-3
301.529503E-3
301.343536E-3
301.166153E-3
300.916672E-3
300.909805E-3
300.745010E-3
300.670624E-3
300.568771E-3
300.452614E-3
300.419426E-3
300.234032E-3
300.201416E-3
300.147057E-3
300.024033E-3
300.043488E-3
299.817467E-3
299.884415E-3
299.814034E-3
299.785423E-3
299.917603E-3
299.778557E-3
299.766541E-3
299.636078E-3
299.572563E-3
299.470711E-3
299.216080E-3
299.245834E-3
299.179459E-3
299.011803E-3
299.133682E-3
299.074173E-3
299.043274E-3
298.970032E-3
298.887634E-3
298.817825E-3
298.636436E-3
298.526001E-3
298.531723E-3
298.448753E-3
298.438454E-3
298.230171E-3
298.088264E-3
298.010445E-3
297.834778E-3
297.757530E-3
297.648239E-3
297.671127E-3
297.533226E-3
297.502327E-3
297.942352E-3
298.666763E-3
299.995995E-3
301.760674E-3
303.743935E-3
305.810165E-3
307.652664E-3
309.138107E-3
310.194969E-3
310.359192E-3
310.124588E-3
309.326363E-3
308.278084E-3
307.256126E-3
306.182098E-3
305.233383E-3
304.224586E-3
303.588867E-3
303.144836E-3
302.827263E-3
302.764320E-3
302.697945E-3
302.693367E-3
302.779770E-3
302.714539E-3
302.648163E-3
302.302551E-3
302.046776E-3
301.540947E-3
301.168442E-3
301.076889E-3
301.047134E-3
301.285744E-3
301.472855E-3
