Notes :


2023-11-06 ¿ÀÈÄ 10:56:14
Volts
Ch : LED 2,
371.193695E-3
371.277237E-3
371.230888E-3
371.302414E-3
371.293831E-3
371.376228E-3
371.781921E-3
372.270012E-3
373.116875E-3
373.841858E-3
374.579430E-3
375.287819E-3
375.779343E-3
376.130104E-3
376.099777E-3
375.925827E-3
375.724983E-3
375.360489E-3
375.171661E-3
374.863815E-3
374.550247E-3
374.392319E-3
374.050140E-3
373.951721E-3
373.887062E-3
373.802376E-3
373.864746E-3
373.921967E-3
374.069595E-3
373.998642E-3
373.958015E-3
373.932266E-3
373.723412E-3
373.713684E-3
373.614120E-3
373.587227E-3
373.703957E-3
373.817825E-3
374.066162E-3
374.192047E-3
374.206352E-3
374.273300E-3
374.189186E-3
374.194336E-3
374.219513E-3
374.127388E-3
374.006081E-3
373.879051E-3
373.820686E-3
373.526573E-3
373.313713E-3
373.215294E-3
373.057938E-3
372.974968E-3
372.803879E-3
372.757530E-3
372.724915E-3
372.514915E-3
372.465706E-3
372.415924E-3
372.275734E-3
372.200775E-3
372.052574E-3
372.088051E-3
371.967888E-3
371.765900E-3
371.847153E-3
371.751595E-3
371.638870E-3
371.613693E-3
371.514130E-3
371.476936E-3
371.427727E-3
371.357346E-3
371.261215E-3
371.201706E-3
371.264648E-3
371.133614E-3
371.088409E-3
371.075821E-3
370.971107E-3
370.983696E-3
370.852661E-3
370.829773E-3
370.834351E-3
370.766258E-3
370.885849E-3
370.757103E-3
370.694733E-3
370.588303E-3
370.465851E-3
370.488739E-3
370.313072E-3
370.348549E-3
370.228386E-3
370.118523E-3
370.121384E-3
370.011520E-3
370.151138E-3
370.390892E-3
370.776558E-3
371.550179E-3
372.229385E-3
373.021889E-3
373.778915E-3
374.396896E-3
374.881554E-3
375.052643E-3
375.029755E-3
374.967384E-3
374.641228E-3
374.383163E-3
374.155426E-3
373.865891E-3
373.530006E-3
373.221016E-3
373.094559E-3
372.952080E-3
372.813034E-3
372.829056E-3
372.797012E-3
372.980118E-3
372.934914E-3
372.980118E-3
372.946358E-3
372.756958E-3
372.657394E-3
372.465706E-3
372.438240E-3
372.389603E-3
372.352409E-3
372.464561E-3
372.451973E-3
372.624207E-3
372.700310E-3
372.712326E-3
372.765541E-3
372.732353E-3
372.715187E-3
372.617340E-3
372.592163E-3
372.577286E-3
372.389030E-3
372.263145E-3
372.098351E-3
371.892357E-3
371.902084E-3
371.752167E-3
371.709251E-3
371.642876E-3
371.541595E-3
371.515846E-3
371.378517E-3
371.375656E-3
371.292686E-3
371.195984E-3
371.166229E-3
371.106720E-3
371.083832E-3
371.027184E-3
370.929337E-3
371.059227E-3
370.908737E-3
370.877838E-3
370.939064E-3
370.800591E-3
370.803452E-3
370.762253E-3
370.770836E-3
370.675850E-3
370.581436E-3
370.623779E-3
370.545387E-3
370.548820E-3
370.525360E-3
370.430946E-3
370.499039E-3
370.331955E-3
370.334816E-3
370.275879E-3
370.193481E-3
370.278740E-3
370.145988E-3
370.091629E-3
370.055580E-3
369.973755E-3
369.853592E-3
369.809532E-3
369.747734E-3
369.660187E-3
369.577217E-3
369.562340E-3
369.435883E-3
369.397545E-3
369.517136E-3
369.735146E-3
370.255280E-3
370.797729E-3
371.551895E-3
372.395897E-3
373.194695E-3
373.851013E-3
374.251556E-3
374.506187E-3
374.573708E-3
374.410629E-3
374.198914E-3
373.989487E-3
373.673058E-3
373.429871E-3
373.156929E-3
372.891426E-3
372.622490E-3
372.561264E-3
372.506905E-3
372.394180E-3
372.440529E-3
372.612190E-3
372.593307E-3
372.607040E-3
372.517776E-3
372.503471E-3
372.334099E-3
372.235107E-3
372.130394E-3
371.998787E-3
371.982765E-3
371.947861E-3
372.092056E-3
372.109222E-3
372.039986E-3
372.122383E-3
372.098351E-3
372.177315E-3
372.269440E-3
372.159004E-3
372.165871E-3
372.100639E-3
372.033691E-3
371.895218E-3
371.716690E-3
371.642876E-3
371.519279E-3
371.368217E-3
371.350479E-3
371.198845E-3
371.303558E-3
371.066093E-3
370.935631E-3
370.988274E-3
370.800591E-3
370.793724E-3
370.665550E-3
370.555115E-3
370.584297E-3
370.401764E-3
370.539665E-3
370.471573E-3
370.380020E-3
370.359993E-3
370.269012E-3
370.368576E-3
370.243835E-3
370.239830E-3
370.266724E-3
370.047569E-3
370.022964E-3
369.947433E-3
369.939995E-3
369.920540E-3
369.781494E-3
369.844437E-3
369.738579E-3
369.714546E-3
369.699669E-3
369.598961E-3
369.593811E-3
369.506836E-3
369.449615E-3
369.421005E-3
369.276810E-3
369.263649E-3
369.124031E-3
369.110870E-3
369.013023E-3
368.825912E-3
368.867111E-3
368.763542E-3
368.677139E-3
368.736076E-3
368.599892E-3
368.678284E-3
368.834496E-3
369.247055E-3
369.898224E-3
370.564842E-3
371.426582E-3
372.108650E-3
372.683144E-3
373.124886E-3
373.220444E-3
373.174095E-3
373.013878E-3
372.641373E-3
372.513199E-3
372.093773E-3
371.864891E-3
371.557617E-3
371.261787E-3
371.094704E-3
370.774269E-3
370.660973E-3
370.589447E-3
370.644951E-3
370.711899E-3
370.521355E-3
370.529938E-3
370.389175E-3
370.126534E-3
369.964027E-3
369.775200E-3
369.732285E-3
369.687080E-3
369.603539E-3
369.711113E-3
369.706535E-3
369.696808E-3
369.775200E-3
369.777489E-3
369.770050E-3
369.676781E-3
369.692230E-3
369.600677E-3
369.416428E-3
369.394684E-3
369.070816E-3
368.898582E-3
368.754959E-3
368.519211E-3
368.383598E-3
368.272591E-3
368.107796E-3
367.972755E-3
367.912674E-3
367.809105E-3
367.599106E-3
367.617416E-3
367.518997E-3
367.277527E-3
367.248917E-3
367.119026E-3
367.082405E-3
367.046356E-3
366.931343E-3
366.910744E-3
366.775703E-3
366.755676E-3
366.751099E-3
366.739655E-3
366.751671E-3
366.530228E-3
366.544533E-3
366.446686E-3
366.437531E-3
366.338539E-3
366.269302E-3
366.246414E-3
366.117668E-3
366.060448E-3
366.066742E-3
366.002655E-3
365.921402E-3
365.848732E-3
365.824127E-3
365.785217E-3
365.603828E-3
365.516281E-3
365.409851E-3
365.302277E-3
365.206718E-3
365.166092E-3
365.186691E-3
365.136337E-3
365.059662E-3
365.160370E-3
365.402985E-3
365.908241E-3
366.452980E-3
367.034340E-3
367.834854E-3
368.411636E-3
369.022179E-3
369.362640E-3
369.455338E-3
369.464493E-3
369.247627E-3
369.113731E-3
368.850517E-3
368.515778E-3
368.284607E-3
368.037415E-3
367.818260E-3
367.631721E-3
367.459488E-3
367.375374E-3
367.385101E-3
367.534447E-3
367.509842E-3
367.532730E-3
367.508698E-3
367.327309E-3
367.209435E-3
367.083549E-3
367.016029E-3
366.962814E-3
366.917038E-3
366.972542E-3
366.990280E-3
367.010880E-3
367.121315E-3
367.057228E-3
367.209435E-3
367.157936E-3
367.216873E-3
367.219734E-3
367.120743E-3
367.061806E-3
367.012596E-3
366.850090E-3
366.837502E-3
366.593170E-3
366.537094E-3
366.402626E-3
366.303062E-3
366.195488E-3
366.111374E-3
366.001511E-3
365.934563E-3
365.832138E-3
365.833855E-3
365.733147E-3
365.806389E-3
365.737152E-3
365.578651E-3
365.677643E-3
365.575790E-3
365.558052E-3
365.575790E-3
365.423012E-3
365.444756E-3
365.331459E-3
365.338898E-3
365.363503E-3
365.255356E-3
365.295410E-3
365.158653E-3
365.109444E-3
365.192413E-3
365.156364E-3
365.199852E-3
365.098572E-3
365.152359E-3
365.122604E-3
364.974976E-3
364.994431E-3
364.904594E-3
364.947510E-3
364.945221E-3
364.853096E-3
364.870262E-3
364.702606E-3
364.662552E-3
364.610481E-3
364.528656E-3
364.544106E-3
364.427948E-3
364.450836E-3
364.442825E-3
364.417648E-3
364.659691E-3
365.005302E-3
365.656471E-3
366.210937E-3
366.780281E-3
367.691231E-3
368.237686E-3
368.666840E-3
369.002151E-3
369.070244E-3
369.113159E-3
368.930626E-3
368.729782E-3
368.527794E-3
368.231964E-3
368.111229E-3
367.794228E-3
367.678642E-3
367.521858E-3
367.444038E-3
367.423439E-3
367.446327E-3
367.553329E-3
367.680359E-3
367.579079E-3
367.617416E-3
367.381096E-3
367.313004E-3
367.190552E-3
367.123032E-3
367.127609E-3
367.074394E-3
367.112160E-3
367.149353E-3
367.156219E-3
367.243767E-3
367.271233E-3
367.267227E-3
367.347908E-3
367.268372E-3
367.335320E-3
367.300987E-3
367.206573E-3
367.133331E-3
366.984558E-3
367.057228E-3
366.796303E-3
366.811752E-3
366.703606E-3
366.654396E-3
366.668701E-3
366.505623E-3
366.461563E-3
366.442108E-3
366.324234E-3
366.408348E-3
366.333389E-3
366.289902E-3
366.282463E-3
366.240120E-3
366.299057E-3
366.119957E-3
366.124535E-3
366.113663E-3
366.106796E-3
366.113091E-3
366.123390E-3
366.177750E-3
366.055870E-3
366.037560E-3
366.083908E-3
365.962029E-3
365.948296E-3
365.918541E-3
365.895081E-3
366.014099E-3
365.968895E-3
365.942574E-3
365.859604E-3
365.786934E-3
365.766335E-3
365.744591E-3
365.793800E-3
365.764618E-3
365.733147E-3
365.809822E-3
365.750313E-3
365.677643E-3
365.602684E-3
365.465355E-3
365.591240E-3
365.326881E-3
365.279388E-3
365.321159E-3
365.286827E-3
365.291405E-3
365.245056E-3
365.489388E-3
365.950584E-3
366.518211E-3
367.247772E-3
368.003082E-3
368.586731E-3
369.198418E-3
369.532585E-3
369.704247E-3
369.669342E-3
369.535446E-3
369.394112E-3
369.164658E-3
368.853951E-3
368.568993E-3
368.375015E-3
368.166161E-3
367.962456E-3
367.880058E-3
367.844009E-3
367.789078E-3
367.987633E-3
367.930412E-3
368.000793E-3
367.983627E-3
367.899513E-3
367.799377E-3
367.597961E-3
367.551041E-3
367.577362E-3
367.611122E-3
367.680931E-3
367.735291E-3
367.856026E-3
367.937279E-3
367.996788E-3
368.038559E-3
367.967606E-3
368.058014E-3
368.072891E-3
368.032265E-3
368.050575E-3
367.864037E-3
367.785072E-3
367.607689E-3
367.494392E-3
367.430305E-3
367.324448E-3
367.215157E-3
367.166519E-3
367.132759E-3
367.021179E-3
366.850662E-3
366.854095E-3
366.907310E-3
366.751099E-3
366.707611E-3
366.554260E-3
366.572571E-3
366.420364E-3
366.356277E-3
366.321945E-3
366.249275E-3
366.372871E-3
366.264153E-3
366.213799E-3
366.216660E-3
366.074753E-3
366.126823E-3
366.119385E-3
366.075325E-3
366.080475E-3
365.920258E-3
366.020966E-3
365.919685E-3
365.925980E-3
365.878487E-3
365.825272E-3
365.866470E-3
365.795517E-3
365.709686E-3
365.550613E-3
365.496826E-3
365.377235E-3
365.364647E-3
365.275383E-3
365.321159E-3
365.150070E-3
365.116310E-3
364.982986E-3
364.895439E-3
365.116882E-3
365.337753E-3
365.964890E-3
366.382027E-3
367.049217E-3
367.710114E-3
368.278885E-3
368.787003E-3
369.063950E-3
369.120598E-3
369.195557E-3
368.908882E-3
368.741798E-3
368.565559E-3
368.325806E-3
368.147278E-3
367.795944E-3
367.742157E-3
367.588806E-3
367.472076E-3
367.478371E-3
367.353630E-3
367.436600E-3
367.499542E-3
367.508698E-3
367.560196E-3
367.449188E-3
367.334175E-3
367.056084E-3
366.959381E-3
367.049217E-3
367.039490E-3
367.219734E-3
367.113876E-3
367.256355E-3
367.400551E-3
367.335320E-3
367.451477E-3
367.451477E-3
367.361069E-3
367.433739E-3
367.294693E-3
367.247200E-3
367.169952E-3
367.114449E-3
367.016029E-3
366.815758E-3
366.768837E-3
366.594887E-3
366.581154E-3
366.533089E-3
366.414642E-3
366.382027E-3
366.436958E-3
366.300201E-3
366.295624E-3
366.152573E-3
366.077042E-3
366.088486E-3
366.019821E-3
366.043282E-3
366.000366E-3
365.989494E-3
365.935707E-3
365.817261E-3
365.849304E-3
365.798950E-3
365.769768E-3
365.739441E-3
365.753746E-3
365.719414E-3
365.653038E-3
365.738869E-3
365.713120E-3
365.626717E-3
365.606689E-3
365.537453E-3
365.629005E-3
365.678787E-3
365.459061E-3
365.452766E-3
365.360641E-3
365.499687E-3
365.456200E-3
365.352631E-3
365.346909E-3
365.203857E-3
365.207863E-3
365.141487E-3
365.024185E-3
365.053940E-3
364.992714E-3
364.987564E-3
364.977837E-3
365.160942E-3
365.543747E-3
365.931129E-3
366.548538E-3
367.308426E-3
367.912102E-3
368.546677E-3
368.931770E-3
369.243050E-3
369.441605E-3
369.320869E-3
369.284821E-3
369.079399E-3
368.962669E-3
368.704605E-3
368.465996E-3
368.384743E-3
368.022537E-3
367.955017E-3
367.882919E-3
367.893219E-3
367.985916E-3
367.981911E-3
368.118668E-3
368.114662E-3
367.999649E-3
368.041420E-3
367.810249E-3
367.765617E-3
367.524147E-3
367.541313E-3
367.609406E-3
367.611122E-3
367.644310E-3
367.754173E-3
367.842293E-3
367.787933E-3
367.806816E-3
367.852020E-3
367.877197E-3
367.811394E-3
367.936134E-3
367.818832E-3
367.750168E-3
367.704964E-3
367.528725E-3
367.592812E-3
367.325592E-3
367.355347E-3
367.262077E-3
367.143631E-3
367.234612E-3
367.061234E-3
367.040062E-3
367.032623E-3
366.934776E-3
366.988564E-3
366.852379E-3
366.896439E-3
366.848946E-3
366.795731E-3
366.755676E-3
366.703606E-3
366.650963E-3
366.730499E-3
366.672134E-3
366.772842E-3
366.700172E-3
366.728210E-3
366.708755E-3
366.649246E-3
366.693306E-3
366.554260E-3
366.563988E-3
366.625786E-3
366.533089E-3
366.636086E-3
366.497612E-3
366.524506E-3
366.491318E-3
366.432381E-3
366.499329E-3
366.395187E-3
366.375160E-3
366.402626E-3
366.270447E-3
366.242981E-3
366.088486E-3
366.122246E-3
365.967751E-3
365.913963E-3
365.968895E-3
365.895653E-3
365.884781E-3
366.086197E-3
366.387749E-3
366.949654E-3
367.568779E-3
368.239975E-3
368.982124E-3
369.455338E-3
369.874191E-3
369.965172E-3
370.010376E-3
369.926834E-3
369.710541E-3
369.676781E-3
369.355774E-3
369.077682E-3
368.868828E-3
368.637657E-3
368.540382E-3
368.440819E-3
368.422508E-3
368.396187E-3
368.358421E-3
368.491173E-3
368.559837E-3
368.562126E-3
368.458557E-3
368.295479E-3
368.251419E-3
368.041420E-3
368.046570E-3
368.131256E-3
368.225098E-3
368.250847E-3
368.292618E-3
368.400192E-3
368.483734E-3
368.485451E-3
368.459129E-3
368.441391E-3
368.495178E-3
368.428802E-3
368.337250E-3
368.367577E-3
368.167305E-3
367.994499E-3
367.943573E-3
367.823982E-3
367.649460E-3
367.499542E-3
367.518997E-3
367.416573E-3
367.351913E-3
367.357635E-3
367.261505E-3
367.176247E-3
367.214584E-3
367.062378E-3
367.091560E-3
366.933060E-3
366.880989E-3
366.893578E-3
366.711044E-3
366.743088E-3
366.728783E-3
366.707039E-3
366.688156E-3
366.467285E-3
366.582870E-3
366.494179E-3
366.496468E-3
366.467857E-3
366.340256E-3
366.360283E-3
366.258430E-3
366.224670E-3
366.210937E-3
366.095352E-3
366.143417E-3
366.051292E-3
365.975761E-3
365.911102E-3
365.745735E-3
365.783501E-3
365.578079E-3
365.555763E-3
365.530586E-3
365.444756E-3
365.455055E-3
365.396118E-3
365.459633E-3
365.785217E-3
366.075325E-3
366.631508E-3
367.173958E-3
367.841148E-3
368.428802E-3
368.816757E-3
369.185257E-3
369.331169E-3
369.366646E-3
369.187546E-3
369.032478E-3
368.954086E-3
368.653679E-3
368.444824E-3
368.309784E-3
368.074036E-3
367.848015E-3
367.750740E-3
367.744446E-3
367.857170E-3
367.815399E-3
367.928123E-3
367.914391E-3
367.864609E-3
367.811394E-3
367.594528E-3
367.358780E-3
367.325020E-3
367.247200E-3
367.319870E-3
367.298126E-3
367.407417E-3
367.451477E-3
367.443466E-3
367.710114E-3
367.672348E-3
367.569351E-3
367.553902E-3
367.504692E-3
367.469215E-3
367.381096E-3
367.339897E-3
367.218018E-3
367.148209E-3
367.039490E-3
366.914749E-3
366.922188E-3
366.750526E-3
366.725349E-3
366.675568E-3
366.463852E-3
366.507339E-3
366.456413E-3
366.303062E-3
366.392899E-3
366.220665E-3
366.212082E-3
366.081047E-3
366.127396E-3
366.088486E-3
365.964890E-3
366.049576E-3
365.955734E-3
365.924263E-3
365.978050E-3
365.883636E-3
365.837860E-3
365.843010E-3
365.805817E-3
365.930557E-3
365.764046E-3
365.790367E-3
365.788078E-3
365.712547E-3
365.715408E-3
365.610695E-3
365.703964E-3
365.689087E-3
