Notes :


2023-11-11 ¿ÀÀü 12:04:27
Volts
Ch : LED 2,
750.224876E-3
750.842285E-3
751.318359E-3
751.559830E-3
751.518631E-3
750.946426E-3
749.824333E-3
748.099709E-3
746.133614E-3
744.635582E-3
742.963028E-3
742.504692E-3
742.417717E-3
742.707825E-3
743.388748E-3
744.081116E-3
744.882774E-3
745.317078E-3
745.563698E-3
745.723915E-3
745.293617E-3
744.742584E-3
744.033051E-3
743.290329E-3
742.427444E-3
741.357994E-3
740.639305E-3
739.678574E-3
738.803673E-3
738.049507E-3
737.328529E-3
736.729431E-3
736.208725E-3
735.938644E-3
735.547829E-3
735.053444E-3
734.804535E-3
734.482956E-3
734.185410E-3
733.917046E-3
733.516502E-3
733.432388E-3
733.126259E-3
733.046722E-3
732.754898E-3
732.410431E-3
732.414436E-3
732.159805E-3
732.118034E-3
732.228470E-3
731.926346E-3
731.827927E-3
731.655693E-3
731.528091E-3
731.282616E-3
730.866051E-3
730.813408E-3
730.496979E-3
730.132484E-3
729.969978E-3
729.628372E-3
729.606628E-3
729.074478E-3
728.894234E-3
728.849030E-3
728.582954E-3
728.556633E-3
728.402138E-3
728.164673E-3
728.021622E-3
727.822495E-3
727.540398E-3
727.051735E-3
726.806831E-3
726.493835E-3
725.890732E-3
725.531387E-3
724.997520E-3
724.642754E-3
724.130630E-3
723.532104E-3
723.398209E-3
723.281479E-3
723.141289E-3
723.207664E-3
723.498344E-3
724.991226E-3
727.684021E-3
732.020760E-3
737.392616E-3
743.157005E-3
748.853874E-3
753.756523E-3
757.538223E-3
760.072517E-3
760.852432E-3
760.493660E-3
759.174728E-3
757.383156E-3
755.357552E-3
753.145981E-3
751.500320E-3
749.736214E-3
748.485374E-3
747.709465E-3
747.246552E-3
747.148705E-3
747.233963E-3
747.442818E-3
747.756958E-3
747.496033E-3
747.005653E-3
745.802307E-3
744.129181E-3
742.403984E-3
740.875053E-3
740.138054E-3
739.768410E-3
739.909172E-3
740.698242E-3
741.530800E-3
742.770767E-3
743.610764E-3
744.260216E-3
744.740295E-3
744.715118E-3
744.709396E-3
744.037056E-3
743.383026E-3
742.593956E-3
741.511345E-3
740.535736E-3
739.462280E-3
738.486671E-3
737.618637E-3
736.608696E-3
735.838509E-3
735.151291E-3
734.669495E-3
734.392548E-3
733.808899E-3
733.584595E-3
733.256721E-3
733.040428E-3
732.692528E-3
732.397270E-3
732.142639E-3
731.956100E-3
731.739807E-3
731.577301E-3
731.201935E-3
731.050301E-3
730.711555E-3
730.554771E-3
730.459785E-3
730.134201E-3
730.018616E-3
729.691315E-3
729.725647E-3
729.578590E-3
729.146576E-3
729.088211E-3
728.800964E-3
728.470230E-3
728.368950E-3
727.941513E-3
727.760124E-3
727.506638E-3
727.234840E-3
726.840019E-3
726.343346E-3
726.184845E-3
725.851250E-3
725.568581E-3
725.439835E-3
725.250435E-3
725.196648E-3
725.039291E-3
724.777222E-3
724.758339E-3
724.370384E-3
724.219322E-3
723.901749E-3
723.627663E-3
723.237991E-3
722.701836E-3
722.265244E-3
721.862984E-3
721.373177E-3
721.136856E-3
720.729446E-3
720.668793E-3
720.715714E-3
720.901680E-3
721.949387E-3
724.206734E-3
728.108597E-3
733.253860E-3
739.411926E-3
745.635223E-3
751.603317E-3
756.671906E-3
760.263634E-3
762.261200E-3
762.874603E-3
762.121010E-3
760.889626E-3
759.059715E-3
756.850433E-3
755.011940E-3
753.200912E-3
751.934052E-3
751.035690E-3
750.564194E-3
750.449753E-3
750.537872E-3
751.011658E-3
751.472855E-3
752.017021E-3
752.507401E-3
752.318573E-3
751.792717E-3
750.453758E-3
748.616409E-3
746.876907E-3
745.112801E-3
744.086838E-3
743.564987E-3
743.495750E-3
743.872833E-3
744.332886E-3
745.160866E-3
745.730782E-3
746.303558E-3
746.634865E-3
746.490097E-3
746.347618E-3
745.723343E-3
745.024681E-3
744.267082E-3
743.419647E-3
742.559052E-3
741.610336E-3
740.837860E-3
739.929199E-3
739.023399E-3
738.563347E-3
738.014603E-3
737.654114E-3
737.211227E-3
736.751747E-3
736.392403E-3
735.897446E-3
735.623360E-3
735.266876E-3
734.826279E-3
734.573364E-3
734.225464E-3
733.984566E-3
733.800888E-3
733.326530E-3
733.053589E-3
732.951736E-3
732.500267E-3
732.262230E-3
732.103157E-3
731.884575E-3
731.627655E-3
731.454277E-3
731.380463E-3
731.058311E-3
730.862617E-3
730.477524E-3
730.302429E-3
729.956245E-3
729.473877E-3
729.236412E-3
728.811836E-3
728.514862E-3
728.311157E-3
727.920341E-3
727.603340E-3
727.401352E-3
727.102089E-3
726.909256E-3
726.713562E-3
726.508141E-3
726.241493E-3
726.164818E-3
726.058388E-3
725.923347E-3
725.859833E-3
725.601768E-3
725.431824E-3
725.370026E-3
724.893951E-3
724.698257E-3
724.274826E-3
723.948097E-3
723.533821E-3
722.907829E-3
722.569656E-3
722.281265E-3
722.241783E-3
722.385406E-3
722.351074E-3
723.089790E-3
724.871635E-3
728.096581E-3
732.753754E-3
738.476372E-3
744.791222E-3
750.699806E-3
756.033897E-3
760.334015E-3
762.748718E-3
763.898277E-3
763.786125E-3
762.602234E-3
760.898209E-3
758.873749E-3
757.004356E-3
755.346680E-3
753.697014E-3
752.571487E-3
751.808167E-3
751.731491E-3
751.770973E-3
752.167511E-3
752.750587E-3
753.131104E-3
753.480148E-3
753.390312E-3
752.943993E-3
751.694298E-3
749.933624E-3
748.015022E-3
746.275520E-3
744.917107E-3
744.403839E-3
744.388962E-3
744.693947E-3
745.175743E-3
746.024323E-3
746.755600E-3
747.211075E-3
747.646523E-3
747.649956E-3
747.393608E-3
747.071457E-3
746.327591E-3
745.564270E-3
744.688225E-3
743.834496E-3
742.891502E-3
742.064667E-3
741.261292E-3
740.607834E-3
739.830208E-3
739.310074E-3
738.739014E-3
738.483238E-3
737.927628E-3
737.616348E-3
737.368584E-3
736.874771E-3
736.625290E-3
736.287689E-3
735.911751E-3
735.674286E-3
735.335541E-3
735.222244E-3
734.876633E-3
734.634590E-3
734.542465E-3
734.267235E-3
734.165955E-3
734.002304E-3
733.741951E-3
733.684158E-3
733.478165E-3
733.146858E-3
732.840157E-3
732.460213E-3
732.215881E-3
731.918907E-3
731.593323E-3
731.256866E-3
730.967331E-3
730.720139E-3
730.495834E-3
730.202866E-3
729.904175E-3
729.544258E-3
729.390907E-3
729.076195E-3
728.992081E-3
728.807259E-3
728.485680E-3
728.230476E-3
728.035927E-3
727.812195E-3
727.436829E-3
727.066612E-3
726.676369E-3
726.142502E-3
725.802612E-3
725.354004E-3
724.829292E-3
724.531746E-3
724.116325E-3
723.936653E-3
723.854256E-3
723.815918E-3
723.952103E-3
724.515724E-3
726.191139E-3
729.217529E-3
733.645821E-3
739.086914E-3
744.832420E-3
750.696945E-3
755.729485E-3
759.612465E-3
762.099266E-3
763.047981E-3
762.755585E-3
761.516762E-3
759.605598E-3
757.491875E-3
755.209351E-3
753.334808E-3
751.713181E-3
750.250626E-3
749.469566E-3
748.667908E-3
748.689079E-3
748.861313E-3
749.057007E-3
749.332809E-3
749.090195E-3
748.581505E-3
747.538948E-3
745.846939E-3
744.054794E-3
742.499542E-3
741.411209E-3
741.007233E-3
741.181755E-3
741.836929E-3
742.639732E-3
743.711472E-3
744.489670E-3
745.193481E-3
745.868111E-3
745.836639E-3
745.682144E-3
745.163727E-3
744.459343E-3
743.700027E-3
742.544746E-3
741.690445E-3
740.512848E-3
739.532661E-3
738.697243E-3
737.622643E-3
736.882210E-3
736.262512E-3
735.535812E-3
735.156441E-3
734.684944E-3
734.409142E-3
734.093857E-3
733.691025E-3
733.498764E-3
733.270454E-3
732.942009E-3
732.718277E-3
732.377243E-3
732.295418E-3
732.170105E-3
731.992149E-3
731.710052E-3
731.482315E-3
731.287193E-3
731.010818E-3
731.112099E-3
730.971336E-3
730.604553E-3
730.470657E-3
730.161095E-3
729.888153E-3
729.569435E-3
729.240990E-3
729.003525E-3
728.672791E-3
728.376389E-3
728.009605E-3
727.486610E-3
727.333260E-3
727.046585E-3
726.715279E-3
726.420593E-3
725.998878E-3
725.783157E-3
725.614929E-3
725.513077E-3
725.326538E-3
724.988937E-3
725.002670E-3
724.701691E-3
724.586678E-3
724.417877E-3
724.024773E-3
723.739815E-3
723.350143E-3
722.856331E-3
722.442055E-3
721.988297E-3
721.674728E-3
721.071625E-3
720.810127E-3
720.719147E-3
720.656776E-3
721.191216E-3
722.145653E-3
724.543190E-3
728.437614E-3
733.760262E-3
740.077400E-3
746.516418E-3
752.806091E-3
757.958221E-3
761.668968E-3
764.067078E-3
764.592361E-3
764.029884E-3
762.578201E-3
760.556602E-3
758.412552E-3
756.183815E-3
754.566193E-3
753.092194E-3
751.896286E-3
751.498604E-3
751.149559E-3
751.233101E-3
751.602173E-3
751.952934E-3
752.574921E-3
752.882767E-3
752.874184E-3
752.202415E-3
750.893211E-3
749.160004E-3
747.073174E-3
745.404053E-3
744.133186E-3
743.506622E-3
743.302917E-3
743.447685E-3
744.153786E-3
744.773483E-3
745.392036E-3
745.987129E-3
746.343613E-3
746.360779E-3
746.201706E-3
745.524788E-3
744.968033E-3
744.037056E-3
743.365860E-3
742.403412E-3
741.306496E-3
740.562057E-3
739.707184E-3
738.830566E-3
738.101006E-3
737.484741E-3
737.111664E-3
736.570358E-3
736.224174E-3
735.894012E-3
735.447693E-3
735.222816E-3
734.805107E-3
734.557343E-3
734.331894E-3
734.060097E-3
733.922195E-3
733.542252E-3
733.446693E-3
733.208084E-3
732.932281E-3
732.718277E-3
732.471085E-3
732.600975E-3
732.432175E-3
732.291985E-3
732.164955E-3
731.937790E-3
731.782722E-3
731.441116E-3
731.143570E-3
730.862617E-3
730.520439E-3
730.161095E-3
730.015755E-3
729.579163E-3
729.294777E-3
728.921127E-3
728.580666E-3
728.201866E-3
727.838516E-3
727.780724E-3
727.329826E-3
727.145004E-3
727.085495E-3
726.781082E-3
726.623726E-3
726.391983E-3
726.212883E-3
726.010895E-3
725.775146E-3
725.606346E-3
725.233269E-3
724.940300E-3
724.342346E-3
724.027061E-3
723.703194E-3
723.133850E-3
722.804832E-3
722.541046E-3
722.218895E-3
722.185135E-3
722.262383E-3
722.649765E-3
723.890305E-3
726.396561E-3
730.656052E-3
735.887146E-3
742.065811E-3
748.444748E-3
754.359627E-3
759.281158E-3
762.711525E-3
764.638138E-3
765.143394E-3
764.326859E-3
762.724113E-3
760.558319E-3
758.309555E-3
756.144905E-3
754.083252E-3
752.607536E-3
751.373291E-3
750.560760E-3
750.258636E-3
750.160217E-3
750.584221E-3
750.930405E-3
751.265144E-3
751.325226E-3
750.884628E-3
749.994850E-3
748.328018E-3
746.648026E-3
744.938850E-3
743.581009E-3
743.154716E-3
743.078613E-3
743.416214E-3
744.028473E-3
744.912529E-3
745.895004E-3
746.500969E-3
746.959305E-3
747.177887E-3
747.137833E-3
746.881485E-3
746.156502E-3
745.523643E-3
744.654465E-3
743.574715E-3
742.822266E-3
741.808319E-3
740.811539E-3
740.043640E-3
739.159012E-3
738.530159E-3
737.915611E-3
737.376022E-3
736.916542E-3
736.422157E-3
735.980415E-3
735.471153E-3
735.238266E-3
734.879494E-3
734.424591E-3
734.198570E-3
733.785439E-3
733.450127E-3
733.281326E-3
733.055878E-3
732.818985E-3
732.570648E-3
732.460213E-3
732.490540E-3
732.312584E-3
732.169533E-3
731.882858E-3
731.589317E-3
731.298065E-3
730.916977E-3
730.813980E-3
730.286407E-3
730.058098E-3
729.754829E-3
729.223251E-3
728.938293E-3
728.637886E-3
728.270531E-3
728.204727E-3
727.883148E-3
727.597618E-3
727.314949E-3
727.033424E-3
726.768494E-3
726.408577E-3
726.188278E-3
725.832939E-3
725.601768E-3
725.213242E-3
724.628448E-3
724.356651E-3
723.805046E-3
723.318100E-3
722.767067E-3
722.337914E-3
722.190857E-3
721.869850E-3
721.956253E-3
722.302437E-3
723.128128E-3
725.482750E-3
729.244423E-3
734.154510E-3
740.144348E-3
746.391106E-3
752.600098E-3
758.008003E-3
761.892700E-3
764.383507E-3
765.185165E-3
764.790344E-3
763.170433E-3
761.163139E-3
758.774757E-3
756.407547E-3
754.327583E-3
752.406693E-3
751.045418E-3
750.101280E-3
749.530792E-3
749.309921E-3
749.164009E-3
749.583435E-3
749.933624E-3
750.043488E-3
749.965668E-3
749.022675E-3
747.544098E-3
745.685005E-3
743.910027E-3
742.756462E-3
741.755104E-3
741.551399E-3
741.757965E-3
742.195702E-3
743.195915E-3
743.935204E-3
744.656181E-3
745.369148E-3
745.613480E-3
745.732498E-3
745.276451E-3
744.705391E-3
743.980408E-3
742.963600E-3
742.175674E-3
740.933418E-3
739.872551E-3
739.100075E-3
737.913895E-3
737.038422E-3
736.226463E-3
735.622215E-3
735.170174E-3
734.638023E-3
734.214020E-3
733.786011E-3
733.458138E-3
733.035278E-3
732.545471E-3
732.330894E-3
732.082558E-3
731.898308E-3
731.736374E-3
731.416512E-3
731.130981E-3
730.771065E-3
730.607414E-3
730.478096E-3
730.174255E-3
730.036926E-3
729.939079E-3
729.710770E-3
729.590034E-3
729.226112E-3
728.936577E-3
728.695679E-3
728.386116E-3
728.200722E-3
727.791023E-3
727.563858E-3
727.345276E-3
727.055168E-3
726.639748E-3
726.185989E-3
726.084709E-3
725.641251E-3
725.337982E-3
725.158310E-3
724.821281E-3
724.711990E-3
724.457932E-3
724.231911E-3
724.033928E-3
723.705482E-3
723.735237E-3
723.398209E-3
723.161316E-3
722.911835E-3
722.406578E-3
722.146225E-3
721.554565E-3
721.027565E-3
720.609856E-3
720.086288E-3
719.927216E-3
719.623375E-3
719.661140E-3
720.079994E-3
721.137428E-3
723.546982E-3
727.547836E-3
733.083344E-3
739.344406E-3
745.775414E-3
752.231598E-3
757.734489E-3
761.786270E-3
764.271355E-3
765.052986E-3
764.794350E-3
763.215065E-3
761.040688E-3
758.711243E-3
756.324005E-3
754.495811E-3
752.771187E-3
751.420784E-3
750.642586E-3
750.050926E-3
750.150490E-3
750.402260E-3
750.973320E-3
751.289749E-3
751.391029E-3
751.448250E-3
750.841713E-3
749.741364E-3
748.057365E-3
746.144485E-3
744.738007E-3
743.675995E-3
743.241119E-3
743.191910E-3
743.324089E-3
744.002724E-3
744.623566E-3
745.432663E-3
745.976257E-3
746.297836E-3
746.473503E-3
746.279526E-3
745.956802E-3
745.200348E-3
744.446754E-3
743.531799E-3
742.571068E-3
741.555977E-3
740.563202E-3
739.534378E-3
738.852882E-3
738.223457E-3
737.524796E-3
737.101364E-3
736.386108E-3
736.066818E-3
735.539246E-3
735.194778E-3
735.039139E-3
734.470940E-3
734.351921E-3
733.891869E-3
733.554268E-3
733.308220E-3
733.006668E-3
732.893944E-3
732.688522E-3
732.451057E-3
732.182693E-3
732.012749E-3
731.870842E-3
731.713486E-3
731.589890E-3
731.529808E-3
731.078911E-3
730.835724E-3
730.472946E-3
730.247498E-3
730.024910E-3
729.592323E-3
729.294777E-3
728.956604E-3
728.556633E-3
728.350639E-3
728.074265E-3
727.960396E-3
727.518654E-3
727.215958E-3
727.119827E-3
726.738167E-3
726.645470E-3
726.417160E-3
726.254654E-3
725.942230E-3
725.482750E-3
725.286484E-3
724.845886E-3
724.424171E-3
724.026489E-3
723.481178E-3
723.091507E-3
722.574234E-3
722.304726E-3
722.161102E-3
721.923637E-3
722.094154E-3
722.224045E-3
723.056030E-3
725.384331E-3
728.910255E-3
734.002304E-3
739.849663E-3
746.383667E-3
752.571487E-3
757.627487E-3
761.639786E-3
763.929749E-3
764.690781E-3
764.321709E-3
762.562752E-3
760.496521E-3
757.965088E-3
755.528069E-3
753.430367E-3
751.467705E-3
749.960518E-3
748.865891E-3
748.155212E-3
748.136330E-3
748.110008E-3
748.309135E-3
748.333168E-3
748.271942E-3
747.580719E-3
746.182251E-3
744.576073E-3
742.747879E-3
741.305923E-3
740.324593E-3
740.005302E-3
740.159225E-3
740.944862E-3
741.776848E-3
742.933846E-3
743.868828E-3
744.772911E-3
745.164871E-3
745.319939E-3
745.210075E-3
744.570351E-3
743.941498E-3
742.755890E-3
741.767120E-3
740.789795E-3
739.553261E-3
738.415718E-3
737.433243E-3
736.582947E-3
735.816765E-3
735.015678E-3
734.545898E-3
734.109879E-3
733.679008E-3
733.289337E-3
732.836723E-3
732.635307E-3
732.140350E-3
731.852531E-3
731.571007E-3
731.383896E-3
