Notes :


2023-11-10 ¿ÀÈÄ 11:45:16
Volts
Ch : LED 2,
797.214890E-3
796.688461E-3
796.468735E-3
796.501923E-3
797.177124E-3
798.909187E-3
802.185631E-3
806.818771E-3
812.326241E-3
818.339539E-3
824.018669E-3
828.870964E-3
832.571411E-3
834.669685E-3
835.563469E-3
835.165215E-3
833.716965E-3
831.686783E-3
829.088402E-3
826.576996E-3
824.186897E-3
821.999931E-3
820.516777E-3
819.051933E-3
818.174744E-3
817.708969E-3
817.370796E-3
817.267799E-3
817.210007E-3
817.236328E-3
816.903305E-3
816.119957E-3
815.074539E-3
813.838005E-3
813.039780E-3
812.441254E-3
812.707901E-3
812.479019E-3
812.628365E-3
813.177681E-3
813.854027E-3
814.270020E-3
814.816475E-3
815.143776E-3
815.325737E-3
815.748596E-3
815.195274E-3
814.951515E-3
814.417076E-3
813.957596E-3
813.336754E-3
812.576294E-3
811.679649E-3
810.957527E-3
810.290337E-3
809.710693E-3
809.212303E-3
808.929634E-3
808.391190E-3
807.982635E-3
807.781792E-3
807.812119E-3
807.275391E-3
806.786728E-3
806.607628E-3
806.260300E-3
805.815697E-3
805.606842E-3
805.338478E-3
805.138779E-3
804.458427E-3
804.326248E-3
804.142570E-3
803.906250E-3
803.783226E-3
803.695679E-3
803.403854E-3
803.322601E-3
803.166389E-3
802.902603E-3
802.823639E-3
802.589607E-3
802.560997E-3
802.387619E-3
802.337265E-3
802.324104E-3
802.067757E-3
802.064323E-3
802.387619E-3
802.022552E-3
801.888657E-3
801.577377E-3
801.485825E-3
801.141930E-3
800.786591E-3
800.565720E-3
800.102234E-3
800.141144E-3
799.653053E-3
799.460220E-3
799.408722E-3
799.527168E-3
800.293922E-3
801.992798E-3
805.027771E-3
809.508133E-3
814.389610E-3
820.029831E-3
825.278091E-3
829.486084E-3
832.650948E-3
834.338951E-3
834.790993E-3
834.223938E-3
832.618904E-3
830.256844E-3
827.965164E-3
825.617409E-3
823.325157E-3
821.238899E-3
819.690514E-3
818.293190E-3
817.450905E-3
816.698456E-3
816.209793E-3
816.031837E-3
815.576935E-3
815.155220E-3
814.111519E-3
813.008308E-3
812.192345E-3
811.382675E-3
811.178970E-3
811.113739E-3
811.478806E-3
812.184334E-3
812.997437E-3
813.990784E-3
814.699745E-3
815.267372E-3
815.890503E-3
815.861320E-3
815.724564E-3
815.386391E-3
814.920616E-3
814.327240E-3
813.570786E-3
812.674713E-3
812.025833E-3
811.168671E-3
810.457420E-3
809.548187E-3
809.033775E-3
808.293915E-3
807.713699E-3
807.475090E-3
807.005882E-3
806.692886E-3
806.438255E-3
806.241989E-3
805.955315E-3
805.687523E-3
805.514145E-3
805.203438E-3
805.011749E-3
804.827499E-3
804.622650E-3
804.513359E-3
804.341125E-3
804.204369E-3
804.107666E-3
803.704262E-3
803.657913E-3
803.502274E-3
803.433609E-3
803.358078E-3
803.497124E-3
803.147507E-3
802.884865E-3
802.793884E-3
802.653122E-3
802.356148E-3
802.366447E-3
802.233124E-3
801.988220E-3
801.719856E-3
801.554489E-3
801.486969E-3
801.341629E-3
801.135063E-3
800.738525E-3
800.198936E-3
799.992943E-3
799.398994E-3
798.953247E-3
798.602486E-3
798.082924E-3
797.932434E-3
797.736740E-3
798.100662E-3
799.318886E-3
801.391983E-3
805.560493E-3
810.729790E-3
816.537094E-3
822.351837E-3
827.467918E-3
831.814957E-3
834.579849E-3
835.915375E-3
836.309624E-3
835.077667E-3
833.296394E-3
831.033325E-3
828.505325E-3
826.163864E-3
823.943710E-3
822.270584E-3
820.858383E-3
819.376945E-3
819.198418E-3
818.797302E-3
818.934059E-3
818.994141E-3
819.063377E-3
819.009018E-3
818.538666E-3
817.612839E-3
816.133118E-3
815.158081E-3
814.351845E-3
813.823128E-3
813.717270E-3
813.961029E-3
814.480591E-3
815.194130E-3
815.746307E-3
816.542244E-3
817.000580E-3
817.314148E-3
817.423439E-3
817.195129E-3
816.935921E-3
816.510201E-3
815.948296E-3
815.449333E-3
814.958382E-3
814.123535E-3
813.253784E-3
812.440109E-3
811.723709E-3
811.044502E-3
810.637665E-3
810.118675E-3
809.611130E-3
809.296989E-3
808.843803E-3
808.525658E-3
808.161736E-3
807.822418E-3
807.569504E-3
807.241058E-3
807.277107E-3
806.905174E-3
806.583595E-3
806.419373E-3
806.070328E-3
805.962181E-3
805.775642E-3
805.526161E-3
805.410004E-3
805.219460E-3
805.076408E-3
804.841232E-3
804.590607E-3
804.528809E-3
804.447556E-3
804.294205E-3
804.049873E-3
803.859901E-3
803.628731E-3
803.590393E-3
803.513145E-3
803.273392E-3
803.190994E-3
802.985573E-3
802.668571E-3
802.474594E-3
802.121544E-3
801.755333E-3
801.321602E-3
800.727081E-3
800.335121E-3
799.886513E-3
799.469948E-3
799.296570E-3
799.368668E-3
800.007248E-3
801.622581E-3
804.286194E-3
808.484459E-3
813.348770E-3
818.986130E-3
824.291611E-3
828.809166E-3
832.399178E-3
834.458542E-3
835.557175E-3
834.954643E-3
833.679199E-3
831.803513E-3
829.544449E-3
827.301407E-3
824.990845E-3
823.008156E-3
821.652031E-3
820.236397E-3
819.470787E-3
819.001579E-3
818.825340E-3
818.820763E-3
818.633652E-3
818.563271E-3
818.074608E-3
817.045212E-3
816.277885E-3
814.996147E-3
814.211655E-3
813.791656E-3
813.710403E-3
814.061737E-3
814.606476E-3
815.498543E-3
816.087914E-3
816.656685E-3
817.225456E-3
817.472076E-3
817.490387E-3
817.354774E-3
816.863823E-3
816.461563E-3
815.347481E-3
815.171814E-3
814.613342E-3
813.824844E-3
813.285828E-3
812.411499E-3
811.880493E-3
811.296844E-3
810.808754E-3
810.359001E-3
809.878349E-3
809.661484E-3
809.301567E-3
808.946800E-3
808.732796E-3
808.328247E-3
808.097076E-3
807.919121E-3
807.444763E-3
807.451057E-3
807.112312E-3
807.123756E-3
806.905174E-3
806.628799E-3
806.610489E-3
806.345558E-3
806.359291E-3
806.455994E-3
806.066895E-3
806.045723E-3
805.765915E-3
805.716705E-3
805.538177E-3
805.448914E-3
805.422592E-3
805.225754E-3
805.078697E-3
804.918480E-3
804.629517E-3
804.503059E-3
804.133987E-3
803.836441E-3
803.514862E-3
803.120041E-3
802.821922E-3
802.620506E-3
802.198219E-3
801.611137E-3
801.192284E-3
801.148224E-3
801.012611E-3
800.999451E-3
801.022339E-3
801.817131E-3
803.565216E-3
806.418228E-3
810.666847E-3
815.406418E-3
820.536804E-3
825.378227E-3
829.205704E-3
832.103348E-3
833.605385E-3
833.730698E-3
833.183098E-3
831.598091E-3
829.626274E-3
827.309990E-3
825.190544E-3
823.195839E-3
821.312714E-3
819.909096E-3
818.820190E-3
818.039131E-3
817.723274E-3
817.530441E-3
817.355347E-3
816.947365E-3
816.148567E-3
815.144920E-3
814.423943E-3
813.850021E-3
813.688660E-3
813.773918E-3
814.167595E-3
814.861679E-3
815.735435E-3
816.722488E-3
817.219162E-3
818.312645E-3
818.867683E-3
819.002724E-3
818.888283E-3
818.494034E-3
818.132401E-3
817.420578E-3
816.780281E-3
815.759468E-3
815.270805E-3
814.779282E-3
814.138412E-3
813.551903E-3
812.939072E-3
812.315369E-3
811.923409E-3
811.439323E-3
811.037636E-3
810.852242E-3
810.521507E-3
810.401344E-3
810.159874E-3
810.075188E-3
809.907532E-3
809.580231E-3
809.327316E-3
809.007454E-3
808.891869E-3
808.458710E-3
808.257294E-3
808.253860E-3
807.988930E-3
807.683372E-3
807.508850E-3
807.377243E-3
807.195854E-3
806.982422E-3
806.892586E-3
806.770134E-3
806.587601E-3
806.621933E-3
806.418800E-3
806.464005E-3
806.292915E-3
806.073189E-3
806.077194E-3
805.750465E-3
805.504990E-3
805.355072E-3
805.099297E-3
804.930496E-3
804.163742E-3
804.039001E-3
803.655624E-3
803.335762E-3
802.959824E-3
802.400208E-3
802.288055E-3
802.210236E-3
802.154732E-3
802.700043E-3
804.038429E-3
806.661415E-3
810.728073E-3
815.686798E-3
821.209145E-3
826.488304E-3
831.145477E-3
834.611893E-3
836.663246E-3
837.669182E-3
837.384796E-3
836.189461E-3
834.423637E-3
832.237816E-3
830.180740E-3
828.147125E-3
826.419067E-3
825.374222E-3
824.198341E-3
823.594093E-3
823.289680E-3
823.243904E-3
823.379517E-3
823.361778E-3
823.148346E-3
822.723198E-3
821.857452E-3
820.698166E-3
819.602394E-3
818.851089E-3
818.131256E-3
818.112373E-3
818.323517E-3
819.041061E-3
819.674492E-3
820.271873E-3
820.922470E-3
821.378517E-3
821.539879E-3
821.629143E-3
821.466064E-3
820.911598E-3
820.232964E-3
819.897079E-3
819.348335E-3
818.621063E-3
817.847443E-3
817.188835E-3
816.423225E-3
815.806961E-3
815.107727E-3
814.363861E-3
814.081192E-3
813.764763E-3
813.429451E-3
813.197708E-3
812.913322E-3
812.778854E-3
812.396049E-3
812.096786E-3
811.743736E-3
811.557770E-3
811.319160E-3
811.166954E-3
810.963821E-3
810.663414E-3
810.573578E-3
810.338974E-3
809.949875E-3
809.955025E-3
809.825706E-3
809.552193E-3
809.452057E-3
809.192848E-3
809.132195E-3
809.018326E-3
808.879852E-3
808.779144E-3
808.644104E-3
808.455849E-3
808.347130E-3
808.220673E-3
808.028412E-3
807.702827E-3
807.691956E-3
807.304001E-3
807.008171E-3
807.119751E-3
806.406784E-3
805.932999E-3
805.331612E-3
804.735374E-3
804.325676E-3
803.886795E-3
803.638458E-3
803.475952E-3
803.483963E-3
803.907394E-3
804.853821E-3
807.259369E-3
810.799026E-3
815.432739E-3
820.720482E-3
826.304054E-3
830.934906E-3
834.627914E-3
837.049484E-3
838.279724E-3
838.330650E-3
837.496376E-3
835.747147E-3
833.886909E-3
831.788635E-3
829.764175E-3
828.096199E-3
826.604462E-3
825.533295E-3
824.784279E-3
824.332809E-3
824.277878E-3
824.334526E-3
824.751663E-3
824.425507E-3
823.685074E-3
822.987556E-3
821.718407E-3
820.603180E-3
819.601250E-3
818.847084E-3
818.690300E-3
818.600464E-3
819.227028E-3
820.017815E-3
820.646095E-3
821.267509E-3
821.705818E-3
821.941566E-3
821.880913E-3
821.571922E-3
820.900726E-3
820.561981E-3
820.086479E-3
819.625854E-3
818.878555E-3
818.312073E-3
817.670059E-3
816.934776E-3
816.416359E-3
815.452766E-3
815.204430E-3
814.819336E-3
814.343834E-3
814.241409E-3
813.769341E-3
813.494110E-3
813.296127E-3
812.881279E-3
812.626076E-3
812.135696E-3
811.993217E-3
811.771774E-3
811.501122E-3
811.435318E-3
811.038208E-3
810.736656E-3
810.657120E-3
810.361290E-3
810.185623E-3
809.904099E-3
809.865189E-3
809.749031E-3
809.433174E-3
809.339905E-3
808.895874E-3
808.958817E-3
808.816910E-3
808.677292E-3
808.627510E-3
808.474731E-3
808.493614E-3
808.145142E-3
807.867622E-3
807.893372E-3
807.398415E-3
807.170677E-3
806.837654E-3
806.470299E-3
806.202507E-3
805.770493E-3
805.415726E-3
804.973412E-3
804.755974E-3
804.321671E-3
803.949738E-3
804.017258E-3
803.860474E-3
803.996086E-3
804.523659E-3
805.636597E-3
808.290482E-3
812.251282E-3
816.783142E-3
821.831131E-3
826.610756E-3
830.689430E-3
833.687782E-3
835.316277E-3
835.948563E-3
835.353470E-3
834.000206E-3
832.198906E-3
830.142975E-3
828.264999E-3
826.285744E-3
824.699593E-3
823.387527E-3
822.355270E-3
821.763039E-3
821.332741E-3
821.360207E-3
821.401405E-3
821.132469E-3
820.813751E-3
819.972610E-3
819.114876E-3
818.243980E-3
817.585373E-3
817.331314E-3
817.454910E-3
818.163300E-3
818.955803E-3
819.835854E-3
820.797157E-3
821.553040E-3
821.762466E-3
821.938133E-3
821.852303E-3
821.731567E-3
821.214294E-3
820.664406E-3
820.142555E-3
819.427299E-3
818.823051E-3
818.418503E-3
817.539024E-3
816.776276E-3
816.069031E-3
815.573502E-3
815.000725E-3
814.661407E-3
814.288902E-3
813.963890E-3
814.028549E-3
813.532448E-3
813.213730E-3
813.023758E-3
812.798309E-3
812.641525E-3
812.263870E-3
812.181473E-3
811.997795E-3
811.587524E-3
811.460495E-3
811.132622E-3
810.990143E-3
810.796738E-3
810.509491E-3
810.474014E-3
810.330963E-3
810.108948E-3
809.660339E-3
809.588242E-3
809.699821E-3
809.501839E-3
809.319878E-3
809.395981E-3
809.199142E-3
809.214020E-3
809.040642E-3
809.181404E-3
808.760262E-3
808.396912E-3
808.143997E-3
807.810974E-3
807.442474E-3
807.059669E-3
806.541824E-3
806.175613E-3
805.748749E-3
805.360222E-3
805.033493E-3
804.701614E-3
804.756546E-3
804.862404E-3
805.527306E-3
806.942940E-3
810.149002E-3
814.476585E-3
819.439316E-3
824.753380E-3
829.793930E-3
834.073448E-3
837.198830E-3
838.778114E-3
839.600945E-3
838.821030E-3
837.241745E-3
835.507393E-3
833.462906E-3
831.520844E-3
829.724693E-3
828.218079E-3
827.203560E-3
826.795578E-3
826.155281E-3
825.888634E-3
826.041985E-3
826.372147E-3
826.390457E-3
826.344681E-3
825.892067E-3
824.972534E-3
824.078751E-3
822.581863E-3
821.657753E-3
821.168518E-3
821.021461E-3
821.230888E-3
821.756744E-3
822.419930E-3
823.072243E-3
823.324585E-3
823.913383E-3
824.002647E-3
823.925972E-3
823.609543E-3
823.016167E-3
822.485733E-3
821.744156E-3
821.054077E-3
820.682144E-3
819.776344E-3
819.092560E-3
818.371582E-3
817.805672E-3
817.312431E-3
816.589737E-3
816.451836E-3
815.858459E-3
815.679359E-3
815.291405E-3
814.901161E-3
814.739227E-3
814.445114E-3
814.043999E-3
813.818550E-3
813.323593E-3
813.332748E-3
813.158798E-3
812.908745E-3
812.743950E-3
812.511063E-3
812.348557E-3
812.074471E-3
811.866760E-3
811.542320E-3
811.444473E-3
811.461639E-3
811.233330E-3
811.161232E-3
810.982132E-3
810.695457E-3
810.627937E-3
810.360718E-3
809.941292E-3
809.933281E-3
809.666061E-3
809.685516E-3
809.579659E-3
809.456062E-3
809.231186E-3
808.845520E-3
808.706474E-3
808.586311E-3
808.102226E-3
807.775497E-3
807.170105E-3
806.973839E-3
806.354141E-3
805.906677E-3
805.529594E-3
805.344200E-3
805.772209E-3
805.793953E-3
806.451416E-3
808.254433E-3
811.320877E-3
815.785789E-3
820.850945E-3
826.019669E-3
830.998993E-3
834.915161E-3
837.810516E-3
839.326286E-3
839.407539E-3
838.831329E-3
837.482643E-3
835.597229E-3
833.407974E-3
831.699371E-3
830.110359E-3
828.645515E-3
827.760315E-3
827.126884E-3
826.724052E-3
826.726341E-3
826.811028E-3
826.754951E-3
827.050209E-3
826.918602E-3
826.385880E-3
825.222015E-3
824.000931E-3
822.808456E-3
821.864319E-3
821.442032E-3
821.161079E-3
821.649742E-3
822.124672E-3
822.775269E-3
823.438454E-3
823.852730E-3
824.151993E-3
824.205780E-3
824.043846E-3
823.702240E-3
823.063087E-3
822.608757E-3
821.934128E-3
821.336746E-3
820.766830E-3
820.013237E-3
819.288826E-3
818.561554E-3
817.761040E-3
817.375374E-3
817.066956E-3
816.521072E-3
816.191483E-3
815.644455E-3
815.358353E-3
815.123177E-3
814.846802E-3
814.165878E-3
814.152145E-3
814.017105E-3
813.649178E-3
813.456917E-3
813.141632E-3
812.909317E-3
812.798309E-3
812.622643E-3
812.830353E-3
812.500191E-3
812.188911E-3
812.194633E-3
811.909103E-3
811.689377E-3
811.522865E-3
811.242485E-3
811.161232E-3
811.032486E-3
810.919762E-3
810.832214E-3
810.625648E-3
810.457993E-3
810.231400E-3
810.163879E-3
809.511566E-3
809.361076E-3
809.452629E-3
809.202003E-3
809.024620E-3
808.605194E-3
808.188629E-3
807.991791E-3
807.409859E-3
806.786156E-3
806.644249E-3
806.351280E-3
806.132126E-3
806.002235E-3
806.086349E-3
805.989075E-3
806.422806E-3
807.696533E-3
809.580231E-3
813.545036E-3
818.226242E-3
823.167801E-3
828.003502E-3
831.844711E-3
834.935188E-3
836.628914E-3
837.082100E-3
836.320496E-3
835.264778E-3
833.509254E-3
831.598091E-3
829.561615E-3
827.881050E-3
826.268005E-3
825.096130E-3
824.382591E-3
823.988914E-3
823.632431E-3
823.628426E-3
823.702812E-3
823.621559E-3
823.246193E-3
822.558975E-3
821.528435E-3
820.573997E-3
819.976616E-3
819.188690E-3
819.178391E-3
819.375229E-3
820.043564E-3
820.803452E-3
821.512413E-3
822.277451E-3
822.683144E-3
823.055649E-3
