Notes :


2023-11-13 ¿ÀÀü 12:53:17
Volts
Ch : LED 2,
911.845779E-3
911.607170E-3
911.635780E-3
911.701012E-3
911.712456E-3
912.023735E-3
912.190819E-3
912.242317E-3
912.391090E-3
912.221146E-3
912.146759E-3
912.345314E-3
911.740494E-3
911.517906E-3
910.887337E-3
910.741425E-3
910.346031E-3
909.988403E-3
909.817886E-3
909.455681E-3
909.001350E-3
908.750725E-3
908.591080E-3
908.529282E-3
908.341026E-3
908.227730E-3
908.065796E-3
907.168007E-3
907.602310E-3
907.567406E-3
907.301331E-3
907.331085E-3
907.162857E-3
907.299614E-3
907.110214E-3
907.040977E-3
906.446457E-3
906.703377E-3
906.748009E-3
906.675339E-3
906.673622E-3
906.708527E-3
906.426430E-3
906.614113E-3
906.216431E-3
906.373787E-3
906.345749E-3
906.087685E-3
906.025314E-3
905.845642E-3
905.854225E-3
905.711174E-3
905.639076E-3
905.499458E-3
905.316353E-3
904.971313E-3
904.727554E-3
904.466629E-3
904.247475E-3
903.920174E-3
903.646660E-3
903.598595E-3
903.315926E-3
903.339958E-3
903.544235E-3
904.261780E-3
905.581284E-3
907.391167E-3
909.792137E-3
912.271500E-3
914.368629E-3
916.413689E-3
918.366051E-3
918.818092E-3
918.890190E-3
918.690491E-3
918.596649E-3
918.193817E-3
917.772675E-3
917.245102E-3
916.604233E-3
916.165352E-3
915.887833E-3
915.669823E-3
915.486717E-3
915.543365E-3
915.564537E-3
915.452957E-3
915.360832E-3
915.621758E-3
915.578270E-3
915.396309E-3
914.871597E-3
914.564323E-3
913.935471E-3
913.622475E-3
913.360977E-3
913.464546E-3
913.295746E-3
913.279724E-3
913.505173E-3
913.569832E-3
913.788414E-3
913.869095E-3
913.792419E-3
913.692856E-3
912.853432E-3
913.223076E-3
913.093758E-3
912.762451E-3
912.489510E-3
912.201118E-3
911.969376E-3
911.654663E-3
911.391449E-3
910.810661E-3
910.828400E-3
910.595512E-3
910.516548E-3
910.288239E-3
910.151482E-3
910.099983E-3
909.784698E-3
909.665680E-3
909.413910E-3
909.373856E-3
909.273148E-3
909.111214E-3
909.000206E-3
908.825684E-3
908.929825E-3
908.831978E-3
908.618546E-3
908.587646E-3
908.479500E-3
908.467484E-3
908.441162E-3
908.421135E-3
908.536148E-3
908.350182E-3
907.598305E-3
908.141899E-3
908.094406E-3
908.094978E-3
908.017731E-3
907.852364E-3
907.806587E-3
907.585144E-3
907.561111E-3
906.695938E-3
906.888771E-3
906.488228E-3
906.600380E-3
906.449890E-3
906.060219E-3
905.948639E-3
905.933189E-3
905.710030E-3
905.802727E-3
906.199837E-3
907.147980E-3
908.618546E-3
910.644722E-3
913.088608E-3
915.163422E-3
917.024231E-3
918.415833E-3
919.224930E-3
919.694710E-3
919.797134E-3
919.585419E-3
919.234657E-3
919.050980E-3
918.276787E-3
917.532921E-3
916.971016E-3
916.622543E-3
916.176796E-3
916.183090E-3
915.961075E-3
915.917015E-3
915.668678E-3
915.906715E-3
915.999985E-3
915.797424E-3
915.469551E-3
915.042686E-3
914.341164E-3
913.929749E-3
913.561249E-3
913.768959E-3
913.534355E-3
913.514900E-3
913.609314E-3
913.895988E-3
914.058495E-3
914.127731E-3
914.144325E-3
914.197540E-3
914.547157E-3
913.969803E-3
913.705444E-3
913.235664E-3
912.973022E-3
912.554169E-3
912.160492E-3
911.809158E-3
911.560822E-3
911.193466E-3
910.799217E-3
910.572052E-3
910.339737E-3
910.146332E-3
909.956932E-3
909.808159E-3
909.281731E-3
909.403038E-3
909.318924E-3
909.287453E-3
909.041977E-3
908.993340E-3
908.783340E-3
908.603668E-3
908.544159E-3
907.411194E-3
907.835770E-3
908.074379E-3
907.922745E-3
907.883835E-3
907.903290E-3
907.737350E-3
907.689285E-3
907.588005E-3
907.392311E-3
907.302475E-3
907.260704E-3
907.275009E-3
907.174301E-3
906.998634E-3
906.812096E-3
906.663322E-3
906.439018E-3
906.637001E-3
906.118584E-3
905.740356E-3
905.378151E-3
905.237961E-3
904.850578E-3
904.669189E-3
904.522705E-3
904.312134E-3
904.796219E-3
904.953575E-3
906.034470E-3
907.652664E-3
909.722900E-3
912.172508E-3
914.334869E-3
916.409111E-3
917.777824E-3
918.342018E-3
919.006348E-3
919.231224E-3
918.997192E-3
918.709946E-3
918.148613E-3
917.774391E-3
917.092896E-3
916.763878E-3
916.362190E-3
916.270065E-3
916.179085E-3
915.970802E-3
916.140747E-3
916.117287E-3
916.177940E-3
915.804863E-3
915.929031E-3
915.913010E-3
915.688133E-3
915.017509E-3
914.447594E-3
913.923454E-3
913.614464E-3
913.431358E-3
913.191605E-3
913.331795E-3
913.430786E-3
913.567543E-3
913.558960E-3
913.631630E-3
913.859367E-3
913.733482E-3
913.628197E-3
913.485146E-3
913.137245E-3
912.943268E-3
912.379074E-3
912.148476E-3
911.927032E-3
911.430931E-3
911.298180E-3
910.965729E-3
910.507965E-3
910.445023E-3
910.180664E-3
909.979248E-3
909.834480E-3
909.605598E-3
909.403038E-3
909.024811E-3
909.064865E-3
908.925819E-3
908.719826E-3
908.671761E-3
908.411980E-3
908.494377E-3
908.259773E-3
908.145332E-3
908.413124E-3
908.060074E-3
907.892990E-3
907.767677E-3
907.759094E-3
907.565117E-3
907.435799E-3
907.518196E-3
907.286453E-3
907.321358E-3
907.172012E-3
907.012367E-3
907.008934E-3
906.885338E-3
906.753731E-3
906.643867E-3
906.415558E-3
906.229591E-3
906.040764E-3
905.791283E-3
905.479431E-3
905.311203E-3
905.133247E-3
904.712677E-3
904.647446E-3
904.578209E-3
904.460907E-3
904.938126E-3
905.429649E-3
906.629562E-3
908.417130E-3
910.721397E-3
913.221359E-3
915.255547E-3
917.229080E-3
918.426704E-3
919.062424E-3
919.494438E-3
919.386864E-3
919.394302E-3
918.881607E-3
918.420982E-3
917.996979E-3
917.002487E-3
916.801071E-3
916.632271E-3
916.466904E-3
916.541290E-3
916.397095E-3
916.490364E-3
916.530418E-3
916.666031E-3
916.184807E-3
916.391373E-3
916.198540E-3
915.990257E-3
915.270424E-3
914.873886E-3
914.432144E-3
913.972664E-3
913.766670E-3
913.902283E-3
913.914871E-3
913.986397E-3
914.214706E-3
914.360046E-3
914.353752E-3
914.421272E-3
914.361191E-3
914.435577E-3
913.743210E-3
913.663101E-3
913.608170E-3
913.264847E-3
912.863159E-3
912.541580E-3
912.239456E-3
911.992264E-3
911.774254E-3
911.631203E-3
911.334229E-3
911.025810E-3
910.941124E-3
910.685349E-3
910.630989E-3
910.351181E-3
910.697937E-3
910.335159E-3
910.042763E-3
909.837341E-3
909.746361E-3
909.566689E-3
909.473991E-3
909.492302E-3
909.409904E-3
908.872032E-3
909.011650E-3
909.035683E-3
908.897209E-3
908.858871E-3
908.880043E-3
908.722115E-3
908.731270E-3
908.705521E-3
908.786774E-3
908.612251E-3
908.406830E-3
908.315277E-3
908.173370E-3
908.090973E-3
907.935905E-3
907.748222E-3
907.578850E-3
906.628990E-3
906.912804E-3
906.789780E-3
906.588936E-3
906.387520E-3
906.111717E-3
906.025314E-3
905.956078E-3
905.807304E-3
906.024742E-3
906.390381E-3
907.525063E-3
909.338951E-3
911.516762E-3
913.802719E-3
915.863800E-3
917.302322E-3
918.815804E-3
919.573402E-3
920.025444E-3
920.022011E-3
919.721603E-3
919.349670E-3
918.672752E-3
918.109703E-3
917.729759E-3
917.227364E-3
916.860580E-3
916.694069E-3
916.516113E-3
916.460609E-3
916.464043E-3
916.522980E-3
916.514397E-3
916.107559E-3
916.149330E-3
915.837479E-3
915.558815E-3
914.801216E-3
914.362335E-3
913.854790E-3
913.625908E-3
913.668251E-3
913.927460E-3
914.071655E-3
914.164352E-3
914.327431E-3
914.397812E-3
914.442444E-3
914.556885E-3
914.263916E-3
914.002991E-3
914.060211E-3
913.500023E-3
913.054276E-3
912.655449E-3
912.250328E-3
911.932755E-3
911.553383E-3
910.788918E-3
910.789490E-3
910.603523E-3
910.423279E-3
910.131454E-3
910.071945E-3
909.836769E-3
909.618759E-3
909.605598E-3
909.740639E-3
909.266281E-3
909.007645E-3
908.829117E-3
908.681488E-3
908.410835E-3
908.321571E-3
908.151627E-3
908.040047E-3
907.847786E-3
907.747078E-3
907.768822E-3
907.657814E-3
907.566261E-3
907.459831E-3
907.293892E-3
907.358551E-3
907.236671E-3
906.971741E-3
906.968307E-3
906.719971E-3
906.657028E-3
906.442451E-3
906.122017E-3
905.923462E-3
905.566978E-3
905.484009E-3
904.834557E-3
904.621124E-3
904.499817E-3
904.275513E-3
904.086685E-3
904.052925E-3
904.464340E-3
905.528641E-3
906.920815E-3
909.037971E-3
911.248398E-3
913.585854E-3
915.609741E-3
917.053986E-3
918.119431E-3
918.669891E-3
919.084740E-3
918.782616E-3
918.244743E-3
917.730331E-3
917.223358E-3
916.618538E-3
916.251183E-3
915.739059E-3
915.500450E-3
914.781761E-3
915.075874E-3
915.268135E-3
915.312195E-3
915.377998E-3
915.367126E-3
915.368271E-3
915.204620E-3
914.733124E-3
914.595222E-3
913.701439E-3
913.079453E-3
912.569618E-3
912.203979E-3
912.226868E-3
912.297821E-3
912.263489E-3
912.562180E-3
912.614822E-3
912.791634E-3
912.748718E-3
912.729836E-3
912.649727E-3
912.363052E-3
912.209129E-3
911.856079E-3
911.520767E-3
911.245537E-3
910.850143E-3
910.553741E-3
910.074806E-3
910.007858E-3
909.636497E-3
909.302330E-3
909.431076E-3
909.059143E-3
908.751297E-3
908.610535E-3
908.392525E-3
908.205414E-3
907.938194E-3
907.720184E-3
907.659531E-3
907.184029E-3
907.273865E-3
907.095337E-3
907.135963E-3
906.958008E-3
906.830978E-3
906.821251E-3
906.616402E-3
906.549454E-3
905.916023E-3
906.011009E-3
906.196404E-3
906.065369E-3
906.047058E-3
905.961227E-3
905.891991E-3
905.874825E-3
905.790710E-3
905.828476E-3
905.791283E-3
905.386162E-3
905.249405E-3
904.920387E-3
904.674911E-3
904.478645E-3
904.154778E-3
903.905869E-3
903.945351E-3
903.450966E-3
903.218079E-3
902.877617E-3
902.933693E-3
902.827835E-3
903.273582E-3
904.799652E-3
905.834770E-3
908.017731E-3
910.440445E-3
912.928391E-3
915.074158E-3
916.674614E-3
917.819595E-3
918.464470E-3
918.657303E-3
918.604660E-3
918.125725E-3
917.678261E-3
917.192459E-3
916.686630E-3
916.219139E-3
915.669823E-3
915.528488E-3
915.639496E-3
915.393448E-3
915.388298E-3
915.342522E-3
915.494728E-3
915.507317E-3
915.474701E-3
915.362549E-3
914.959145E-3
914.926529E-3
914.071655E-3
913.323212E-3
912.879753E-3
912.493515E-3
912.490654E-3
912.533569E-3
912.564468E-3
912.838554E-3
912.606812E-3
912.880898E-3
913.009644E-3
913.005066E-3
913.062859E-3
912.740707E-3
912.660599E-3
912.369919E-3
911.975670E-3
911.769676E-3
911.433792E-3
911.144257E-3
911.025810E-3
910.663033E-3
910.462189E-3
910.099983E-3
909.633636E-3
909.637642E-3
909.430504E-3
909.275436E-3
909.121513E-3
908.963585E-3
908.658028E-3
908.652878E-3
908.504105E-3
907.617187E-3
908.013725E-3
907.866096E-3
907.973099E-3
907.905006E-3
907.724190E-3
907.614326E-3
907.503891E-3
907.486153E-3
907.252693E-3
907.188034E-3
907.323647E-3
907.344246E-3
907.149696E-3
907.202911E-3
906.985474E-3
907.100487E-3
906.919098E-3
906.055069E-3
906.579781E-3
906.417274E-3
906.332016E-3
906.234741E-3
905.903435E-3
905.903435E-3
905.462837E-3
905.228233E-3
904.928398E-3
904.745293E-3
904.628563E-3
904.396248E-3
904.325867E-3
904.246902E-3
904.751015E-3
906.099129E-3
907.590866E-3
909.725189E-3
912.056923E-3
914.337158E-3
916.422272E-3
917.635918E-3
918.658447E-3
919.041824E-3
918.688774E-3
918.705368E-3
918.187523E-3
917.779541E-3
917.127228E-3
916.516113E-3
915.982819E-3
915.466118E-3
915.235519E-3
915.246391E-3
915.077019E-3
915.073013E-3
914.832687E-3
914.984894E-3
914.875603E-3
914.653587E-3
914.518547E-3
913.891411E-3
913.221359E-3
912.656021E-3
912.250328E-3
912.076950E-3
911.855507E-3
912.076378E-3
912.202835E-3
912.345314E-3
912.537003E-3
912.963867E-3
912.820244E-3
912.565041E-3
912.321854E-3
912.346458E-3
911.957359E-3
911.741066E-3
911.181450E-3
910.865021E-3
910.573196E-3
910.269928E-3
909.880257E-3
909.431648E-3
909.126663E-3
908.842278E-3
908.452034E-3
908.210564E-3
908.020020E-3
907.763100E-3
907.766533E-3
907.361984E-3
907.204056E-3
907.010651E-3
906.828117E-3
906.576347E-3
906.748581E-3
906.351471E-3
906.069946E-3
905.890274E-3
905.739784E-3
905.504036E-3
905.427361E-3
905.231094E-3
905.114365E-3
904.624557E-3
904.727554E-3
904.887772E-3
904.867744E-3
904.590225E-3
904.615974E-3
904.369354E-3
904.216576E-3
904.031754E-3
903.551674E-3
903.566551E-3
903.310204E-3
903.019524E-3
902.653313E-3
902.423286E-3
902.245903E-3
901.926613E-3
901.914024E-3
902.105141E-3
902.109718E-3
903.002930E-3
904.384232E-3
906.497383E-3
908.782196E-3
911.121368E-3
913.226509E-3
915.004921E-3
916.234589E-3
916.930962E-3
917.162132E-3
917.109489E-3
916.636276E-3
916.062927E-3
915.497589E-3
914.554596E-3
914.321136E-3
913.859367E-3
913.626480E-3
913.360977E-3
913.221931E-3
913.318062E-3
913.216209E-3
913.419342E-3
913.012505E-3
913.203049E-3
913.082314E-3
912.764168E-3
912.255478E-3
911.824036E-3
911.079025E-3
910.643005E-3
910.397530E-3
910.449028E-3
910.452461E-3
910.465050E-3
910.789490E-3
910.862732E-3
911.038971E-3
911.244965E-3
911.063576E-3
911.140251E-3
910.580063E-3
910.495377E-3
910.320282E-3
909.865379E-3
909.535789E-3
909.114075E-3
908.816528E-3
908.708382E-3
908.239746E-3
907.891846E-3
907.426071E-3
907.253265E-3
906.996346E-3
906.711960E-3
906.590080E-3
906.292534E-3
906.138611E-3
905.870247E-3
905.737495E-3
905.698013E-3
905.323792E-3
905.156708E-3
904.978180E-3
904.820251E-3
904.884338E-3
904.522133E-3
904.467773E-3
904.327583E-3
904.166794E-3
904.187393E-3
904.157639E-3
904.110718E-3
904.059792E-3
903.962517E-3
903.418350E-3
903.708458E-3
903.731918E-3
903.644371E-3
903.517914E-3
903.285027E-3
903.042984E-3
902.742577E-3
902.420998E-3
901.981544E-3
901.979256E-3
901.559830E-3
901.379585E-3
901.182175E-3
900.893784E-3
901.119232E-3
901.659966E-3
902.953148E-3
905.046272E-3
907.098198E-3
909.626198E-3
912.035751E-3
914.154053E-3
915.596581E-3
916.482353E-3
916.963577E-3
917.046547E-3
916.824532E-3
916.311836E-3
915.654945E-3
915.140533E-3
914.558029E-3
914.116859E-3
913.720322E-3
913.617325E-3
913.500023E-3
913.180733E-3
913.221931E-3
913.191032E-3
913.185310E-3
913.288307E-3
913.111496E-3
912.911797E-3
913.003349E-3
912.104988E-3
911.446953E-3
910.975456E-3
910.548592E-3
910.336304E-3
910.222435E-3
910.414124E-3
910.639000E-3
911.180305E-3
911.107635E-3
911.083031E-3
911.172295E-3
911.073303E-3
910.993767E-3
910.805511E-3
910.437012E-3
910.263634E-3
910.625839E-3
909.769821E-3
909.404182E-3
909.079742E-3
908.825684E-3
908.448601E-3
908.299828E-3
908.105278E-3
907.838631E-3
907.419777E-3
907.421494E-3
907.237816E-3
907.039833E-3
906.778908E-3
906.754303E-3
906.519127E-3
906.091118E-3
906.307411E-3
906.146622E-3
905.992699E-3
905.733490E-3
905.726051E-3
905.668259E-3
905.512047E-3
905.601311E-3
906.047058E-3
905.623055E-3
905.491447E-3
905.348969E-3
905.378151E-3
905.319214E-3
905.238533E-3
905.253983E-3
905.048561E-3
905.278015E-3
905.003929E-3
904.610825E-3
904.437447E-3
904.099846E-3
903.911591E-3
903.732491E-3
903.500748E-3
903.191185E-3
902.914238E-3
902.822685E-3
902.862167E-3
903.163719E-3
904.001427E-3
905.411911E-3
907.526779E-3
910.019875E-3
912.375641E-3
914.733696E-3
916.036034E-3
917.202187E-3
917.807579E-3
917.830467E-3
917.682838E-3
917.180443E-3
916.578484E-3
915.894699E-3
915.432358E-3
914.857292E-3
914.208412E-3
913.964081E-3
913.712311E-3
913.489723E-3
913.413620E-3
913.451958E-3
913.484001E-3
913.495445E-3
913.335228E-3
913.094902E-3
912.553024E-3
