Notes :


2023-10-30 ¿ÀÈÄ 11:18:07
Volts
Ch : LED 2,
520.026398E-3
519.650459E-3
520.635796E-3
520.691872E-3
520.731926E-3
521.125031E-3
520.909882E-3
522.013664E-3
522.195053E-3
521.949005E-3
522.772980E-3
522.624207E-3
523.876762E-3
523.909378E-3
523.821259E-3
524.322510E-3
523.476219E-3
522.960091E-3
519.916534E-3
515.539742E-3
511.258507E-3
505.742455E-3
502.062035E-3
498.102379E-3
495.237350E-3
494.502068E-3
493.763924E-3
495.110893E-3
495.780945E-3
496.717072E-3
498.426247E-3
499.336624E-3
500.942230E-3
501.584244E-3
501.723289E-3
502.323532E-3
502.005959E-3
502.381325E-3
502.066612E-3
501.776505E-3
501.941299E-3
501.504135E-3
502.475739E-3
502.820206E-3
503.116035E-3
504.559135E-3
504.961395E-3
506.537247E-3
506.946373E-3
506.319237E-3
506.617355E-3
506.128120E-3
506.667709E-3
506.410217E-3
505.973053E-3
506.245995E-3
505.834007E-3
506.529236E-3
506.452560E-3
506.638527E-3
507.973480E-3
508.160591E-3
509.343338E-3
509.833145E-3
510.164452E-3
511.692810E-3
511.935997E-3
512.993431E-3
513.462067E-3
513.504982E-3
514.141846E-3
514.045715E-3
514.783287E-3
515.072250E-3
514.845085E-3
515.451050E-3
515.170670E-3
515.964890E-3
516.345978E-3
516.147423E-3
516.585732E-3
516.085625E-3
516.731071E-3
516.763115E-3
516.551399E-3
517.131042E-3
516.751099E-3
517.573929E-3
517.556763E-3
517.329025E-3
518.070602E-3
517.890930E-3
518.581009E-3
518.923187E-3
518.631935E-3
519.501686E-3
519.272804E-3
519.831276E-3
520.096207E-3
519.710541E-3
520.625496E-3
520.428085E-3
521.074677E-3
521.482658E-3
521.129608E-3
522.018242E-3
521.847153E-3
522.737503E-3
522.957802E-3
522.826195E-3
523.852730E-3
523.626137E-3
524.376297E-3
524.523354E-3
523.986053E-3
524.183464E-3
522.731781E-3
520.783424E-3
517.307281E-3
512.119675E-3
507.827568E-3
502.690315E-3
499.596405E-3
497.336769E-3
495.530319E-3
495.779800E-3
495.437050E-3
496.591187E-3
497.863197E-3
498.913193E-3
501.191711E-3
502.071762E-3
503.484535E-3
504.226112E-3
504.200363E-3
505.498123E-3
504.852104E-3
505.080414E-3
504.830360E-3
503.793526E-3
504.521370E-3
504.128265E-3
505.224609E-3
506.264305E-3
506.062317E-3
507.915688E-3
508.099365E-3
508.383179E-3
508.327103E-3
507.358360E-3
507.546616E-3
506.710052E-3
506.560135E-3
506.315231E-3
506.046867E-3
507.112885E-3
506.783295E-3
507.467651E-3
508.308220E-3
508.655548E-3
510.203362E-3
510.402489E-3
511.260223E-3
512.080765E-3
512.347412E-3
513.391685E-3
513.303566E-3
513.949013E-3
514.372444E-3
514.124680E-3
515.233040E-3
514.879417E-3
515.513992E-3
515.758324E-3
515.015602E-3
516.414642E-3
515.884209E-3
516.348267E-3
516.769981E-3
516.167450E-3
517.116737E-3
516.325951E-3
516.514778E-3
517.179680E-3
516.165733E-3
517.398262E-3
516.847801E-3
517.347908E-3
517.900658E-3
517.745590E-3
518.749809E-3
518.107224E-3
518.452263E-3
518.805885E-3
518.577576E-3
519.450760E-3
518.887711E-3
519.132042E-3
519.820976E-3
519.344330E-3
520.982552E-3
520.925903E-3
521.681213E-3
522.347832E-3
522.068024E-3
522.993279E-3
522.546959E-3
522.473145E-3
522.894287E-3
522.210503E-3
521.859169E-3
518.713760E-3
514.890862E-3
510.706329E-3
505.359650E-3
501.729012E-3
497.432899E-3
495.303726E-3
494.138718E-3
493.174553E-3
494.102669E-3
494.424248E-3
495.839310E-3
497.749901E-3
498.845100E-3
500.705338E-3
501.195717E-3
502.068329E-3
502.888870E-3
502.440262E-3
502.991867E-3
502.443695E-3
502.108383E-3
502.407074E-3
502.154160E-3
503.220749E-3
503.072548E-3
504.275894E-3
505.714989E-3
505.628586E-3
507.324600E-3
507.154655E-3
507.064819E-3
507.054520E-3
506.296349E-3
506.588173E-3
505.584526E-3
505.450630E-3
505.561066E-3
505.457497E-3
506.369019E-3
506.241417E-3
506.961823E-3
507.789230E-3
507.622147E-3
509.208298E-3
509.679794E-3
510.409355E-3
511.444473E-3
511.730003E-3
512.894440E-3
512.730789E-3
513.430595E-3
513.917542E-3
513.153076E-3
514.501762E-3
514.262009E-3
514.699745E-3
514.899445E-3
514.645958E-3
515.191841E-3
514.839935E-3
515.201569E-3
515.726852E-3
515.650749E-3
516.305923E-3
515.851593E-3
515.806389E-3
516.104507E-3
514.822197E-3
516.194916E-3
516.181183E-3
516.469574E-3
517.163658E-3
516.923332E-3
517.985916E-3
517.586517E-3
517.827988E-3
518.345261E-3
517.850876E-3
518.724060E-3
518.547821E-3
518.585587E-3
519.164085E-3
519.054222E-3
519.816399E-3
519.511414E-3
519.653893E-3
520.571709E-3
520.420647E-3
521.228600E-3
520.867538E-3
521.250916E-3
521.972466E-3
521.708679E-3
522.631645E-3
522.339249E-3
521.987343E-3
521.712685E-3
518.260002E-3
515.985489E-3
511.137199E-3
506.360435E-3
501.674652E-3
496.904755E-3
494.184494E-3
491.826439E-3
490.837669E-3
491.651917E-3
491.772652E-3
493.953323E-3
495.099449E-3
496.719933E-3
498.242569E-3
498.701477E-3
499.745178E-3
499.833870E-3
499.780083E-3
500.342560E-3
499.651337E-3
500.252151E-3
499.694824E-3
499.318886E-3
499.669647E-3
499.476242E-3
500.708199E-3
501.654625E-3
502.401352E-3
503.815269E-3
503.898811E-3
504.801178E-3
504.426384E-3
504.342270E-3
504.360580E-3
503.711700E-3
503.977203E-3
503.564644E-3
503.429031E-3
504.125404E-3
503.774643E-3
504.844666E-3
505.320740E-3
505.863190E-3
506.889153E-3
507.214737E-3
508.687592E-3
509.160233E-3
509.579659E-3
510.447121E-3
510.531807E-3
511.424446E-3
511.498833E-3
511.629868E-3
512.426376E-3
512.174034E-3
513.082123E-3
513.020897E-3
513.235474E-3
513.813972E-3
513.329887E-3
514.112663E-3
513.941574E-3
513.863754E-3
514.331245E-3
514.000511E-3
514.580154E-3
514.461136E-3
514.593887E-3
515.199280E-3
514.918327E-3
515.872765E-3
515.662193E-3
515.539742E-3
516.058159E-3
515.670776E-3
516.632080E-3
516.752243E-3
516.852951E-3
517.375946E-3
516.942215E-3
518.018532E-3
518.025970E-3
518.241119E-3
518.595886E-3
518.096352E-3
519.060516E-3
518.980980E-3
518.951797E-3
519.700241E-3
519.489670E-3
520.398903E-3
520.729637E-3
520.781136E-3
521.535873E-3
521.051788E-3
522.328949E-3
521.956444E-3
521.218872E-3
521.038055E-3
518.774986E-3
516.432953E-3
512.259865E-3
506.981850E-3
502.576447E-3
497.731018E-3
495.403290E-3
493.445206E-3
492.156029E-3
492.554283E-3
492.819786E-3
494.717789E-3
495.959473E-3
497.063255E-3
498.866272E-3
499.741745E-3
501.473808E-3
501.824570E-3
501.993942E-3
502.448845E-3
501.837730E-3
502.441406E-3
501.925850E-3
501.593399E-3
502.087212E-3
502.291489E-3
503.605843E-3
504.284477E-3
504.857254E-3
505.667496E-3
505.241776E-3
505.682373E-3
505.220604E-3
504.525375E-3
504.238701E-3
503.256798E-3
503.528023E-3
503.530884E-3
503.092003E-3
503.864479E-3
504.087639E-3
505.252075E-3
505.905533E-3
506.235123E-3
507.420731E-3
507.530594E-3
508.792877E-3
509.224319E-3
509.377670E-3
510.279465E-3
510.116386E-3
511.449051E-3
511.738586E-3
511.755753E-3
512.401199E-3
512.012100E-3
512.742233E-3
512.790298E-3
511.972046E-3
512.779999E-3
512.485313E-3
513.271523E-3
513.187408E-3
512.971115E-3
513.274956E-3
513.037491E-3
513.823128E-3
513.850594E-3
513.559914E-3
514.264297E-3
513.858604E-3
514.617920E-3
514.603043E-3
514.390182E-3
515.054512E-3
514.829636E-3
515.483093E-3
515.868759E-3
515.140915E-3
516.412354E-3
515.980911E-3
516.587448E-3
516.694450E-3
516.563416E-3
517.288399E-3
517.436028E-3
518.363571E-3
518.674850E-3
518.750381E-3
519.328308E-3
519.363785E-3
520.309639E-3
520.359421E-3
520.005798E-3
520.145988E-3
518.099213E-3
515.603256E-3
511.595535E-3
506.328964E-3
501.957321E-3
497.122192E-3
494.063759E-3
491.956902E-3
490.350723E-3
490.687180E-3
490.644264E-3
492.115974E-3
493.594551E-3
494.278908E-3
496.099091E-3
497.023773E-3
498.559570E-3
499.191856E-3
499.159813E-3
499.734879E-3
499.147797E-3
499.138069E-3
498.899460E-3
497.812843E-3
499.130630E-3
499.069405E-3
500.080490E-3
501.091576E-3
501.646042E-3
503.025627E-3
503.229332E-3
503.681374E-3
503.658485E-3
503.051376E-3
503.474808E-3
502.542114E-3
502.556992E-3
502.467728E-3
501.618576E-3
502.567863E-3
502.460289E-3
503.093147E-3
503.760910E-3
504.057312E-3
505.452347E-3
505.765343E-3
506.611633E-3
507.352066E-3
507.513428E-3
508.910179E-3
508.743095E-3
509.353065E-3
509.959030E-3
509.976768E-3
511.140060E-3
510.707474E-3
511.132622E-3
511.372948E-3
511.037636E-3
511.653900E-3
511.377525E-3
511.711693E-3
511.915970E-3
511.037064E-3
512.240982E-3
512.075615E-3
512.467003E-3
512.969971E-3
512.755394E-3
513.710403E-3
512.934494E-3
513.339043E-3
513.529015E-3
513.303566E-3
514.359283E-3
513.769341E-3
514.407921E-3
514.887428E-3
514.689445E-3
515.968323E-3
515.400124E-3
515.795517E-3
516.014099E-3
515.585518E-3
516.741943E-3
516.072464E-3
516.426086E-3
516.880417E-3
516.863823E-3
518.256569E-3
517.899513E-3
518.225670E-3
518.811035E-3
518.319511E-3
519.648170E-3
519.220734E-3
519.287109E-3
519.289398E-3
517.537880E-3
515.531158E-3
510.552979E-3
506.219101E-3
501.646042E-3
496.789169E-3
493.849182E-3
490.417671E-3
488.963127E-3
489.110756E-3
488.392067E-3
490.779305E-3
491.422462E-3
492.985153E-3
494.870567E-3
495.802689E-3
497.457504E-3
497.309875E-3
497.880363E-3
498.165894E-3
497.562218E-3
498.004532E-3
497.003746E-3
496.775436E-3
497.129059E-3
496.960831E-3
498.303223E-3
498.941803E-3
500.144005E-3
501.437759E-3
501.720428E-3
502.875137E-3
502.134705E-3
501.933861E-3
501.906967E-3
501.371956E-3
501.685524E-3
500.978279E-3
500.927353E-3
501.378822E-3
501.441193E-3
502.459717E-3
502.416801E-3
503.072548E-3
504.151726E-3
504.461288E-3
505.923271E-3
505.851746E-3
506.683731E-3
507.622719E-3
507.724571E-3
508.962822E-3
508.746529E-3
509.077263E-3
509.627724E-3
509.390831E-3
510.299492E-3
509.922981E-3
510.308647E-3
510.954094E-3
510.301208E-3
511.299706E-3
510.924911E-3
511.050224E-3
511.571503E-3
511.334610E-3
512.130547E-3
511.624718E-3
511.657906E-3
511.962318E-3
511.852455E-3
512.672424E-3
512.288475E-3
512.753677E-3
513.188553E-3
512.960243E-3
514.174461E-3
514.001083E-3
514.255714E-3
515.004730E-3
514.723778E-3
515.420723E-3
515.217018E-3
515.320587E-3
515.659904E-3
515.359497E-3
516.024971E-3
516.113663E-3
516.268730E-3
516.818619E-3
516.520500E-3
517.604828E-3
517.401123E-3
517.593956E-3
518.123817E-3
517.949295E-3
518.770409E-3
518.793869E-3
518.840218E-3
519.189262E-3
518.087196E-3
517.271233E-3
513.759041E-3
509.508133E-3
505.097580E-3
499.717712E-3
496.057320E-3
492.577171E-3
490.513229E-3
490.342140E-3
489.614868E-3
490.712357E-3
491.679955E-3
493.587112E-3
495.743179E-3
496.906471E-3
498.482895E-3
498.946381E-3
499.695396E-3
500.412369E-3
499.900246E-3
500.232697E-3
499.522591E-3
499.166107E-3
499.500847E-3
499.302864E-3
500.633240E-3
501.305008E-3
502.240562E-3
503.287697E-3
503.034782E-3
503.884506E-3
503.364944E-3
502.832794E-3
502.524376E-3
501.493263E-3
501.482391E-3
501.064110E-3
501.201439E-3
501.766205E-3
501.681519E-3
502.723503E-3
503.045082E-3
503.849030E-3
504.948235E-3
505.105019E-3
506.421089E-3
506.806755E-3
507.376099E-3
508.310509E-3
508.252144E-3
509.361076E-3
509.486961E-3
509.393692E-3
510.130692E-3
509.841728E-3
510.657692E-3
510.384750E-3
510.280609E-3
510.836792E-3
510.600471E-3
511.225319E-3
511.132050E-3
511.373520E-3
511.600685E-3
511.091423E-3
511.884499E-3
511.811829E-3
511.509132E-3
512.053871E-3
511.566353E-3
512.636948E-3
512.529373E-3
512.531662E-3
512.992287E-3
512.620926E-3
513.601685E-3
513.555908E-3
513.446045E-3
513.861465E-3
513.629150E-3
514.554405E-3
514.358711E-3
514.401054E-3
514.989853E-3
514.616203E-3
515.631866E-3
516.091919E-3
516.287041E-3
516.740799E-3
516.404915E-3
517.619705E-3
517.700386E-3
517.659760E-3
518.168449E-3
517.515564E-3
517.941856E-3
516.851807E-3
514.132690E-3
511.002159E-3
505.649757E-3
501.545906E-3
496.664429E-3
492.260742E-3
489.855194E-3
487.775803E-3
487.870216E-3
488.085365E-3
488.579178E-3
490.355873E-3
491.282272E-3
493.461227E-3
494.743538E-3
495.438766E-3
496.708488E-3
496.329117E-3
497.023773E-3
496.825218E-3
495.978928E-3
496.061325E-3
495.269394E-3
496.210670E-3
496.187210E-3
496.574020E-3
498.065186E-3
498.458862E-3
500.183487E-3
500.701332E-3
500.810623E-3
501.279259E-3
500.710487E-3
501.017761E-3
500.503349E-3
499.482536E-3
499.985504E-3
499.583817E-3
500.208664E-3
500.407791E-3
500.461578E-3
501.299858E-3
501.269531E-3
502.710342E-3
503.356361E-3
503.869629E-3
504.769135E-3
504.845238E-3
506.305504E-3
506.766129E-3
506.896019E-3
507.694817E-3
507.602119E-3
508.732796E-3
508.580017E-3
508.398628E-3
508.883286E-3
508.801460E-3
509.330750E-3
509.418869E-3
509.206581E-3
509.743309E-3
509.511566E-3
510.387611E-3
510.511208E-3
510.207367E-3
510.594177E-3
510.061455E-3
510.923195E-3
510.705757E-3
510.583878E-3
511.304283E-3
511.047935E-3
511.882210E-3
512.251282E-3
512.070465E-3
512.744522E-3
512.565994E-3
513.441467E-3
513.381386E-3
513.210297E-3
513.756752E-3
513.458633E-3
514.216805E-3
514.391899E-3
514.541817E-3
515.172386E-3
514.896584E-3
515.697098E-3
515.805244E-3
515.893936E-3
516.613197E-3
516.375732E-3
517.131615E-3
517.559624E-3
516.990852E-3
517.809677E-3
517.612839E-3
517.901230E-3
517.199135E-3
514.527512E-3
511.429024E-3
506.171036E-3
501.448631E-3
496.785164E-3
492.257309E-3
489.792824E-3
487.542915E-3
487.181282E-3
487.552643E-3
487.611008E-3
489.775085E-3
490.964699E-3
493.155670E-3
494.727516E-3
495.520592E-3
496.633530E-3
496.624947E-3
496.990585E-3
496.895027E-3
496.229553E-3
496.203232E-3
495.482254E-3
495.997238E-3
496.292496E-3
496.283340E-3
497.459221E-3
498.243141E-3
499.649048E-3
500.614929E-3
500.796890E-3
501.480103E-3
500.907898E-3
501.217461E-3
501.083565E-3
500.380898E-3
501.033211E-3
500.263596E-3
500.561714E-3
500.694466E-3
500.569725E-3
501.791382E-3
501.889229E-3
502.796745E-3
503.657341E-3
503.708839E-3
505.230904E-3
505.633163E-3
506.510353E-3
506.979561E-3
506.694031E-3
507.884789E-3
507.733154E-3
508.061600E-3
508.494186E-3
507.600975E-3
509.052086E-3
508.795738E-3
509.421158E-3
509.775925E-3
508.966255E-3
510.081482E-3
509.658051E-3
509.916687E-3
510.090637E-3
509.674644E-3
510.526085E-3
510.381317E-3
510.471153E-3
510.906601E-3
510.618210E-3
511.754036E-3
511.383247E-3
511.851883E-3
512.262154E-3
511.950874E-3
512.731361E-3
512.571716E-3
512.960243E-3
513.539886E-3
512.661552E-3
513.866043E-3
513.713837E-3
514.241982E-3
514.843369E-3
514.197350E-3
515.466499E-3
515.067101E-3
515.564919E-3
515.997505E-3
515.995789E-3
516.943932E-3
516.601181E-3
517.016602E-3
517.504692E-3
517.465210E-3
518.551254E-3
518.060875E-3
518.063736E-3
517.924690E-3
515.963745E-3
513.904953E-3
508.744812E-3
503.864479E-3
499.296570E-3
494.563866E-3
492.113686E-3
489.578247E-3
488.964272E-3
489.325905E-3
489.787102E-3
491.886520E-3
492.473030E-3
494.495201E-3
496.256447E-3
497.372246E-3
499.282265E-3
499.175835E-3
499.724007E-3
500.188065E-3
499.444199E-3
499.888229E-3
498.956680E-3
499.168968E-3
