Notes :


2023-11-06 ¿ÀÈÄ 11:11:46
Volts
Ch : LED 2,
374.213219E-3
374.027824E-3
374.067307E-3
373.942566E-3
373.937988E-3
374.035263E-3
373.899078E-3
374.147415E-3
374.523354E-3
375.239182E-3
376.318932E-3
377.165222E-3
378.260994E-3
378.946495E-3
379.682922E-3
380.205345E-3
380.149269E-3
380.443954E-3
380.090332E-3
379.854012E-3
379.555321E-3
379.038048E-3
378.678703E-3
378.410339E-3
378.073883E-3
377.996063E-3
377.763176E-3
377.864456E-3
377.766609E-3
377.893639E-3
377.997208E-3
377.857018E-3
377.859879E-3
377.642441E-3
377.315140E-3
377.269936E-3
377.011299E-3
377.003288E-3
376.881409E-3
376.976967E-3
377.073669E-3
376.933479E-3
377.172089E-3
377.269363E-3
377.398682E-3
377.476501E-3
377.322578E-3
377.423859E-3
377.364349E-3
377.209854E-3
377.125740E-3
376.829338E-3
376.716614E-3
376.542091E-3
376.301193E-3
376.268578E-3
376.074600E-3
376.063728E-3
375.948143E-3
375.832558E-3
375.807953E-3
375.549889E-3
375.694656E-3
375.537872E-3
375.495529E-3
375.479507E-3
375.353050E-3
375.362206E-3
375.264359E-3
375.169373E-3
375.257492E-3
375.150490E-3
375.222015E-3
375.138474E-3
375.129318E-3
375.166512E-3
375.040054E-3
375.066376E-3
374.966812E-3
374.969673E-3
375.082397E-3
374.800873E-3
374.859238E-3
374.807167E-3
374.714470E-3
374.750519E-3
374.519920E-3
374.648094E-3
374.611473E-3
374.533081E-3
374.605751E-3
374.241829E-3
374.260712E-3
374.144554E-3
374.054146E-3
374.083900E-3
373.802948E-3
373.857307E-3
373.634148E-3
373.531723E-3
373.705101E-3
373.833275E-3
374.496460E-3
375.343895E-3
376.195335E-3
377.107430E-3
377.802086E-3
378.637505E-3
379.143906E-3
379.555321E-3
379.807663E-3
379.599953E-3
379.519272E-3
379.264069E-3
378.815460E-3
378.580284E-3
378.036118E-3
377.736282E-3
377.317429E-3
377.149773E-3
377.187538E-3
377.048492E-3
377.136612E-3
377.058792E-3
377.019882E-3
377.110863E-3
376.759529E-3
376.594734E-3
376.345825E-3
376.142120E-3
376.150131E-3
376.041985E-3
376.191330E-3
376.187325E-3
376.178741E-3
376.494026E-3
376.463127E-3
376.641655E-3
376.770973E-3
376.661110E-3
376.656532E-3
376.630783E-3
376.631927E-3
376.498032E-3
376.215363E-3
376.182747E-3
375.970459E-3
375.731277E-3
375.523567E-3
375.389671E-3
375.222588E-3
375.051498E-3
375.008583E-3
374.934196E-3
374.716759E-3
374.794579E-3
374.608040E-3
374.532509E-3
374.457550E-3
374.410629E-3
374.452972E-3
374.297905E-3
374.355125E-3
374.339104E-3
374.186897E-3
374.438095E-3
374.162292E-3
374.197197E-3
374.165154E-3
374.188042E-3
374.261856E-3
374.099922E-3
374.102211E-3
374.099922E-3
373.974037E-3
374.057579E-3
373.927689E-3
374.030685E-3
374.024391E-3
373.920250E-3
374.008942E-3
373.832703E-3
373.808098E-3
373.805237E-3
373.627853E-3
373.686790E-3
373.410416E-3
373.420143E-3
373.390961E-3
373.233032E-3
373.271370E-3
373.171234E-3
373.239899E-3
373.275375E-3
373.439026E-3
374.057007E-3
374.682426E-3
375.546455E-3
376.466560E-3
377.281952E-3
378.347969E-3
378.754807E-3
379.337883E-3
379.565048E-3
379.500389E-3
379.547882E-3
379.162788E-3
378.901291E-3
378.483009E-3
378.004646E-3
377.981186E-3
377.581787E-3
377.442741E-3
377.378654E-3
377.173233E-3
377.433586E-3
377.304268E-3
377.464485E-3
377.589226E-3
377.459908E-3
377.469635E-3
377.213287E-3
376.914597E-3
376.809311E-3
376.671410E-3
376.729202E-3
376.650238E-3
376.771545E-3
376.796722E-3
376.799583E-3
376.950073E-3
376.851654E-3
377.019310E-3
377.108574E-3
377.032471E-3
377.152061E-3
377.076530E-3
376.897430E-3
376.791573E-3
376.540947E-3
376.510048E-3
376.225090E-3
376.166153E-3
376.045418E-3
375.890923E-3
376.033401E-3
375.783348E-3
375.714111E-3
375.766182E-3
375.573921E-3
375.662041E-3
375.498962E-3
375.426865E-3
375.437737E-3
375.310707E-3
375.424004E-3
375.296974E-3
375.332451E-3
375.323296E-3
375.159073E-3
375.234032E-3
375.077820E-3
375.125885E-3
375.128174E-3
375.020599E-3
375.236893E-3
375.111580E-3
375.104713E-3
375.084686E-3
374.918747E-3
375.048065E-3
374.884415E-3
374.898720E-3
374.957085E-3
374.781990E-3
374.860954E-3
374.727058E-3
374.682426E-3
374.720192E-3
374.600601E-3
374.479866E-3
374.392319E-3
374.240685E-3
374.278450E-3
374.064445E-3
374.161148E-3
374.027252E-3
373.969460E-3
373.941422E-3
373.802948E-3
374.066734E-3
374.004364E-3
374.368286E-3
375.041771E-3
375.694656E-3
376.822472E-3
377.570915E-3
378.507614E-3
379.452896E-3
379.826546E-3
380.316925E-3
380.371284E-3
380.346107E-3
380.176163E-3
379.775047E-3
379.527855E-3
379.119301E-3
378.819466E-3
378.540802E-3
378.170586E-3
378.067589E-3
378.117371E-3
378.248978E-3
378.331947E-3
378.237534E-3
378.333664E-3
378.189468E-3
378.204346E-3
378.068161E-3
377.639580E-3
377.641869E-3
377.332306E-3
377.261925E-3
377.253914E-3
377.193832E-3
377.249336E-3
377.304268E-3
377.462196E-3
377.541161E-3
377.388382E-3
377.579498E-3
377.507401E-3
377.517128E-3
377.491379E-3
377.300835E-3
377.246475E-3
377.000427E-3
376.865387E-3
376.778984E-3
376.569557E-3
376.468277E-3
376.328087E-3
376.150703E-3
376.116371E-3
376.009941E-3
376.075745E-3
375.980759E-3
375.886917E-3
375.926971E-3
375.693512E-3
375.885773E-3
375.706100E-3
375.686646E-3
375.730133E-3
375.521851E-3
375.658607E-3
375.622559E-3
375.552750E-3
375.676346E-3
375.572777E-3
375.666046E-3
375.671196E-3
375.603104E-3
375.616837E-3
375.381088E-3
375.402260E-3
375.280380E-3
375.299835E-3
375.207138E-3
375.062943E-3
375.226593E-3
375.164795E-3
375.031471E-3
375.097275E-3
374.942780E-3
374.934196E-3
374.793434E-3
374.780273E-3
374.782562E-3
374.527359E-3
374.526215E-3
374.359703E-3
374.234390E-3
374.249840E-3
374.111938E-3
374.240685E-3
374.207497E-3
374.088478E-3
374.209785E-3
374.511337E-3
375.337601E-3
376.129532E-3
377.089691E-3
377.950287E-3
378.497314E-3
379.205132E-3
379.665756E-3
379.848862E-3
379.917526E-3
379.615974E-3
379.455757E-3
379.146767E-3
378.709602E-3
378.496742E-3
377.994919E-3
377.826118E-3
377.646446E-3
377.482224E-3
377.450180E-3
377.329445E-3
377.501106E-3
377.495956E-3
377.344322E-3
377.213860E-3
376.950073E-3
376.836205E-3
376.638794E-3
376.463127E-3
376.532364E-3
376.455688E-3
376.631355E-3
376.627350E-3
376.583862E-3
376.931763E-3
376.852226E-3
377.109146E-3
377.112007E-3
377.052498E-3
377.030182E-3
376.844215E-3
376.768684E-3
376.660538E-3
376.453400E-3
376.312065E-3
375.946999E-3
375.868034E-3
375.685501E-3
375.593376E-3
375.605965E-3
375.308990E-3
375.311852E-3
375.283813E-3
375.081253E-3
375.079536E-3
375.027466E-3
375.001717E-3
374.947929E-3
374.814034E-3
374.925041E-3
374.754524E-3
374.827194E-3
374.763107E-3
374.678421E-3
374.678993E-3
374.569702E-3
374.650955E-3
374.700165E-3
374.580002E-3
374.734497E-3
374.591446E-3
374.638939E-3
374.541092E-3
374.403191E-3
374.571419E-3
374.350548E-3
374.358559E-3
374.297333E-3
374.179459E-3
374.359131E-3
374.195480E-3
374.186325E-3
374.081039E-3
373.950005E-3
374.002647E-3
373.841286E-3
373.762321E-3
373.680496E-3
373.448753E-3
373.565483E-3
373.396111E-3
373.476219E-3
373.477364E-3
373.237038E-3
373.326874E-3
373.534012E-3
374.132538E-3
374.929047E-3
375.664902E-3
376.773262E-3
377.495956E-3
378.354836E-3
378.854370E-3
379.276657E-3
379.616547E-3
379.464340E-3
379.360199E-3
379.075813E-3
378.640366E-3
378.580856E-3
378.097916E-3
377.839279E-3
377.635574E-3
377.340889E-3
377.514839E-3
377.424431E-3
377.596664E-3
377.625847E-3
377.620697E-3
377.804947E-3
377.682495E-3
377.555466E-3
377.384949E-3
377.078247E-3
377.056503E-3
376.768112E-3
376.780701E-3
376.766968E-3
376.753235E-3
376.955223E-3
376.917458E-3
376.985550E-3
377.077103E-3
377.029037E-3
377.203560E-3
377.194405E-3
377.176666E-3
377.197838E-3
376.861382E-3
376.871681E-3
376.630211E-3
376.478577E-3
376.419640E-3
376.107788E-3
376.086044E-3
375.841713E-3
375.835991E-3
375.889206E-3
375.704384E-3
375.716400E-3
375.563622E-3
375.552750E-3
375.579643E-3
375.398254E-3
375.501823E-3
375.290680E-3
375.290108E-3
375.357628E-3
375.177383E-3
375.310707E-3
375.182533E-3
375.266647E-3
375.215149E-3
375.072098E-3
375.139618E-3
375.012016E-3
375.118446E-3
375.159073E-3
375.044632E-3
375.078964E-3
374.939346E-3
374.825478E-3
374.842644E-3
374.768829E-3
374.851799E-3
374.652100E-3
374.617195E-3
374.749374E-3
374.656677E-3
374.681854E-3
374.576569E-3
374.432945E-3
374.495888E-3
374.309349E-3
374.287605E-3
374.160576E-3
374.090767E-3
374.164581E-3
374.006653E-3
373.952866E-3
373.763466E-3
373.746872E-3
373.744011E-3
373.639870E-3
373.844719E-3
374.078751E-3
374.755669E-3
375.596809E-3
376.385880E-3
377.528572E-3
378.293037E-3
379.015160E-3
379.486084E-3
379.671478E-3
379.848862E-3
379.721832E-3
379.460335E-3
379.187965E-3
378.734207E-3
378.481865E-3
378.098488E-3
377.791786E-3
377.727127E-3
377.597809E-3
377.661896E-3
377.640152E-3
377.646446E-3
377.778625E-3
377.774620E-3
377.878189E-3
377.708817E-3
377.490807E-3
377.301979E-3
376.922607E-3
376.911163E-3
376.756096E-3
376.753807E-3
376.983833E-3
376.937485E-3
377.146339E-3
377.112007E-3
377.156067E-3
377.445602E-3
377.295113E-3
377.307701E-3
377.141762E-3
377.113724E-3
377.077675E-3
376.736069E-3
376.718330E-3
376.585579E-3
376.367569E-3
376.404190E-3
376.056862E-3
376.079750E-3
375.861168E-3
375.753021E-3
375.882339E-3
375.671196E-3
375.766182E-3
375.651169E-3
375.564194E-3
375.556183E-3
375.391388E-3
375.559616E-3
375.476074E-3
375.436592E-3
375.537300E-3
375.282097E-3
375.404549E-3
375.358200E-3
375.198555E-3
375.358772E-3
375.226593E-3
375.333595E-3
375.341034E-3
375.242043E-3
375.290680E-3
375.013733E-3
375.131035E-3
375.078392E-3
375.026894E-3
375.140762E-3
374.927902E-3
374.895859E-3
374.789429E-3
374.674988E-3
374.691010E-3
374.590302E-3
374.642372E-3
374.633217E-3
374.509048E-3
374.456978E-3
374.279022E-3
374.257851E-3
374.103928E-3
373.962021E-3
374.074173E-3
373.991776E-3
374.006081E-3
373.900223E-3
373.777771E-3
373.973465E-3
374.163437E-3
374.764252E-3
375.477219E-3
376.320076E-3
377.341461E-3
378.029823E-3
378.725624E-3
379.274940E-3
379.426003E-3
379.638863E-3
379.443169E-3
379.325294E-3
378.975677E-3
378.458977E-3
378.270721E-3
377.830696E-3
377.706528E-3
377.497673E-3
377.210999E-3
377.291679E-3
377.190399E-3
377.451324E-3
377.487946E-3
377.400970E-3
377.371788E-3
377.196693E-3
377.066803E-3
376.792717E-3
376.533508E-3
376.525497E-3
376.496887E-3
376.532364E-3
376.650810E-3
376.692581E-3
376.852226E-3
376.766396E-3
376.926041E-3
377.074242E-3
377.110291E-3
377.142334E-3
376.995277E-3
376.911736E-3
376.782990E-3
376.484871E-3
376.516342E-3
376.218224E-3
376.050568E-3
375.858879E-3
375.640869E-3
375.722694E-3
375.382805E-3
375.460052E-3
375.427437E-3
375.311852E-3
375.418854E-3
375.210571E-3
375.173950E-3
375.109863E-3
375.042343E-3
375.160789E-3
375.018311E-3
375.025177E-3
375.007439E-3
374.903870E-3
375.013733E-3
374.951363E-3
375.034904E-3
374.995995E-3
374.908447E-3
374.974823E-3
374.746513E-3
374.832344E-3
374.779129E-3
374.703598E-3
374.787140E-3
374.630928E-3
374.633217E-3
374.547958E-3
374.459267E-3
374.636650E-3
374.362564E-3
374.415207E-3
374.349403E-3
374.158859E-3
374.337959E-3
374.164581E-3
374.167442E-3
374.113083E-3
373.998642E-3
374.040413E-3
373.883057E-3
373.840714E-3
373.906517E-3
373.724556E-3
373.770905E-3
373.525429E-3
373.635292E-3
373.643875E-3
373.539162E-3
373.914528E-3
374.225235E-3
374.935341E-3
375.882339E-3
376.696014E-3
377.861023E-3
378.531075E-3
379.204559E-3
379.616547E-3
379.682922E-3
379.851151E-3
379.715538E-3
379.403114E-3
379.049492E-3
378.570557E-3
378.400040E-3
378.105927E-3
377.954292E-3
377.862167E-3
377.728844E-3
377.998924E-3
377.953148E-3
378.088760E-3
378.310204E-3
378.290176E-3
378.399467E-3
378.162003E-3
378.056145E-3
377.789497E-3
377.529144E-3
377.487946E-3
377.298546E-3
377.311134E-3
377.312279E-3
377.362061E-3
377.608681E-3
377.493095E-3
377.560043E-3
377.615547E-3
377.557755E-3
377.745438E-3
377.558327E-3
377.414131E-3
377.323723E-3
377.067947E-3
376.993561E-3
376.758957E-3
376.746941E-3
376.473427E-3
376.155281E-3
376.202774E-3
376.024246E-3
375.986481E-3
375.972748E-3
375.912094E-3
375.863457E-3
375.670624E-3
375.595665E-3
375.648308E-3
375.587082E-3
375.611115E-3
375.369644E-3
375.390244E-3
375.495529E-3
375.317001E-3
375.430870E-3
375.345612E-3
375.344467E-3
375.326157E-3
375.178528E-3
375.248337E-3
375.121880E-3
375.296402E-3
375.292397E-3
375.052071E-3
375.053215E-3
374.917030E-3
374.838638E-3
374.895287E-3
374.720192E-3
374.779129E-3
374.569702E-3
374.591446E-3
374.709892E-3
374.490166E-3
374.513054E-3
374.388313E-3
374.296188E-3
374.378014E-3
374.277306E-3
374.463844E-3
374.315643E-3
374.213791E-3
374.246979E-3
373.959732E-3
374.015236E-3
373.879623E-3
373.772621E-3
373.802376E-3
373.727417E-3
373.689651E-3
373.564911E-3
373.444176E-3
373.607826E-3
373.734283E-3
374.359703E-3
374.916458E-3
375.812531E-3
376.811028E-3
377.640724E-3
378.488731E-3
378.989410E-3
379.343605E-3
379.540443E-3
379.341888E-3
379.308128E-3
378.828049E-3
378.543091E-3
378.345680E-3
377.897072E-3
377.742577E-3
377.500534E-3
377.417564E-3
377.511978E-3
377.458191E-3
377.527428E-3
377.419853E-3
377.616119E-3
377.791214E-3
377.569771E-3
377.527428E-3
377.276802E-3
377.010155E-3
376.861954E-3
376.634789E-3
376.701164E-3
376.682854E-3
376.753235E-3
376.898575E-3
376.883125E-3
377.054214E-3
377.172089E-3
377.172089E-3
377.303696E-3
377.069664E-3
377.014732E-3
376.823616E-3
376.722336E-3
376.679420E-3
376.317215E-3
376.319504E-3
376.112938E-3
375.937843E-3
375.934982E-3
375.675201E-3
375.750732E-3
375.567627E-3
375.470352E-3
375.500679E-3
375.313568E-3
375.215149E-3
375.169945E-3
375.136185E-3
375.191116E-3
374.967957E-3
375.099564E-3
375.082970E-3
375.013733E-3
375.074959E-3
374.955940E-3
375.065231E-3
374.998283E-3
374.959946E-3
375.026894E-3
374.842644E-3
374.854660E-3
374.804878E-3
374.716759E-3
374.752808E-3
374.487305E-3
374.610329E-3
374.544525E-3
374.447250E-3
374.486732E-3
374.168015E-3
374.237823E-3
374.137688E-3
374.063301E-3
374.031258E-3
373.802948E-3
373.899651E-3
373.875618E-3
373.736572E-3
373.724556E-3
373.512840E-3
373.524284E-3
373.385811E-3
373.269653E-3
373.316574E-3
373.068810E-3
373.076248E-3
373.069382E-3
373.001289E-3
373.045921E-3
372.996140E-3
373.358345E-3
373.806381E-3
374.348259E-3
375.227737E-3
376.042557E-3
376.915741E-3
377.777481E-3
378.301620E-3
378.791428E-3
378.790283E-3
378.794289E-3
378.611755E-3
378.374863E-3
378.103065E-3
377.583504E-3
377.386665E-3
377.186966E-3
376.815033E-3
376.891708E-3
376.662254E-3
376.745796E-3
376.722336E-3
376.747513E-3
376.939201E-3
376.915169E-3
377.018166E-3
376.803017E-3
376.649666E-3
376.416779E-3
376.120949E-3
376.162148E-3
376.155853E-3
376.009941E-3
376.139259E-3
376.155853E-3
376.345253E-3
376.504898E-3
376.378441E-3
