Notes :


2023-11-13 ¿ÀÀü 12:54:10
Volts
Ch : LED 2,
906.909943E-3
906.328011E-3
905.803871E-3
905.268288E-3
905.203056E-3
904.984474E-3
905.334091E-3
905.504608E-3
905.667114E-3
906.103134E-3
906.123161E-3
906.349754E-3
906.136322E-3
906.022453E-3
905.775833E-3
905.297470E-3
905.226517E-3
904.682350E-3
904.323006E-3
903.814316E-3
903.341103E-3
903.140259E-3
902.716827E-3
902.320862E-3
902.107430E-3
901.610756E-3
901.466560E-3
901.179314E-3
900.963020E-3
900.748444E-3
900.444031E-3
900.389099E-3
900.138474E-3
900.010300E-3
899.975967E-3
899.722481E-3
899.680710E-3
899.485016E-3
899.342537E-3
899.588585E-3
899.123383E-3
899.003220E-3
898.798370E-3
898.682213E-3
898.756599E-3
898.513412E-3
898.459053E-3
898.518562E-3
898.289680E-3
898.289680E-3
898.155212E-3
898.093414E-3
898.024178E-3
897.951508E-3
897.793007E-3
897.512054E-3
897.308922E-3
897.379303E-3
896.778488E-3
896.609116E-3
896.295547E-3
896.067810E-3
895.609474E-3
895.402336E-3
895.362282E-3
894.998360E-3
895.343971E-3
895.762825E-3
897.014236E-3
899.166870E-3
901.571846E-3
904.228020E-3
906.824112E-3
908.922386E-3
910.701370E-3
911.735916E-3
912.342453E-3
912.575340E-3
912.286949E-3
912.029457E-3
911.333084E-3
910.717964E-3
909.697723E-3
909.324646E-3
908.981323E-3
908.603668E-3
908.536720E-3
908.343315E-3
908.319283E-3
908.327866E-3
908.353615E-3
908.222580E-3
908.300400E-3
908.050346E-3
907.953644E-3
907.240677E-3
906.885338E-3
906.289101E-3
905.772972E-3
905.633354E-3
905.373001E-3
905.488014E-3
905.572701E-3
905.674553E-3
905.859947E-3
906.048775E-3
906.092262E-3
906.041336E-3
905.929184E-3
905.317497E-3
905.201912E-3
905.096054E-3
904.736137E-3
904.280663E-3
904.026031E-3
903.736496E-3
903.311348E-3
902.972603E-3
902.707672E-3
902.556610E-3
902.188110E-3
901.993561E-3
901.813316E-3
901.589012E-3
901.524925E-3
900.881767E-3
901.033974E-3
900.905228E-3
900.655174E-3
900.571060E-3
900.362206E-3
900.197983E-3
899.995422E-3
899.846649E-3
899.742508E-3
899.575996E-3
899.597168E-3
899.450684E-3
899.260712E-3
899.246979E-3
899.005508E-3
898.963737E-3
898.828125E-3
898.871040E-3
898.688507E-3
898.470497E-3
898.370361E-3
898.254204E-3
898.059654E-3
898.127174E-3
897.843361E-3
897.730637E-3
897.389030E-3
897.385597E-3
897.430229E-3
897.064590E-3
896.936417E-3
896.737289E-3
896.365356E-3
896.226311E-3
895.820045E-3
895.418930E-3
895.266151E-3
895.080185E-3
895.011520E-3
895.223808E-3
895.976257E-3
897.462845E-3
899.598885E-3
902.319717E-3
905.015945E-3
907.594872E-3
909.657669E-3
911.166573E-3
912.240028E-3
912.592506E-3
912.761307E-3
912.780190E-3
912.028885E-3
911.546516E-3
910.658455E-3
910.027885E-3
909.544945E-3
909.017372E-3
908.930969E-3
908.544159E-3
908.458328E-3
908.525848E-3
908.590508E-3
908.600807E-3
908.514977E-3
908.541870E-3
908.360481E-3
907.899284E-3
907.473564E-3
906.756020E-3
906.251335E-3
905.914307E-3
905.604744E-3
905.687141E-3
905.606461E-3
905.854225E-3
906.035042E-3
906.140900E-3
906.797218E-3
906.467628E-3
906.382370E-3
906.261635E-3
906.004143E-3
905.854225E-3
905.509186E-3
905.070305E-3
904.837990E-3
904.396248E-3
904.089546E-3
903.755379E-3
903.508186E-3
903.164291E-3
902.841568E-3
902.651024E-3
902.090263E-3
901.950073E-3
901.948929E-3
901.854515E-3
901.712036E-3
901.411629E-3
901.298904E-3
901.219940E-3
901.017380E-3
900.907516E-3
900.692368E-3
900.671196E-3
900.594521E-3
900.378227E-3
900.331306E-3
900.223160E-3
900.116730E-3
900.076103E-3
899.721336E-3
899.947357E-3
899.711609E-3
899.629784E-3
899.690437E-3
899.471855E-3
899.420357E-3
899.272156E-3
899.179459E-3
899.126244E-3
898.895645E-3
898.853874E-3
898.680496E-3
898.623848E-3
898.512840E-3
898.315430E-3
898.231316E-3
897.882271E-3
897.970390E-3
897.548676E-3
897.195625E-3
896.927834E-3
896.750450E-3
896.475792E-3
896.443176E-3
896.496964E-3
896.392822E-3
896.538734E-3
897.407913E-3
899.029541E-3
901.081467E-3
903.842926E-3
906.416130E-3
908.853722E-3
911.004066E-3
912.016296E-3
912.831116E-3
913.054276E-3
913.034821E-3
912.614822E-3
912.076950E-3
911.374283E-3
910.636711E-3
909.476852E-3
909.312057E-3
908.765030E-3
908.623123E-3
908.345604E-3
908.348465E-3
908.359337E-3
908.208275E-3
908.420563E-3
908.271790E-3
908.081818E-3
907.725334E-3
907.235527E-3
906.754303E-3
906.132889E-3
905.845642E-3
905.773544E-3
905.727768E-3
906.021881E-3
906.242180E-3
906.440163E-3
906.715393E-3
906.804085E-3
906.851578E-3
906.811523E-3
906.722832E-3
906.591225E-3
906.247330E-3
905.980682E-3
905.522346E-3
905.140686E-3
904.798508E-3
904.285240E-3
903.972244E-3
903.357697E-3
903.252983E-3
903.056145E-3
902.628136E-3
902.454185E-3
902.184677E-3
902.033615E-3
901.881981E-3
901.500893E-3
901.375580E-3
901.091194E-3
900.915527E-3
900.848007E-3
900.583076E-3
900.457764E-3
900.429153E-3
900.155640E-3
900.028610E-3
899.961662E-3
899.832916E-3
899.633789E-3
899.510765E-3
899.498749E-3
899.279594E-3
899.240112E-3
899.026680E-3
898.820686E-3
899.256706E-3
898.665619E-3
898.611832E-3
898.320580E-3
898.192978E-3
898.072243E-3
897.786713E-3
897.601891E-3
897.358704E-3
897.059441E-3
896.883202E-3
896.370506E-3
896.121597E-3
895.797729E-3
895.525360E-3
895.362282E-3
895.401764E-3
895.178032E-3
895.136833E-3
895.590019E-3
896.696091E-3
898.379517E-3
900.856018E-3
903.514481E-3
905.958366E-3
908.438873E-3
909.935760E-3
910.972023E-3
911.577988E-3
911.761093E-3
911.596870E-3
911.157417E-3
910.585785E-3
909.891701E-3
908.977318E-3
908.444023E-3
907.848930E-3
907.464409E-3
907.245827E-3
906.984329E-3
907.024384E-3
906.963158E-3
906.926537E-3
906.912804E-3
906.940842E-3
906.889915E-3
906.347466E-3
905.828476E-3
905.146980E-3
904.557037E-3
904.319000E-3
903.981972E-3
903.751373E-3
903.945923E-3
904.261208E-3
904.499245E-3
904.664040E-3
904.855728E-3
904.925537E-3
905.127525E-3
905.005074E-3
904.684067E-3
904.429436E-3
904.076958E-3
903.598595E-3
903.198624E-3
902.820396E-3
902.514839E-3
902.125740E-3
901.734352E-3
901.451111E-3
900.991631E-3
900.775909E-3
900.431442E-3
900.242043E-3
900.093269E-3
899.879265E-3
899.680710E-3
899.538231E-3
899.385452E-3
899.268723E-3
899.088478E-3
899.010086E-3
898.885918E-3
898.706245E-3
898.697662E-3
898.734283E-3
898.500824E-3
898.225021E-3
898.118019E-3
898.052788E-3
897.831345E-3
897.800446E-3
897.723198E-3
897.497749E-3
897.061157E-3
897.126389E-3
897.050858E-3
896.960449E-3
896.833992E-3
896.771622E-3
896.575928E-3
896.562195E-3
896.331596E-3
896.678925E-3
896.257782E-3
895.955658E-3
895.789719E-3
895.429802E-3
895.087624E-3
894.875908E-3
894.247627E-3
894.247055E-3
894.034195E-3
893.970680E-3
893.887711E-3
893.838501E-3
894.501114E-3
895.705605E-3
897.616768E-3
899.924469E-3
902.800369E-3
905.636787E-3
907.782555E-3
909.446526E-3
910.527992E-3
911.187172E-3
911.468697E-3
911.303329E-3
910.506248E-3
910.190964E-3
909.346962E-3
908.868027E-3
908.342743E-3
907.920456E-3
907.573700E-3
907.380295E-3
907.293892E-3
907.389450E-3
907.418633E-3
907.410622E-3
907.361412E-3
907.588577E-3
907.250404E-3
906.960869E-3
906.540298E-3
905.904007E-3
905.693436E-3
905.014801E-3
904.570770E-3
904.443741E-3
904.420853E-3
904.586220E-3
904.748154E-3
904.767036E-3
904.961014E-3
905.165291E-3
905.156708E-3
904.936409E-3
904.715538E-3
904.526138E-3
904.197693E-3
904.101562E-3
903.815460E-3
903.290749E-3
902.917099E-3
902.416420E-3
902.182388E-3
901.902008E-3
901.617622E-3
901.406479E-3
901.054573E-3
901.103210E-3
900.830841E-3
900.537872E-3
900.327301E-3
900.159073E-3
900.088692E-3
899.959373E-3
899.705315E-3
899.645233E-3
899.811745E-3
899.490166E-3
899.114227E-3
899.084473E-3
898.987198E-3
898.690796E-3
898.814964E-3
898.751450E-3
898.631287E-3
898.744011E-3
898.528862E-3
898.481369E-3
898.130035E-3
898.093414E-3
898.015022E-3
897.801590E-3
897.694588E-3
897.661400E-3
897.181892E-3
897.293472E-3
897.137833E-3
897.069168E-3
897.100067E-3
896.834564E-3
896.716118E-3
896.530151E-3
896.355629E-3
896.209145E-3
895.876694E-3
895.665550E-3
895.381165E-3
895.230103E-3
894.961739E-3
894.628716E-3
895.095634E-3
894.618416E-3
894.803238E-3
895.321083E-3
896.617126E-3
898.840714E-3
901.274872E-3
904.031181E-3
906.582642E-3
908.284378E-3
910.068512E-3
910.961151E-3
911.533928E-3
911.501312E-3
911.214066E-3
910.812378E-3
910.087967E-3
909.403038E-3
908.787346E-3
908.360481E-3
907.821465E-3
907.542229E-3
907.373428E-3
907.520485E-3
907.340240E-3
907.504463E-3
907.392883E-3
907.680702E-3
907.431221E-3
907.144547E-3
906.884193E-3
906.130028E-3
905.639076E-3
905.319786E-3
904.895782E-3
904.815674E-3
904.540443E-3
904.829979E-3
905.148125E-3
905.347252E-3
905.546379E-3
905.557823E-3
905.645370E-3
905.637932E-3
905.406761E-3
905.371284E-3
905.015945E-3
904.682350E-3
904.412270E-3
903.912735E-3
903.716469E-3
903.257561E-3
902.850151E-3
902.547455E-3
902.275085E-3
902.226448E-3
901.919746E-3
901.749229E-3
901.494026E-3
901.310349E-3
901.199341E-3
900.769615E-3
900.887489E-3
900.561333E-3
900.442314E-3
900.413132E-3
900.226021E-3
900.048637E-3
899.975967E-3
899.852943E-3
900.129318E-3
899.773979E-3
899.776268E-3
899.732208E-3
899.648094E-3
899.468994E-3
899.312782E-3
899.196625E-3
899.040985E-3
898.487091E-3
898.810959E-3
898.623276E-3
898.710251E-3
898.544312E-3
898.303986E-3
898.315430E-3
898.079109E-3
898.059654E-3
897.754669E-3
897.601891E-3
897.360420E-3
896.913528E-3
896.690941E-3
896.438599E-3
896.068382E-3
896.233749E-3
895.723343E-3
895.601463E-3
895.381165E-3
895.354271E-3
895.822334E-3
896.782494E-3
898.543739E-3
900.948715E-3
903.438377E-3
905.962372E-3
907.906151E-3
909.461403E-3
910.547447E-3
911.072159E-3
911.258698E-3
911.009789E-3
910.670471E-3
910.342026E-3
909.382439E-3
908.773613E-3
907.995415E-3
907.427788E-3
907.154846E-3
906.927109E-3
906.863594E-3
906.694794E-3
906.532860E-3
906.731415E-3
906.756020E-3
906.856155E-3
906.529427E-3
906.075668E-3
905.525780E-3
904.813957E-3
904.260063E-3
903.957367E-3
903.900146E-3
904.028320E-3
904.175377E-3
904.478645E-3
904.597092E-3
904.753876E-3
905.070305E-3
904.955292E-3
905.019379E-3
904.764748E-3
904.484367E-3
904.236031E-3
903.775978E-3
903.396034E-3
902.987480E-3
902.316856E-3
902.156067E-3
901.720619E-3
901.584435E-3
901.066589E-3
900.892067E-3
900.563049E-3
900.428009E-3
900.144768E-3
899.959373E-3
899.671555E-3
899.498749E-3
899.328232E-3
899.352837E-3
899.223518E-3
899.014091E-3
898.827553E-3
898.569489E-3
898.948288E-3
898.476219E-3
898.203278E-3
898.245621E-3
898.093987E-3
897.965813E-3
897.711182E-3
897.669411E-3
897.674561E-3
897.881126E-3
897.576141E-3
897.165871E-3
897.050285E-3
896.949005E-3
896.759033E-3
896.790504E-3
896.524429E-3
896.542740E-3
896.090698E-3
895.977402E-3
895.842361E-3
895.713043E-3
895.547676E-3
895.207214E-3
894.828415E-3
894.687653E-3
894.297409E-3
894.132614E-3
893.861389E-3
893.666267E-3
893.729782E-3
894.264221E-3
895.650673E-3
897.716331E-3
900.167656E-3
902.739716E-3
905.217934E-3
907.217216E-3
908.757591E-3
909.617615E-3
910.201263E-3
910.202980E-3
910.013008E-3
909.677124E-3
909.127808E-3
908.569908E-3
908.014870E-3
907.537651E-3
907.256126E-3
906.958580E-3
906.905937E-3
906.774902E-3
906.842422E-3
906.978035E-3
906.995773E-3
907.139397E-3
907.041550E-3
906.977463E-3
906.813240E-3
906.185532E-3
905.770683E-3
904.738426E-3
904.496384E-3
904.355621E-3
904.211426E-3
904.166794E-3
904.258347E-3
904.285240E-3
904.597664E-3
904.570770E-3
904.442024E-3
904.752731E-3
904.767036E-3
904.669762E-3
904.432869E-3
904.180527E-3
903.803444E-3
903.494453E-3
903.087616E-3
902.651024E-3
902.363777E-3
902.054787E-3
901.858521E-3
901.821899E-3
901.392746E-3
901.257133E-3
901.431656E-3
901.001930E-3
900.802231E-3
900.528717E-3
900.371361E-3
900.062943E-3
899.999428E-3
899.913597E-3
899.636078E-3
899.878693E-3
899.489594E-3
899.263000E-3
899.398041E-3
899.139404E-3
899.152565E-3
899.117088E-3
898.919678E-3
898.921394E-3
898.973465E-3
898.763466E-3
898.661041E-3
898.396683E-3
898.417282E-3
898.221016E-3
898.343468E-3
898.194695E-3
898.004150E-3
898.388672E-3
897.965240E-3
897.779846E-3
897.506332E-3
897.383308E-3
897.308350E-3
897.059441E-3
896.826553E-3
896.728706E-3
896.484947E-3
896.234322E-3
895.969391E-3
895.836067E-3
895.750809E-3
895.592308E-3
895.789719E-3
896.677208E-3
897.745514E-3
899.343109E-3
901.675987E-3
904.285240E-3
906.540298E-3
908.549309E-3
910.054779E-3
911.111069E-3
911.274147E-3
911.380005E-3
911.480713E-3
910.894203E-3
910.390091E-3
909.906006E-3
909.248543E-3
908.973312E-3
908.640862E-3
907.915306E-3
908.234024E-3
908.238029E-3
908.532715E-3
908.628273E-3
908.852577E-3
908.843994E-3
908.686638E-3
908.639145E-3
908.348465E-3
907.833481E-3
907.278442E-3
906.664467E-3
906.322861E-3
906.196976E-3
906.273079E-3
906.245041E-3
906.381226E-3
906.365776E-3
906.554031E-3
906.618118E-3
906.786346E-3
906.599808E-3
906.555748E-3
906.374359E-3
906.230736E-3
905.900574E-3
905.489731E-3
905.225945E-3
904.760742E-3
904.597664E-3
904.234314E-3
903.960800E-3
903.737068E-3
903.844070E-3
903.354263E-3
903.227806E-3
902.979469E-3
902.954865E-3
902.764893E-3
902.594376E-3
902.558327E-3
902.232170E-3
902.352905E-3
902.072525E-3
901.944351E-3
901.809311E-3
901.622200E-3
901.603317E-3
901.433945E-3
901.310921E-3
901.384735E-3
901.337814E-3
901.242828E-3
901.084328E-3
900.953865E-3
900.973892E-3
900.839996E-3
900.768471E-3
900.604248E-3
900.430298E-3
900.600243E-3
900.450897E-3
900.283241E-3
900.075531E-3
899.828911E-3
899.608612E-3
899.351692E-3
899.120522E-3
898.907661E-3
898.836708E-3
898.342896E-3
897.930336E-3
897.763824E-3
897.611618E-3
897.369576E-3
897.411346E-3
897.478294E-3
898.396683E-3
899.703598E-3
901.508904E-3
903.927612E-3
906.104851E-3
908.145332E-3
909.596443E-3
910.590935E-3
911.186600E-3
911.322784E-3
911.409760E-3
911.088181E-3
910.604095E-3
909.999847E-3
909.306335E-3
908.770180E-3
908.240318E-3
908.154488E-3
907.935905E-3
907.594872E-3
907.562256E-3
907.610893E-3
907.612038E-3
907.651520E-3
907.661247E-3
907.383156E-3
906.819534E-3
906.199837E-3
905.730057E-3
905.048561E-3
904.833412E-3
904.601097E-3
904.589653E-3
904.802513E-3
904.907227E-3
904.855156E-3
905.173874E-3
905.249977E-3
905.442810E-3
905.290604E-3
905.144691E-3
904.815102E-3
904.540443E-3
904.388237E-3
904.098701E-3
903.555107E-3
903.064728E-3
902.724266E-3
902.510262E-3
902.052498E-3
901.771545E-3
901.909447E-3
901.362419E-3
901.159859E-3
900.807381E-3
900.740433E-3
900.506401E-3
900.242615E-3
900.295258E-3
900.001717E-3
899.989128E-3
899.769974E-3
899.537659E-3
899.506760E-3
899.191475E-3
899.183464E-3
898.939133E-3
898.813820E-3
898.780632E-3
898.298264E-3
898.487663E-3
898.353195E-3
898.229599E-3
898.229027E-3
898.023605E-3
897.986984E-3
897.794151E-3
