Notes :


2023-11-04 ¿ÀÈÄ 7:23:31
Volts
Ch : LED 2,
556.774521E-3
556.429482E-3
556.303024E-3
556.504440E-3
556.850624E-3
557.163620E-3
557.304955E-3
557.651138E-3
557.568741E-3
556.900978E-3
555.844688E-3
554.623604E-3
553.783607E-3
553.306389E-3
553.256035E-3
553.465462E-3
553.856850E-3
554.402161E-3
554.993248E-3
555.330849E-3
555.429268E-3
555.413818E-3
555.423546E-3
555.245590E-3
554.940033E-3
554.588127E-3
554.257393E-3
553.978157E-3
553.527832E-3
553.107834E-3
552.956772E-3
552.748489E-3
552.572250E-3
552.361679E-3
552.287292E-3
552.135658E-3
552.020073E-3
551.809502E-3
551.762009E-3
551.683617E-3
551.653862E-3
551.653290E-3
551.565170E-3
551.458740E-3
551.297951E-3
551.334572E-3
551.277351E-3
551.249886E-3
551.133156E-3
551.122856E-3
551.180649E-3
551.218414E-3
551.218414E-3
551.243591E-3
551.066780E-3
550.898552E-3
550.755501E-3
550.739479E-3
550.559235E-3
550.318336E-3
550.055122E-3
550.075722E-3
550.078583E-3
549.940681E-3
549.823380E-3
549.828529E-3
549.897766E-3
549.799347E-3
549.638557E-3
549.541283E-3
549.365616E-3
549.260330E-3
549.009132E-3
548.677254E-3
548.408890E-3
548.133087E-3
547.916794E-3
547.741127E-3
547.606659E-3
547.592926E-3
547.632980E-3
547.694778E-3
547.858429E-3
548.281860E-3
549.490929E-3
551.683044E-3
554.746056E-3
558.653641E-3
563.000107E-3
567.135429E-3
570.716858E-3
573.148155E-3
574.473953E-3
574.569511E-3
573.703766E-3
572.264671E-3
570.464516E-3
568.725586E-3
567.010689E-3
565.488625E-3
564.390564E-3
563.649559E-3
563.237572E-3
563.147736E-3
563.266182E-3
563.630104E-3
564.121056E-3
564.653778E-3
565.112114E-3
565.408516E-3
565.136719E-3
564.356232E-3
563.349152E-3
562.252808E-3
561.237144E-3
560.510445E-3
560.236931E-3
560.220909E-3
560.517883E-3
560.913277E-3
561.339569E-3
561.611938E-3
561.894035E-3
562.043953E-3
561.950111E-3
561.911201E-3
561.548996E-3
561.300087E-3
560.992241E-3
560.592270E-3
560.178566E-3
559.680748E-3
559.343147E-3
558.899689E-3
558.484840E-3
558.277702E-3
558.076286E-3
557.812500E-3
557.608223E-3
557.456017E-3
557.384491E-3
557.279205E-3
557.185936E-3
557.190514E-3
557.164764E-3
556.996536E-3
556.770515E-3
556.608009E-3
556.543922E-3
556.361389E-3
556.432343E-3
556.423759E-3
556.297874E-3
556.165695E-3
556.028938E-3
556.011772E-3
555.755424E-3
555.501366E-3
555.311394E-3
555.191231E-3
555.024719E-3
554.797554E-3
554.627609E-3
554.513741E-3
554.333496E-3
554.126358E-3
554.001617E-3
553.792191E-3
553.713799E-3
553.588486E-3
553.569031E-3
553.590202E-3
553.499794E-3
553.475761E-3
553.333282E-3
553.211975E-3
553.079224E-3
553.042603E-3
552.861786E-3
552.575684E-3
552.383423E-3
552.043533E-3
551.859283E-3
551.482201E-3
551.320267E-3
551.355743E-3
551.414680E-3
551.567459E-3
552.003479E-3
553.357887E-3
555.807495E-3
559.136581E-3
563.317108E-3
567.655563E-3
571.639824E-3
574.911118E-3
577.145004E-3
578.106308E-3
578.146362E-3
577.125549E-3
575.600052E-3
573.660278E-3
571.873283E-3
570.135498E-3
568.633461E-3
567.443275E-3
566.666794E-3
566.341209E-3
566.242218E-3
566.357803E-3
566.785240E-3
567.269897E-3
567.821503E-3
568.329048E-3
568.379974E-3
568.089867E-3
567.312813E-3
566.131783E-3
564.666367E-3
563.547134E-3
562.728310E-3
562.139511E-3
561.988449E-3
562.074280E-3
562.308311E-3
562.661362E-3
563.008690E-3
563.246727E-3
563.438988E-3
563.188934E-3
563.012123E-3
562.667656E-3
562.272835E-3
561.886597E-3
561.329269E-3
560.712433E-3
560.149384E-3
559.679031E-3
559.372330E-3
558.885384E-3
558.570671E-3
558.177567E-3
557.857704E-3
557.443428E-3
557.084656E-3
556.918144E-3
556.554794E-3
556.225777E-3
556.016922E-3
555.855560E-3
555.653572E-3
555.407524E-3
555.151749E-3
554.960632E-3
554.668808E-3
554.488564E-3
554.241371E-3
554.064560E-3
553.959846E-3
553.642845E-3
553.535271E-3
553.402519E-3
553.215981E-3
552.976227E-3
552.761078E-3
552.521896E-3
552.263832E-3
551.970863E-3
551.836395E-3
551.557732E-3
551.422691E-3
551.237869E-3
551.083374E-3
551.053047E-3
551.111984E-3
551.102829E-3
550.967789E-3
550.938034E-3
550.741768E-3
550.491714E-3
550.349808E-3
550.185013E-3
550.001907E-3
549.798775E-3
549.596786E-3
549.314690E-3
549.141884E-3
548.823738E-3
548.697853E-3
548.622894E-3
548.637199E-3
548.524475E-3
548.531342E-3
549.030876E-3
550.393867E-3
552.731895E-3
556.016922E-3
560.001755E-3
564.264107E-3
568.057251E-3
571.147728E-3
573.010254E-3
573.649406E-3
573.306084E-3
572.113609E-3
570.480537E-3
568.663216E-3
566.716576E-3
565.007973E-3
563.588333E-3
562.562943E-3
561.807060E-3
561.320686E-3
561.389923E-3
561.399651E-3
561.605644E-3
562.007332E-3
562.379837E-3
562.698555E-3
562.464523E-3
561.882591E-3
560.783958E-3
559.969139E-3
559.174919E-3
558.495140E-3
558.257675E-3
558.467674E-3
558.877373E-3
559.426689E-3
559.928513E-3
560.485840E-3
560.650635E-3
560.618019E-3
560.606003E-3
560.377121E-3
560.143661E-3
559.838676E-3
559.366035E-3
558.939743E-3
558.519745E-3
558.171844E-3
557.723808E-3
557.277489E-3
557.046890E-3
556.781387E-3
556.555367E-3
556.369400E-3
556.285858E-3
556.098747E-3
555.935669E-3
555.778885E-3
555.596352E-3
555.401230E-3
555.278206E-3
555.054474E-3
554.966354E-3
554.894257E-3
554.730034E-3
554.656792E-3
554.586411E-3
554.571533E-3
554.543495E-3
554.430771E-3
554.335785E-3
554.202461E-3
554.089165E-3
553.983879E-3
553.920364E-3
553.809929E-3
553.604507E-3
553.624535E-3
553.529549E-3
553.439713E-3
553.412819E-3
553.297234E-3
553.208542E-3
552.996254E-3
552.737617E-3
552.531052E-3
552.412605E-3
552.144814E-3
551.722527E-3
551.519394E-3
551.269913E-3
551.000404E-3
550.774956E-3
550.696564E-3
550.631905E-3
550.565529E-3
550.614166E-3
550.815582E-3
551.518250E-3
552.921295E-3
555.398941E-3
558.736610E-3
562.883949E-3
567.085075E-3
571.029282E-3
574.275398E-3
576.232338E-3
577.001381E-3
576.757622E-3
575.758553E-3
574.201584E-3
572.340202E-3
570.593262E-3
568.957901E-3
567.527962E-3
566.551781E-3
565.854263E-3
565.757561E-3
565.763283E-3
565.857697E-3
566.326332E-3
566.841316E-3
567.283630E-3
567.542839E-3
567.537689E-3
567.083931E-3
566.096306E-3
564.930153E-3
563.899612E-3
562.968063E-3
562.481117E-3
562.249947E-3
562.445068E-3
562.740898E-3
563.021851E-3
563.401222E-3
563.796043E-3
563.928223E-3
563.856125E-3
563.745689E-3
563.706779E-3
563.535118E-3
563.205528E-3
562.873650E-3
562.402153E-3
562.012482E-3
561.411667E-3
561.017990E-3
560.673523E-3
560.271835E-3
559.913635E-3
559.788895E-3
559.546852E-3
559.343719E-3
559.069061E-3
559.042740E-3
558.926582E-3
558.626175E-3
558.411598E-3
558.294868E-3
558.223343E-3
557.942390E-3
557.736969E-3
557.672882E-3
557.475471E-3
557.429695E-3
557.347870E-3
557.342720E-3
557.243156E-3
557.113266E-3
557.085800E-3
556.859207E-3
556.614304E-3
556.460953E-3
556.223488E-3
556.045532E-3
555.814934E-3
555.661583E-3
555.604935E-3
555.444717E-3
555.321693E-3
555.279922E-3
555.277634E-3
555.183220E-3
555.152321E-3
555.121994E-3
555.027580E-3
554.831314E-3
554.706001E-3
554.636765E-3
554.447365E-3
554.138374E-3
553.928375E-3
553.730392E-3
553.574181E-3
553.481483E-3
553.345299E-3
553.284073E-3
553.339005E-3
553.452301E-3
553.900909E-3
554.875374E-3
556.810570E-3
559.996605E-3
563.764572E-3
568.158531E-3
572.400856E-3
576.212883E-3
578.938293E-3
580.303574E-3
580.768204E-3
580.096436E-3
578.804398E-3
576.993370E-3
575.043297E-3
573.221397E-3
571.535683E-3
570.265961E-3
569.396210E-3
568.892097E-3
568.840599E-3
569.082642E-3
569.475174E-3
570.029640E-3
570.478249E-3
570.881081E-3
571.052170E-3
570.736313E-3
569.876289E-3
568.603134E-3
567.356873E-3
566.022491E-3
565.089226E-3
564.503860E-3
564.261246E-3
564.416885E-3
564.662933E-3
564.976501E-3
565.228844E-3
565.255165E-3
565.365028E-3
565.256882E-3
564.946175E-3
564.702988E-3
564.169121E-3
563.827515E-3
563.200378E-3
562.626457E-3
562.074280E-3
561.535835E-3
561.081505E-3
560.519600E-3
560.035515E-3
559.676170E-3
559.330559E-3
559.076500E-3
558.691406E-3
558.365822E-3
558.191299E-3
557.905769E-3
557.770157E-3
557.523537E-3
557.381630E-3
557.168770E-3
556.909561E-3
556.860352E-3
556.705284E-3
556.506157E-3
556.343079E-3
556.174278E-3
556.044388E-3
555.899620E-3
555.677605E-3
555.568886E-3
555.426407E-3
555.333710E-3
555.044746E-3
554.742622E-3
554.561806E-3
554.206467E-3
553.967857E-3
553.765869E-3
553.611374E-3
553.484917E-3
553.366470E-3
553.157043E-3
553.158760E-3
553.061485E-3
552.936745E-3
552.739334E-3
552.572250E-3
552.382278E-3
552.123070E-3
551.962852E-3
551.665878E-3
551.481628E-3
551.273918E-3
551.015282E-3
550.752640E-3
550.556946E-3
550.581551E-3
550.559235E-3
550.564384E-3
550.636482E-3
550.940323E-3
552.083015E-3
554.207611E-3
557.404518E-3
561.295509E-3
565.432549E-3
569.414520E-3
572.502136E-3
574.627876E-3
575.584602E-3
575.412941E-3
574.489403E-3
572.904396E-3
571.103096E-3
569.190788E-3
567.393494E-3
565.854836E-3
564.683533E-3
563.840675E-3
563.331413E-3
563.179207E-3
563.408089E-3
563.771439E-3
564.208603E-3
564.630318E-3
564.840317E-3
564.801407E-3
564.018631E-3
562.814713E-3
561.716080E-3
560.721016E-3
560.170555E-3
559.893608E-3
559.907913E-3
560.363388E-3
560.841179E-3
561.233139E-3
561.568451E-3
561.964417E-3
562.040520E-3
561.685181E-3
561.232567E-3
560.892105E-3
560.343361E-3
559.906197E-3
559.323120E-3
558.908272E-3
558.420753E-3
557.962418E-3
557.586479E-3
557.296371E-3
556.979942E-3
556.565094E-3
556.215477E-3
555.961990E-3
555.860138E-3
555.625534E-3
555.457878E-3
555.331421E-3
555.270767E-3
555.087662E-3
555.071640E-3
555.005836E-3
554.875946E-3
554.807281E-3
554.554939E-3
554.537773E-3
554.504585E-3
554.423332E-3
554.335213E-3
554.211044E-3
554.208183E-3
554.092026E-3
554.013634E-3
554.066849E-3
553.948402E-3
553.917503E-3
553.745270E-3
553.649139E-3
553.550720E-3
553.466034E-3
553.433990E-3
553.289795E-3
553.187370E-3
553.193092E-3
553.020287E-3
552.830315E-3
552.558517E-3
552.262115E-3
551.936531E-3
551.538277E-3
551.339722E-3
551.076508E-3
551.093102E-3
551.145744E-3
551.201248E-3
551.366043E-3
551.894760E-3
552.775383E-3
554.543495E-3
557.414818E-3
560.966492E-3
564.991379E-3
569.041443E-3
572.757339E-3
575.489044E-3
577.056313E-3
577.538681E-3
577.112389E-3
575.813484E-3
574.366951E-3
572.560501E-3
570.669937E-3
569.031143E-3
567.650986E-3
566.766930E-3
566.286278E-3
566.044235E-3
566.116333E-3
566.471100E-3
567.002678E-3
567.453575E-3
567.895317E-3
568.061256E-3
567.746544E-3
566.899681E-3
565.646553E-3
564.389992E-3
563.192940E-3
562.571526E-3
562.023926E-3
561.853409E-3
562.086868E-3
562.318039E-3
562.753487E-3
563.150597E-3
563.399506E-3
563.564301E-3
563.568878E-3
563.396072E-3
563.210678E-3
562.917137E-3
562.610435E-3
562.128639E-3
561.729240E-3
561.338425E-3
561.063766E-3
560.684395E-3
560.270691E-3
559.990883E-3
559.721375E-3
559.469604E-3
559.161758E-3
558.938599E-3
558.744049E-3
558.473396E-3
558.477974E-3
558.356094E-3
558.129501E-3
558.041382E-3
557.827377E-3
557.778168E-3
557.574463E-3
557.406807E-3
557.373619E-3
557.250595E-3
557.088661E-3
557.006264E-3
556.809998E-3
556.702995E-3
556.598854E-3
556.507301E-3
556.218338E-3
555.953979E-3
555.741119E-3
555.447578E-3
555.231857E-3
554.998970E-3
554.699707E-3
554.555511E-3
554.326057E-3
554.212761E-3
554.204178E-3
554.138374E-3
554.217911E-3
554.035378E-3
553.959274E-3
553.751564E-3
553.482056E-3
553.351593E-3
552.986526E-3
552.828598E-3
552.577972E-3
552.347946E-3
552.087593E-3
551.866722E-3
551.727676E-3
551.647568E-3
551.701927E-3
551.833534E-3
551.996040E-3
552.743340E-3
554.525185E-3
557.330704E-3
561.044312E-3
565.265465E-3
569.611359E-3
573.468590E-3
576.370239E-3
578.174973E-3
578.623009E-3
578.224182E-3
577.007103E-3
575.217247E-3
573.311234E-3
571.408081E-3
569.694901E-3
568.421745E-3
567.458725E-3
566.936302E-3
566.842461E-3
566.926003E-3
567.272186E-3
567.807770E-3
568.318176E-3
568.646622E-3
568.747902E-3
568.612862E-3
567.840385E-3
566.776085E-3
565.453148E-3
564.311600E-3
563.380051E-3
562.823868E-3
562.517166E-3
562.515450E-3
562.779808E-3
562.960052E-3
563.167763E-3
563.427544E-3
563.559151E-3
563.421249E-3
563.385773E-3
562.981224E-3
562.564659E-3
562.191582E-3
561.629105E-3
561.206245E-3
560.711288E-3
560.112762E-3
559.526253E-3
558.908844E-3
558.503151E-3
558.026505E-3
557.750130E-3
557.379341E-3
557.090950E-3
556.794548E-3
556.578255E-3
556.349373E-3
556.213188E-3
556.017494E-3
555.829239E-3
555.590057E-3
555.240440E-3
555.056190E-3
554.865646E-3
554.743767E-3
554.595566E-3
554.372406E-3
554.283714E-3
554.225349E-3
554.130936E-3
553.972435E-3
553.773880E-3
553.535271E-3
553.313828E-3
553.089523E-3
552.782249E-3
552.492142E-3
552.176285E-3
551.927376E-3
551.867294E-3
551.630402E-3
551.601219E-3
551.574898E-3
551.454163E-3
551.462746E-3
551.182365E-3
550.988960E-3
550.776100E-3
550.567245E-3
550.380135E-3
550.164986E-3
549.971581E-3
549.695206E-3
549.514389E-3
549.291229E-3
549.041176E-3
548.999977E-3
549.077225E-3
549.005127E-3
548.918724E-3
548.883820E-3
549.538994E-3
550.858498E-3
553.238869E-3
556.501579E-3
560.444069E-3
564.516449E-3
568.249512E-3
571.224403E-3
573.058891E-3
573.580742E-3
573.208237E-3
572.036362E-3
570.251656E-3
568.460083E-3
566.567802E-3
564.927292E-3
563.492775E-3
562.394142E-3
561.642265E-3
561.241722E-3
561.176491E-3
561.306381E-3
561.660004E-3
561.946678E-3
562.214470E-3
562.462234E-3
562.086868E-3
561.189079E-3
560.102463E-3
559.243584E-3
558.589554E-3
558.318901E-3
558.100319E-3
558.379555E-3
558.826447E-3
559.331131E-3
559.639549E-3
559.786606E-3
560.006332E-3
559.951401E-3
559.819794E-3
559.527397E-3
559.061050E-3
558.737755E-3
558.160973E-3
557.718086E-3
557.281494E-3
556.727028E-3
556.444931E-3
556.013489E-3
555.702209E-3
555.455589E-3
555.184364E-3
554.834747E-3
554.666519E-3
554.558372E-3
554.302025E-3
554.187012E-3
554.040527E-3
553.882599E-3
553.730392E-3
553.620529E-3
553.425407E-3
553.331566E-3
553.151321E-3
553.157616E-3
553.048325E-3
552.903557E-3
552.856064E-3
552.728462E-3
552.585983E-3
552.484703E-3
552.354813E-3
552.339363E-3
552.200317E-3
552.128220E-3
552.050400E-3
551.842117E-3
551.818657E-3
551.790619E-3
551.585197E-3
551.508522E-3
551.351166E-3
551.199532E-3
551.034164E-3
550.975800E-3
550.785255E-3
550.592422E-3
550.316620E-3
550.022507E-3
549.831963E-3
549.524117E-3
549.263763E-3
549.147606E-3
549.046326E-3
549.086380E-3
549.080086E-3
549.167633E-3
549.719810E-3
551.047897E-3
553.283501E-3
556.517601E-3
560.373688E-3
564.523315E-3
568.484116E-3
571.665573E-3
573.898315E-3
574.928284E-3
574.870491E-3
574.018478E-3
572.585678E-3
570.805550E-3
568.906403E-3
567.108536E-3
565.576172E-3
564.464951E-3
563.734245E-3
563.186646E-3
562.980652E-3
563.093376E-3
563.483047E-3
563.835526E-3
564.106178E-3
