Notes :


2023-11-10 ¿ÀÈÄ 11:06:39
Volts
Ch : LED 2,
59.429741E-3
59.214020E-3
59.282684E-3
59.202003E-3
59.201431E-3
59.235191E-3
59.096718E-3
59.116745E-3
59.033775E-3
59.004021E-3
59.090996E-3
58.812332E-3
58.799744E-3
58.747673E-3
58.640671E-3
58.644104E-3
58.534813E-3
58.704185E-3
58.584023E-3
58.664131E-3
59.036064E-3
59.507561E-3
60.339546E-3
61.120605E-3
61.838722E-3
62.627792E-3
63.111305E-3
63.510132E-3
63.681221E-3
63.642883E-3
63.635445E-3
63.321877E-3
63.153076E-3
62.779427E-3
62.547112E-3
62.479591E-3
62.172890E-3
62.011528E-3
62.028122E-3
62.022972E-3
62.125397E-3
62.005806E-3
62.097359E-3
62.087631E-3
62.052155E-3
61.924553E-3
61.664200E-3
61.434746E-3
61.260796E-3
61.179543E-3
61.226463E-3
61.124039E-3
61.321449E-3
61.339760E-3
61.486244E-3
61.582947E-3
61.608696E-3
61.696243E-3
61.577225E-3
61.533165E-3
61.485100E-3
61.254501E-3
61.339188E-3
61.095428E-3
60.949516E-3
60.809326E-3
60.558128E-3
60.563850E-3
60.480881E-3
60.324669E-3
60.346985E-3
60.225105E-3
60.246277E-3
60.163307E-3
60.099220E-3
60.064888E-3
59.937286E-3
60.032845E-3
59.939003E-3
59.818840E-3
59.777069E-3
59.762764E-3
59.818840E-3
59.801102E-3
59.729576E-3
59.769058E-3
59.675789E-3
59.723282E-3
59.687233E-3
59.785652E-3
59.689522E-3
59.546471E-3
59.560204E-3
59.498978E-3
59.416008E-3
59.448624E-3
59.446335E-3
59.373093E-3
59.348488E-3
59.265518E-3
59.248352E-3
59.175110E-3
59.139633E-3
59.104729E-3
58.979988E-3
59.124756E-3
58.862114E-3
58.853531E-3
58.772850E-3
58.678436E-3
58.691597E-3
58.605194E-3
58.739090E-3
58.860970E-3
59.200287E-3
59.960747E-3
60.508347E-3
61.336899E-3
62.130547E-3
62.705040E-3
63.230896E-3
63.491249E-3
63.667488E-3
63.610840E-3
63.324738E-3
63.076401E-3
62.781715E-3
62.582016E-3
62.305641E-3
62.071609E-3
61.913681E-3
61.797523E-3
61.842728E-3
61.784935E-3
61.743164E-3
61.879921E-3
61.810684E-3
61.814690E-3
61.705399E-3
61.487389E-3
61.291122E-3
60.982132E-3
61.002159E-3
60.980988E-3
60.929489E-3
61.051369E-3
61.096001E-3
61.296844E-3
61.303711E-3
61.359787E-3
61.444473E-3
61.333466E-3
61.377525E-3
61.272812E-3
61.114311E-3
61.170959E-3
60.899734E-3
60.885429E-3
60.661697E-3
60.683441E-3
60.551262E-3
60.256577E-3
60.237694E-3
60.119247E-3
60.024261E-3
60.087204E-3
59.957314E-3
59.947014E-3
59.829140E-3
59.762192E-3
59.771347E-3
59.673500E-3
59.700394E-3
59.581375E-3
59.578514E-3
59.610558E-3
59.535027E-3
59.575653E-3
59.498405E-3
59.436035E-3
59.525299E-3
59.462357E-3
59.390259E-3
59.361076E-3
59.363365E-3
59.357071E-3
59.206581E-3
59.265518E-3
59.197998E-3
59.129906E-3
59.103012E-3
58.983421E-3
59.046364E-3
58.956528E-3
58.882141E-3
58.845520E-3
58.771133E-3
58.764839E-3
58.728218E-3
58.689308E-3
58.729362E-3
58.585167E-3
58.642387E-3
58.532524E-3
58.388901E-3
58.375740E-3
58.273888E-3
58.242416E-3
58.252716E-3
58.275032E-3
58.668709E-3
59.081841E-3
59.882355E-3
60.583878E-3
61.406136E-3
62.222672E-3
62.731934E-3
63.300133E-3
63.475227E-3
63.505554E-3
63.483238E-3
63.204002E-3
63.014603E-3
62.787437E-3
62.427521E-3
62.304497E-3
61.990929E-3
62.018967E-3
61.940575E-3
61.798096E-3
62.065315E-3
62.070465E-3
62.164307E-3
62.264442E-3
62.092209E-3
62.202072E-3
61.881065E-3
61.725426E-3
61.458206E-3
61.309433E-3
61.296272E-3
61.164093E-3
61.231613E-3
61.247635E-3
61.213875E-3
61.459351E-3
61.453056E-3
61.506271E-3
61.533165E-3
61.442757E-3
61.426735E-3
61.244774E-3
61.196136E-3
61.131477E-3
60.870552E-3
60.828781E-3
60.623360E-3
60.569572E-3
60.479736E-3
60.347557E-3
60.302353E-3
60.156441E-3
60.110664E-3
60.162163E-3
60.015106E-3
60.020828E-3
59.928131E-3
59.865189E-3
59.819984E-3
59.714127E-3
59.851456E-3
59.754753E-3
59.866905E-3
59.716415E-3
59.577942E-3
59.695244E-3
59.597969E-3
59.596825E-3
59.486961E-3
59.451485E-3
59.512138E-3
59.483528E-3
59.422302E-3
59.351349E-3
59.313583E-3
59.347916E-3
59.191704E-3
59.155655E-3
59.184265E-3
59.084702E-3
59.157944E-3
59.014320E-3
59.051514E-3
58.989716E-3
58.906174E-3
58.989716E-3
58.898735E-3
58.854675E-3
58.887863E-3
58.763123E-3
58.795738E-3
58.584023E-3
58.540535E-3
58.591461E-3
58.479881E-3
58.521080E-3
58.364296E-3
58.450699E-3
58.419228E-3
58.570290E-3
59.151077E-3
59.729576E-3
60.487747E-3
61.309433E-3
61.959457E-3
62.732506E-3
63.212585E-3
63.566208E-3
63.644600E-3
63.458061E-3
63.442039E-3
63.065529E-3
62.795448E-3
62.585449E-3
62.339401E-3
62.236977E-3
61.945152E-3
61.938286E-3
61.938286E-3
61.954308E-3
62.154007E-3
62.111092E-3
62.144279E-3
62.030411E-3
61.902237E-3
61.823845E-3
61.587524E-3
61.456490E-3
61.362076E-3
61.141777E-3
61.197281E-3
61.166382E-3
61.285973E-3
61.319733E-3
61.406136E-3
61.515427E-3
61.513138E-3
61.524010E-3
61.445045E-3
61.303711E-3
61.298561E-3
61.054230E-3
61.009026E-3
60.890007E-3
60.707474E-3
60.703468E-3
60.573578E-3
60.487747E-3
60.361862E-3
60.215378E-3
60.315514E-3
60.132408E-3
60.127258E-3
60.025978E-3
59.947586E-3
60.098076E-3
59.971619E-3
59.942436E-3
59.881210E-3
59.786224E-3
59.849739E-3
59.832001E-3
59.768486E-3
59.711838E-3
59.617424E-3
59.680367E-3
59.588814E-3
59.618568E-3
59.600258E-3
59.523010E-3
59.569359E-3
59.456635E-3
59.494972E-3
59.440613E-3
59.351349E-3
59.379959E-3
59.233475E-3
59.394836E-3
59.335327E-3
59.160805E-3
59.199715E-3
59.104156E-3
59.098434E-3
59.000587E-3
58.893585E-3
58.977699E-3
58.957100E-3
58.832932E-3
58.840942E-3
58.641243E-3
58.606339E-3
58.484459E-3
58.491325E-3
58.597755E-3
58.491898E-3
58.762550E-3
59.038353E-3
59.595680E-3
60.330391E-3
61.092567E-3
61.824417E-3
62.348557E-3
62.889290E-3
63.234329E-3
63.300133E-3
63.351059E-3
63.027191E-3
62.886429E-3
62.604904E-3
62.286758E-3
62.092209E-3
61.707115E-3
61.717415E-3
61.693954E-3
61.648178E-3
61.703682E-3
61.609268E-3
61.641884E-3
61.738014E-3
61.621284E-3
61.585236E-3
61.338043E-3
61.165237E-3
61.006737E-3
60.815048E-3
60.868263E-3
60.783005E-3
60.904884E-3
61.060524E-3
60.953522E-3
61.166954E-3
61.171532E-3
61.267090E-3
61.316872E-3
61.192703E-3
61.163521E-3
61.008453E-3
61.018753E-3
60.813904E-3
60.605621E-3
60.622787E-3
60.369301E-3
60.305214E-3
60.177040E-3
60.021400E-3
60.058594E-3
59.885788E-3
59.868622E-3
59.796524E-3
59.735870E-3
59.840012E-3
59.726143E-3
59.683800E-3
59.702682E-3
59.547043E-3
59.640312E-3
59.643745E-3
59.531593E-3
59.465790E-3
59.326172E-3
59.350777E-3
59.349060E-3
59.432030E-3
59.393120E-3
59.274101E-3
59.433174E-3
59.216881E-3
59.156799E-3
59.124756E-3
59.025192E-3
59.073830E-3
59.000015E-3
59.064102E-3
59.045219E-3
58.949089E-3
58.918190E-3
58.814621E-3
58.790588E-3
58.764839E-3
58.683586E-3
58.676720E-3
58.475304E-3
58.491325E-3
58.521080E-3
58.395195E-3
58.451271E-3
58.297920E-3
58.226395E-3
58.202362E-3
58.160019E-3
58.199501E-3
58.301926E-3
58.713913E-3
59.254646E-3
59.890938E-3
60.733223E-3
61.528015E-3
62.211800E-3
62.864113E-3
63.105583E-3
63.480949E-3
63.459206E-3
63.398552E-3
63.282967E-3
62.865257E-3
62.608910E-3
62.410927E-3
62.218094E-3
62.267876E-3
61.958313E-3
62.009811E-3
61.921120E-3
62.030983E-3
62.163734E-3
62.057304E-3
62.108231E-3
62.102509E-3
62.040710E-3
61.873055E-3
61.635590E-3
61.455917E-3
61.225891E-3
61.148643E-3
61.197281E-3
61.124039E-3
61.238480E-3
61.340904E-3
61.298561E-3
61.384964E-3
61.346626E-3
61.409569E-3
61.307716E-3
61.267090E-3
61.272240E-3
61.044502E-3
60.849953E-3
60.731506E-3
60.666847E-3
60.625648E-3
60.468292E-3
60.429955E-3
60.288620E-3
60.147285E-3
60.133553E-3
59.955597E-3
60.003662E-3
59.911537E-3
59.845161E-3
59.934425E-3
59.804535E-3
59.886360E-3
59.795380E-3
59.686661E-3
59.681511E-3
59.596252E-3
59.688950E-3
59.589386E-3
59.511566E-3
59.557343E-3
59.427452E-3
59.567070E-3
59.485245E-3
59.481239E-3
59.465790E-3
59.283257E-3
59.252930E-3
59.223747E-3
59.202003E-3
59.229469E-3
59.195709E-3
59.137344E-3
59.009743E-3
58.995438E-3
59.030914E-3
58.905029E-3
58.993721E-3
58.905602E-3
58.875847E-3
58.878708E-3
58.757401E-3
58.735657E-3
58.716202E-3
58.642960E-3
58.591461E-3
58.506203E-3
58.467293E-3
58.365440E-3
58.299637E-3
58.379745E-3
58.264732E-3
58.459854E-3
58.688736E-3
59.194565E-3
59.953308E-3
60.623360E-3
61.462212E-3
62.287903E-3
62.764549E-3
63.230324E-3
63.342476E-3
63.438034E-3
63.384247E-3
63.131332E-3
63.038063E-3
62.658119E-3
62.353134E-3
62.216949E-3
62.039566E-3
62.075615E-3
61.914253E-3
61.967468E-3
62.006950E-3
62.017250E-3
62.212944E-3
62.143135E-3
62.111092E-3
62.039566E-3
61.814117E-3
61.704826E-3
61.426735E-3
61.348343E-3
61.336327E-3
61.269951E-3
61.297989E-3
61.239052E-3
61.437035E-3
61.434746E-3
61.437607E-3
61.494827E-3
61.346626E-3
61.233330E-3
61.318016E-3
61.178398E-3
61.123466E-3
60.918045E-3
60.857391E-3
60.740089E-3
60.650253E-3
60.585594E-3
60.430527E-3
60.324669E-3
60.360146E-3
60.187340E-3
60.258865E-3
60.074043E-3
60.135841E-3
60.073471E-3
59.939575E-3
59.763336E-3
59.814835E-3
59.874344E-3
59.856033E-3
59.773064E-3
59.846878E-3
59.752464E-3
59.726715E-3
59.655762E-3
59.588814E-3
59.639168E-3
59.470940E-3
59.519577E-3
59.498978E-3
59.390831E-3
59.488678E-3
59.443474E-3
59.417725E-3
59.398270E-3
59.307861E-3
59.337044E-3
59.153366E-3
59.233475E-3
59.175110E-3
59.121323E-3
59.083557E-3
58.931923E-3
58.819771E-3
58.862686E-3
58.763123E-3
58.856392E-3
58.720207E-3
58.696175E-3
58.566856E-3
58.620644E-3
58.553123E-3
58.565140E-3
58.566856E-3
58.439255E-3
58.420944E-3
58.601761E-3
58.770561E-3
59.333038E-3
59.993935E-3
60.666275E-3
61.438179E-3
61.933136E-3
62.619781E-3
62.968826E-3
63.067245E-3
63.087845E-3
62.834358E-3
62.845802E-3
62.509918E-3
62.236404E-3
62.037849E-3
61.745453E-3
61.616135E-3
61.447334E-3
61.465073E-3
61.434174E-3
61.339188E-3
61.421585E-3
61.410713E-3
61.353493E-3
61.326027E-3
61.030197E-3
60.907745E-3
60.772705E-3
60.630226E-3
60.686874E-3
60.627937E-3
60.797310E-3
60.861397E-3
60.945511E-3
61.168098E-3
61.169815E-3
61.252785E-3
61.217880E-3
61.186981E-3
61.098862E-3
60.949516E-3
60.910034E-3
60.745239E-3
60.551262E-3
60.541534E-3
60.314941E-3
60.219383E-3
60.211945E-3
59.996223E-3
60.005379E-3
59.817696E-3
59.843445E-3
59.806824E-3
59.741020E-3
59.688377E-3
59.600258E-3
59.452629E-3
59.537315E-3
59.454918E-3
59.517288E-3
59.563637E-3
59.540176E-3
59.435463E-3
59.345627E-3
59.416008E-3
59.371376E-3
59.388542E-3
59.260941E-3
59.161949E-3
59.250641E-3
59.147072E-3
59.106445E-3
59.124756E-3
59.048653E-3
59.104729E-3
58.992577E-3
58.976555E-3
58.955383E-3
58.856392E-3
58.914185E-3
58.779716E-3
58.859825E-3
58.773422E-3
58.684731E-3
58.661270E-3
58.487320E-3
58.502197E-3
58.447266E-3
58.283615E-3
58.287621E-3
58.037567E-3
58.089638E-3
58.138847E-3
58.252144E-3
58.658409E-3
59.030342E-3
59.768486E-3
60.557556E-3
61.241341E-3
62.187195E-3
62.571144E-3
62.957954E-3
63.191986E-3
63.076973E-3
63.189697E-3
62.941360E-3
62.705612E-3
62.424660E-3
62.140846E-3
62.014389E-3
61.826134E-3
61.777496E-3
61.692238E-3
61.640167E-3
61.723137E-3
61.659050E-3
61.696815E-3
61.806107E-3
61.637878E-3
61.665916E-3
61.373520E-3
61.192703E-3
61.021614E-3
60.816765E-3
60.881424E-3
60.821342E-3
60.823059E-3
60.939789E-3
60.965538E-3
61.212158E-3
61.154938E-3
61.195564E-3
61.190414E-3
61.077118E-3
61.077118E-3
61.054802E-3
60.952377E-3
60.801888E-3
60.574150E-3
60.555267E-3
60.330391E-3
60.208511E-3
60.207939E-3
60.079193E-3
59.992790E-3
59.908676E-3
59.885216E-3
59.860039E-3
59.741592E-3
59.753036E-3
59.647751E-3
59.658051E-3
59.579659E-3
59.513855E-3
59.573364E-3
59.437180E-3
59.456062E-3
59.439468E-3
59.385681E-3
59.466362E-3
59.460068E-3
59.347343E-3
59.399986E-3
59.291840E-3
59.351349E-3
59.244919E-3
59.169960E-3
59.125900E-3
59.045219E-3
59.129906E-3
58.977127E-3
58.942795E-3
58.905029E-3
58.876991E-3
58.951950E-3
58.840942E-3
58.823204E-3
58.792305E-3
58.709335E-3
58.712769E-3
58.593178E-3
58.579445E-3
58.563423E-3
58.413506E-3
58.460999E-3
58.316231E-3
58.237839E-3
58.257866E-3
58.117104E-3
58.138275E-3
58.073616E-3
58.199501E-3
58.416939E-3
58.788300E-3
59.516716E-3
60.141563E-3
60.861969E-3
61.696815E-3
62.334251E-3
62.947655E-3
63.183975E-3
63.285828E-3
63.406563E-3
63.164520E-3
63.012886E-3
62.559700E-3
62.436104E-3
62.235260E-3
62.056732E-3
61.973763E-3
61.919975E-3
61.883354E-3
61.893654E-3
61.893654E-3
62.133408E-3
61.998940E-3
62.037277E-3
61.964035E-3
61.709404E-3
61.588669E-3
61.304283E-3
61.123466E-3
61.096573E-3
61.057091E-3
61.163521E-3
61.114311E-3
61.161232E-3
61.310577E-3
61.276245E-3
61.387825E-3
61.287117E-3
61.303139E-3
61.336899E-3
61.106300E-3
61.055946E-3
60.895157E-3
60.803032E-3
60.711479E-3
60.478592E-3
60.581017E-3
60.360718E-3
60.242844E-3
60.205650E-3
60.072899E-3
60.080338E-3
59.988213E-3
59.951019E-3
59.959602E-3
59.868050E-3
59.885216E-3
59.737015E-3
59.719276E-3
59.794807E-3
59.727287E-3
59.679794E-3
59.621429E-3
59.595680E-3
59.638023E-3
59.461212E-3
59.481812E-3
59.461784E-3
59.421158E-3
59.490395E-3
59.386253E-3
59.385681E-3
59.327888E-3
59.372520E-3
59.386826E-3
59.193993E-3
59.222031E-3
59.123039E-3
59.168816E-3
59.097862E-3
58.973694E-3
59.026909E-3
59.000587E-3
58.876991E-3
58.905602E-3
58.704185E-3
58.792305E-3
58.614922E-3
58.584595E-3
58.575439E-3
58.416367E-3
58.349991E-3
58.283043E-3
58.382607E-3
58.463287E-3
58.355141E-3
58.525085E-3
58.705902E-3
59.199142E-3
59.952164E-3
60.537529E-3
61.385536E-3
62.056732E-3
62.569427E-3
63.009453E-3
62.980270E-3
62.995148E-3
62.921906E-3
62.768555E-3
62.488747E-3
62.162590E-3
61.940002E-3
61.664200E-3
61.516571E-3
61.505699E-3
61.382675E-3
61.473083E-3
61.432457E-3
61.402130E-3
61.431885E-3
61.263084E-3
61.253357E-3
61.044502E-3
60.788727E-3
60.751534E-3
60.425949E-3
60.530090E-3
60.602760E-3
60.710907E-3
60.826492E-3
60.864830E-3
61.064529E-3
