Notes :


2023-11-04 ¿ÀÈÄ 7:18:07
Volts
Ch : LED 2,
574.465370E-3
574.151230E-3
573.875427E-3
573.692894E-3
573.741531E-3
574.060822E-3
574.259377E-3
575.432396E-3
577.585030E-3
581.084061E-3
585.423088E-3
590.036774E-3
595.316505E-3
599.888420E-3
603.385162E-3
605.601883E-3
606.575775E-3
606.325150E-3
605.025673E-3
603.219795E-3
601.243401E-3
599.194908E-3
597.274017E-3
595.536232E-3
594.271660E-3
593.376732E-3
592.775917E-3
592.555046E-3
592.596817E-3
593.092918E-3
593.273163E-3
593.337250E-3
593.092346E-3
592.523003E-3
591.715622E-3
590.588379E-3
589.604759E-3
588.910103E-3
588.658333E-3
588.444901E-3
588.592529E-3
588.983345E-3
589.509773E-3
589.868546E-3
590.347481E-3
590.556908E-3
590.461922E-3
590.375519E-3
589.886284E-3
589.461136E-3
588.931847E-3
588.232613E-3
587.623215E-3
586.980057E-3
586.199570E-3
585.505486E-3
584.803963E-3
584.366226E-3
583.885574E-3
583.604622E-3
583.340836E-3
583.020401E-3
582.745171E-3
582.362938E-3
582.162666E-3
582.041931E-3
581.649399E-3
581.245422E-3
580.989647E-3
580.891800E-3
580.578232E-3
580.327606E-3
580.207443E-3
580.006027E-3
579.830933E-3
579.687881E-3
579.658127E-3
579.690170E-3
579.453850E-3
579.392052E-3
579.281044E-3
578.964043E-3
578.640175E-3
578.274536E-3
578.070259E-3
577.642822E-3
576.965904E-3
576.467514E-3
576.199150E-3
575.572014E-3
574.869347E-3
574.550629E-3
574.633598E-3
574.570656E-3
574.460793E-3
574.943733E-3
576.346207E-3
578.776932E-3
582.167244E-3
586.690521E-3
591.613197E-3
596.189117E-3
600.081825E-3
603.013229E-3
604.721260E-3
604.864883E-3
603.841209E-3
602.282524E-3
600.024033E-3
597.793579E-3
595.343399E-3
593.165588E-3
591.370583E-3
589.779854E-3
588.752747E-3
588.205719E-3
587.917900E-3
588.017464E-3
587.967682E-3
588.101578E-3
588.010597E-3
587.333107E-3
586.401558E-3
585.368729E-3
584.341049E-3
583.598900E-3
583.396912E-3
583.262444E-3
583.424950E-3
583.828354E-3
584.322739E-3
584.702110E-3
584.908676E-3
585.058594E-3
585.007095E-3
584.599686E-3
584.099579E-3
583.508492E-3
582.824135E-3
582.009888E-3
581.197357E-3
580.478668E-3
579.815483E-3
579.055595E-3
578.368950E-3
577.896309E-3
577.404785E-3
576.854324E-3
576.370811E-3
576.133347E-3
575.781441E-3
575.282478E-3
574.947166E-3
574.770355E-3
574.409294E-3
574.080276E-3
573.873711E-3
573.790169E-3
573.494339E-3
573.233414E-3
573.147011E-3
573.105240E-3
572.927856E-3
572.847176E-3
572.988510E-3
573.165894E-3
573.034859E-3
573.056030E-3
573.189926E-3
573.433685E-3
573.070908E-3
572.753334E-3
572.865486E-3
572.732162E-3
572.260094E-3
572.003174E-3
571.847534E-3
571.610069E-3
571.016693E-3
570.597839E-3
570.495987E-3
570.391846E-3
570.181847E-3
570.181274E-3
570.283127E-3
570.592690E-3
571.383476E-3
573.562431E-3
576.952744E-3
581.114960E-3
585.582161E-3
590.425301E-3
594.818687E-3
598.008728E-3
599.974823E-3
600.586510E-3
599.921608E-3
598.825264E-3
596.804237E-3
594.651604E-3
592.597389E-3
590.494537E-3
588.733864E-3
587.411499E-3
586.560059E-3
586.077690E-3
585.578156E-3
585.673714E-3
585.851669E-3
585.945511E-3
585.626793E-3
584.966469E-3
584.306145E-3
583.425522E-3
582.824135E-3
582.529449E-3
582.482529E-3
582.871628E-3
583.560562E-3
584.306145E-3
584.963036E-3
585.196495E-3
585.831642E-3
585.980415E-3
585.804749E-3
585.583305E-3
585.083771E-3
584.469795E-3
583.807182E-3
583.135986E-3
582.548904E-3
581.707191E-3
581.082344E-3
580.403137E-3
579.938507E-3
579.582024E-3
579.295921E-3
579.065323E-3
578.679085E-3
578.560638E-3
578.354645E-3
578.029060E-3
577.896309E-3
577.761269E-3
577.654839E-3
577.474594E-3
577.227402E-3
576.980782E-3
576.806259E-3
576.666069E-3
576.448631E-3
576.305580E-3
576.310158E-3
576.117897E-3
576.068115E-3
576.037788E-3
575.974846E-3
575.973129E-3
575.831223E-3
575.711632E-3
575.552559E-3
575.422096E-3
575.275040E-3
575.019836E-3
574.768066E-3
574.562073E-3
573.884010E-3
573.604774E-3
573.213387E-3
572.818565E-3
572.491264E-3
572.208023E-3
572.097588E-3
572.118187E-3
572.501564E-3
573.860550E-3
576.005173E-3
579.392052E-3
583.728790E-3
588.726425E-3
593.853951E-3
598.258781E-3
601.911736E-3
604.229736E-3
605.121803E-3
604.801369E-3
603.472710E-3
601.543808E-3
599.248695E-3
597.031975E-3
594.926262E-3
592.839432E-3
591.483879E-3
590.530586E-3
589.971542E-3
589.716339E-3
589.694595E-3
589.940643E-3
590.268517E-3
590.599251E-3
590.453911E-3
590.027046E-3
589.225960E-3
588.243484E-3
587.288475E-3
586.511421E-3
586.003876E-3
585.847092E-3
585.966682E-3
586.457062E-3
586.909676E-3
587.346840E-3
587.789726E-3
588.130760E-3
588.175392E-3
588.104439E-3
587.762833E-3
587.440109E-3
586.744881E-3
586.395264E-3
585.729218E-3
585.144424E-3
584.652901E-3
584.177971E-3
583.744240E-3
583.126259E-3
582.599831E-3
582.298851E-3
582.100868E-3
581.777573E-3
581.487465E-3
581.371880E-3
581.265450E-3
581.095505E-3
580.895233E-3
580.772781E-3
580.374527E-3
580.260086E-3
580.167389E-3
579.986572E-3
579.915619E-3
579.757118E-3
579.726791E-3
579.619789E-3
579.399490E-3
579.339409E-3
579.152298E-3
579.106522E-3
579.000664E-3
578.812408E-3
578.668213E-3
578.507996E-3
578.231049E-3
578.145218E-3
577.852821E-3
577.913475E-3
577.800179E-3
577.762985E-3
577.539825E-3
577.394485E-3
577.194786E-3
576.807976E-3
576.482391E-3
576.077843E-3
575.695038E-3
575.439835E-3
575.047874E-3
574.855614E-3
574.782372E-3
574.893951E-3
575.088501E-3
575.827789E-3
577.731514E-3
580.852890E-3
585.043144E-3
589.967537E-3
595.085335E-3
599.896431E-3
603.931618E-3
606.453323E-3
608.000565E-3
608.013153E-3
607.069588E-3
605.315781E-3
603.184319E-3
600.886345E-3
598.653030E-3
596.739006E-3
595.305634E-3
593.954659E-3
593.270302E-3
592.968178E-3
592.937851E-3
593.243980E-3
593.748093E-3
594.164085E-3
594.302559E-3
594.064522E-3
593.338966E-3
592.299843E-3
591.246414E-3
590.114021E-3
589.330101E-3
588.815117E-3
588.630867E-3
588.896370E-3
589.298058E-3
589.488029E-3
589.882851E-3
590.119171E-3
590.208435E-3
590.233040E-3
590.095711E-3
589.794731E-3
589.266014E-3
589.013100E-3
588.261223E-3
587.633514E-3
586.973763E-3
586.244202E-3
585.666275E-3
585.029984E-3
584.618568E-3
584.106445E-3
583.698463E-3
583.285904E-3
582.995224E-3
582.808685E-3
582.498550E-3
582.183266E-3
581.981850E-3
581.736374E-3
581.414795E-3
581.204224E-3
580.962753E-3
580.770493E-3
580.424309E-3
580.233765E-3
580.090714E-3
579.886436E-3
579.637527E-3
579.471016E-3
579.365730E-3
579.231834E-3
578.943443E-3
578.596115E-3
578.268814E-3
578.163528E-3
577.762413E-3
577.340698E-3
577.256012E-3
577.067184E-3
576.992226E-3
576.746750E-3
576.468086E-3
576.314735E-3
576.061821E-3
575.885010E-3
575.547409E-3
575.249863E-3
574.973488E-3
574.534607E-3
574.362373E-3
573.997879E-3
573.554993E-3
573.281479E-3
573.125267E-3
572.882080E-3
572.673798E-3
572.793961E-3
572.892952E-3
572.912407E-3
574.143219E-3
576.925278E-3
580.412865E-3
584.733582E-3
589.671135E-3
594.768906E-3
598.967743E-3
602.106285E-3
604.149055E-3
604.288673E-3
603.622627E-3
602.248764E-3
600.311852E-3
598.049927E-3
595.819473E-3
593.897438E-3
592.311859E-3
591.177177E-3
590.503120E-3
590.015030E-3
589.772415E-3
589.978981E-3
590.392685E-3
590.832710E-3
590.925980E-3
591.004372E-3
590.661621E-3
589.883423E-3
589.031982E-3
588.366508E-3
588.003731E-3
587.917900E-3
588.017464E-3
588.585091E-3
589.157867E-3
589.801598E-3
590.345192E-3
590.758324E-3
590.925407E-3
590.726852E-3
590.491104E-3
590.377808E-3
589.914322E-3
589.288330E-3
588.723564E-3
588.177109E-3
587.703896E-3
587.028694E-3
586.646461E-3
586.396980E-3
586.075401E-3
585.760689E-3
585.580444E-3
585.470581E-3
585.203934E-3
584.881210E-3
584.600258E-3
584.262657E-3
584.093285E-3
583.910751E-3
583.780289E-3
583.569145E-3
583.277321E-3
583.090782E-3
582.876205E-3
582.713699E-3
582.406425E-3
582.049942E-3
581.930923E-3
581.667137E-3
581.434250E-3
581.108665E-3
580.852318E-3
580.554771E-3
580.196571E-3
580.008888E-3
579.967690E-3
580.027199E-3
580.110741E-3
579.793167E-3
579.534531E-3
579.298210E-3
578.984070E-3
578.760910E-3
578.548050E-3
578.253365E-3
578.050232E-3
577.784729E-3
577.504921E-3
577.081490E-3
576.780510E-3
576.456642E-3
576.168251E-3
576.144218E-3
576.387405E-3
576.994514E-3
578.495407E-3
581.080627E-3
584.850311E-3
589.298058E-3
594.121170E-3
598.834991E-3
602.714539E-3
605.488586E-3
606.910515E-3
606.925392E-3
606.092262E-3
604.269791E-3
602.228737E-3
600.114441E-3
598.060799E-3
596.362495E-3
594.973755E-3
593.999290E-3
593.185043E-3
592.811966E-3
592.737007E-3
592.834854E-3
593.239975E-3
593.669701E-3
593.924332E-3
593.913460E-3
593.297195E-3
592.613983E-3
591.796303E-3
591.364288E-3
591.096497E-3
591.070175E-3
591.370583E-3
592.022896E-3
592.864037E-3
593.542671E-3
594.029045E-3
594.490814E-3
594.611549E-3
594.493675E-3
594.296837E-3
594.124031E-3
593.773842E-3
593.094635E-3
592.377090E-3
591.775131E-3
590.867615E-3
590.010452E-3
589.208221E-3
588.573074E-3
588.101006E-3
587.717628E-3
587.473869E-3
587.077904E-3
586.722565E-3
586.410141E-3
586.033058E-3
585.825920E-3
585.541534E-3
585.513496E-3
585.387039E-3
585.088348E-3
584.879494E-3
584.599686E-3
584.531593E-3
584.406853E-3
584.354210E-3
584.012604E-3
583.930206E-3
583.867264E-3
583.718491E-3
583.470726E-3
583.248138E-3
583.047867E-3
583.020401E-3
583.090210E-3
582.814407E-3
582.731438E-3
582.575798E-3
582.404137E-3
582.271957E-3
582.009315E-3
581.974983E-3
581.826210E-3
581.758118E-3
581.655121E-3
581.460571E-3
581.307220E-3
581.154442E-3
580.937576E-3
580.718422E-3
580.545044E-3
580.294991E-3
580.030632E-3
579.834938E-3
579.583740E-3
579.608345E-3
579.813766E-3
580.030632E-3
581.097794E-3
583.568001E-3
586.934853E-3
591.388893E-3
596.368217E-3
601.464272E-3
606.171799E-3
609.804726E-3
612.227440E-3
613.146973E-3
612.965012E-3
611.991692E-3
610.263634E-3
608.218002E-3
606.134033E-3
604.283524E-3
602.593803E-3
601.079750E-3
600.271225E-3
599.616623E-3
599.489021E-3
599.612045E-3
599.856377E-3
600.266075E-3
600.691795E-3
600.922394E-3
600.785637E-3
600.024033E-3
599.077606E-3
597.841072E-3
596.824265E-3
595.873833E-3
595.305061E-3
595.055580E-3
595.109367E-3
595.465279E-3
595.889854E-3
596.212578E-3
596.577644E-3
596.795654E-3
596.835136E-3
596.743011E-3
596.389389E-3
596.013451E-3
595.403481E-3
594.727707E-3
594.081116E-3
593.362999E-3
592.730713E-3
592.108154E-3
591.531944E-3
591.090775E-3
590.700531E-3
590.253067E-3
589.897728E-3
589.593887E-3
589.331245E-3
589.141846E-3
588.882065E-3
588.569069E-3
588.308144E-3
588.170242E-3
587.920189E-3
587.762260E-3
587.730217E-3
587.629509E-3
587.400627E-3
587.162018E-3
587.061310E-3
586.790085E-3
586.661339E-3
586.499405E-3
586.319160E-3
586.157227E-3
585.907173E-3
585.697746E-3
585.494041E-3
585.269737E-3
585.083199E-3
584.860039E-3
584.490967E-3
584.218025E-3
583.835220E-3
583.641815E-3
583.471870E-3
583.263016E-3
583.193207E-3
582.991219E-3
582.935143E-3
582.872772E-3
582.579231E-3
582.283974E-3
581.974411E-3
581.662560E-3
581.129837E-3
580.723000E-3
580.382538E-3
580.016899E-3
579.686165E-3
579.284477E-3
579.178619E-3
579.166031E-3
579.200935E-3
579.255867E-3
579.862976E-3
581.396484E-3
584.262657E-3
588.161087E-3
592.931557E-3
597.786713E-3
602.482796E-3
606.373215E-3
608.996773E-3
610.434723E-3
610.421562E-3
609.450531E-3
607.859802E-3
605.715179E-3
603.675842E-3
601.647377E-3
599.800301E-3
598.497391E-3
597.498894E-3
597.058868E-3
596.844864E-3
596.966743E-3
597.339249E-3
597.579575E-3
597.930908E-3
598.112869E-3
597.845078E-3
597.108078E-3
595.807457E-3
594.647598E-3
593.528366E-3
592.698097E-3
592.438889E-3
592.464066E-3
592.812538E-3
593.091202E-3
593.507767E-3
593.755531E-3
593.958664E-3
594.036484E-3
593.758392E-3
593.332672E-3
592.940712E-3
592.406273E-3
591.823196E-3
591.253281E-3
590.581512E-3
590.031624E-3
589.405060E-3
588.845444E-3
588.297272E-3
587.780571E-3
587.477303E-3
586.995506E-3
586.807823E-3
586.376953E-3
586.104584E-3
585.962105E-3
585.783005E-3
585.663986E-3
585.506058E-3
585.336113E-3
585.175896E-3
584.840012E-3
584.763336E-3
584.731293E-3
584.655190E-3
584.759903E-3
584.657478E-3
584.666634E-3
584.659195E-3
584.645462E-3
584.747887E-3
584.549904E-3
584.423447E-3
584.354210E-3
584.247780E-3
584.145355E-3
583.818054E-3
583.628654E-3
583.468437E-3
583.081627E-3
582.904816E-3
582.823563E-3
582.813835E-3
582.677650E-3
582.489395E-3
582.459068E-3
582.289696E-3
582.188416E-3
582.001305E-3
581.827354E-3
581.664848E-3
581.323242E-3
581.166458E-3
580.993080E-3
580.708694E-3
580.446625E-3
580.288696E-3
580.222893E-3
580.098152E-3
580.036354E-3
580.094719E-3
580.467224E-3
581.628799E-3
583.837509E-3
587.136269E-3
591.428375E-3
595.976257E-3
600.504112E-3
604.364777E-3
607.288170E-3
608.878326E-3
609.094620E-3
608.442307E-3
606.905365E-3
604.954147E-3
602.661324E-3
600.449753E-3
598.449898E-3
596.901512E-3
595.615768E-3
594.727707E-3
594.136620E-3
593.772125E-3
593.829346E-3
594.005013E-3
594.243622E-3
594.331169E-3
594.042206E-3
593.281174E-3
592.409706E-3
591.764832E-3
591.136551E-3
590.760612E-3
590.635300E-3
590.732574E-3
591.233826E-3
591.721344E-3
592.361069E-3
592.781067E-3
593.031120E-3
593.258286E-3
593.260002E-3
593.127823E-3
592.901802E-3
592.435455E-3
591.889000E-3
591.250420E-3
590.663910E-3
590.058517E-3
589.470863E-3
588.987923E-3
588.384247E-3
587.944221E-3
587.709618E-3
587.370300E-3
587.269020E-3
587.096214E-3
586.873627E-3
586.800385E-3
586.573219E-3
586.419868E-3
586.181831E-3
585.948372E-3
585.784721E-3
585.610199E-3
585.519791E-3
585.493469E-3
585.252571E-3
585.170746E-3
584.961891E-3
584.923553E-3
584.616852E-3
584.430885E-3
584.349060E-3
584.136772E-3
583.850098E-3
583.568573E-3
583.358574E-3
583.259010E-3
583.047295E-3
582.842445E-3
582.540321E-3
582.336044E-3
582.197571E-3
581.928635E-3
581.675148E-3
581.397629E-3
581.151581E-3
580.995369E-3
580.860329E-3
580.924988E-3
580.866051E-3
580.935287E-3
580.926704E-3
580.900383E-3
580.973625E-3
580.803680E-3
580.828285E-3
580.769348E-3
580.490112E-3
580.268097E-3
579.904747E-3
579.539680E-3
579.345703E-3
579.032707E-3
578.863907E-3
578.765488E-3
578.835869E-3
578.961182E-3
579.067612E-3
579.883003E-3
581.830788E-3
585.052299E-3
589.341545E-3
594.255066E-3
599.336243E-3
604.048920E-3
607.711029E-3
610.202408E-3
611.149406E-3
611.122513E-3
610.014153E-3
608.279800E-3
606.313705E-3
604.176521E-3
602.224159E-3
600.488663E-3
599.220657E-3
598.217583E-3
597.832489E-3
597.748375E-3
597.856522E-3
598.168945E-3
598.643875E-3
599.023247E-3
599.372292E-3
599.447250E-3
598.898506E-3
597.926331E-3
596.822548E-3
595.746803E-3
594.779205E-3
594.186401E-3
593.811035E-3
593.679428E-3
593.793869E-3
594.025040E-3
594.447899E-3
594.801521E-3
595.037842E-3
595.297623E-3
