Notes :


2023-11-11 ¿ÀÀü 8:58:02
Volts
Ch : LED 2,
657.659912E-3
656.859398E-3
656.288910E-3
655.701828E-3
655.223465E-3
654.777145E-3
654.310799E-3
653.972626E-3
653.806686E-3
653.411293E-3
653.196716E-3
653.046227E-3
652.765846E-3
652.703476E-3
652.468872E-3
652.342987E-3
652.269173E-3
652.199364E-3
652.280617E-3
652.138710E-3
652.204514E-3
652.182198E-3
652.042580E-3
652.028847E-3
651.824570E-3
651.818848E-3
651.600266E-3
651.596260E-3
651.448631E-3
651.249504E-3
651.119041E-3
650.739098E-3
650.570869E-3
650.309944E-3
649.941444E-3
649.820137E-3
649.503136E-3
649.077415E-3
648.768425E-3
648.134422E-3
647.720718E-3
647.170258E-3
646.665573E-3
646.387482E-3
645.889091E-3
645.611572E-3
645.535469E-3
645.696831E-3
646.564293E-3
648.587036E-3
652.162170E-3
656.451988E-3
661.633301E-3
666.757965E-3
671.174812E-3
674.914169E-3
677.415276E-3
678.750801E-3
679.036903E-3
678.220940E-3
676.831055E-3
674.597168E-3
672.662544E-3
670.512772E-3
668.325806E-3
666.414070E-3
664.652252E-3
663.221169E-3
662.182617E-3
661.311150E-3
660.709190E-3
660.038567E-3
659.266090E-3
658.351707E-3
657.356644E-3
656.488609E-3
655.900955E-3
655.938721E-3
655.990791E-3
656.333542E-3
657.353783E-3
658.206940E-3
659.202003E-3
660.349846E-3
661.249352E-3
661.928558E-3
662.090492E-3
662.326241E-3
662.270164E-3
661.917114E-3
661.521149E-3
660.693169E-3
659.749031E-3
658.967972E-3
657.893944E-3
656.602478E-3
655.743599E-3
654.884148E-3
654.099655E-3
653.374100E-3
652.729797E-3
652.134132E-3
651.544189E-3
651.124191E-3
651.059532E-3
650.678444E-3
650.245857E-3
650.071335E-3
649.594688E-3
649.177551E-3
649.099731E-3
649.042511E-3
649.198151E-3
649.197006E-3
649.561501E-3
649.640465E-3
649.701691E-3
649.689102E-3
649.598694E-3
649.465370E-3
649.515724E-3
649.449348E-3
649.296570E-3
648.879433E-3
648.337555E-3
647.872353E-3
647.346497E-3
646.793747E-3
646.450424E-3
645.940590E-3
645.687103E-3
645.577240E-3
645.178413E-3
644.885445E-3
645.382118E-3
647.158241E-3
650.072479E-3
654.108810E-3
658.513641E-3
662.935066E-3
667.074394E-3
670.549393E-3
673.152351E-3
674.643517E-3
675.059509E-3
674.749374E-3
673.560333E-3
672.020531E-3
670.214653E-3
668.280029E-3
666.420937E-3
664.531517E-3
662.986565E-3
661.590385E-3
660.163879E-3
659.173393E-3
657.903671E-3
656.521225E-3
654.952240E-3
653.541183E-3
652.662849E-3
652.098656E-3
652.294922E-3
652.753830E-3
653.478241E-3
654.951668E-3
656.085777E-3
657.292557E-3
658.641815E-3
659.570503E-3
660.558128E-3
661.227036E-3
661.538315E-3
661.550331E-3
661.331177E-3
660.760689E-3
659.839439E-3
658.989143E-3
658.127975E-3
656.982994E-3
656.152725E-3
655.032921E-3
654.147148E-3
653.669357E-3
652.755547E-3
652.249718E-3
651.758766E-3
651.423454E-3
651.155663E-3
650.783730E-3
650.663567E-3
650.537682E-3
650.796318E-3
650.710487E-3
650.664711E-3
650.910187E-3
651.016045E-3
651.334763E-3
651.478958E-3
651.673508E-3
651.883507E-3
652.005959E-3
651.679230E-3
651.416588E-3
651.092720E-3
650.953102E-3
650.476456E-3
650.188065E-3
649.937439E-3
649.568367E-3
649.353790E-3
649.142647E-3
649.468803E-3
650.513649E-3
652.737808E-3
656.512070E-3
660.844231E-3
665.737724E-3
670.482445E-3
674.735641E-3
677.932549E-3
680.001068E-3
680.945778E-3
681.044769E-3
680.009651E-3
678.500748E-3
676.716614E-3
674.689293E-3
672.631645E-3
670.594025E-3
668.865395E-3
667.473793E-3
666.267586E-3
665.354919E-3
664.517212E-3
664.158440E-3
663.099861E-3
661.844444E-3
660.840225E-3
659.923553E-3
659.362793E-3
659.132195E-3
659.279251E-3
659.852028E-3
660.431671E-3
661.724281E-3
662.831497E-3
663.834000E-3
664.839363E-3
665.528870E-3
665.971756E-3
666.134834E-3
665.933990E-3
665.380669E-3
664.787292E-3
664.081764E-3
663.253784E-3
662.228394E-3
661.437607E-3
660.494041E-3
659.767342E-3
658.961678E-3
658.301353E-3
657.738304E-3
656.968689E-3
656.398201E-3
655.995369E-3
655.642891E-3
655.283546E-3
655.070114E-3
655.030632E-3
654.806900E-3
654.738808E-3
654.861832E-3
654.896736E-3
654.977417E-3
655.057526E-3
655.163383E-3
655.502129E-3
655.452347E-3
655.579948E-3
655.452347E-3
655.293846E-3
655.145073E-3
654.750824E-3
654.504776E-3
654.187775E-3
653.973770E-3
653.425026E-3
652.967262E-3
652.963257E-3
653.556061E-3
655.266953E-3
658.379173E-3
662.823486E-3
668.105507E-3
673.713684E-3
679.193115E-3
683.850288E-3
687.261772E-3
689.395523E-3
690.201187E-3
689.891052E-3
688.759804E-3
686.971092E-3
685.346603E-3
683.114433E-3
681.077385E-3
679.400826E-3
677.945709E-3
676.836205E-3
676.119232E-3
675.749016E-3
675.726128E-3
675.525284E-3
675.561333E-3
675.141335E-3
674.400902E-3
673.384094E-3
672.116089E-3
670.918465E-3
670.109940E-3
669.653893E-3
669.784927E-3
669.708252E-3
670.053864E-3
670.527077E-3
671.187973E-3
671.929550E-3
672.469711E-3
672.817039E-3
672.807884E-3
672.641373E-3
672.314644E-3
671.769333E-3
670.977402E-3
670.103645E-3
669.199562E-3
668.437958E-3
667.272377E-3
666.539955E-3
665.639305E-3
664.897728E-3
664.388466E-3
663.936996E-3
663.454056E-3
662.995148E-3
662.531090E-3
662.022972E-3
661.813545E-3
661.863899E-3
661.701965E-3
661.554909E-3
661.417580E-3
661.338043E-3
661.395264E-3
661.518860E-3
661.215019E-3
661.590385E-3
661.501122E-3
661.677933E-3
661.594391E-3
661.550903E-3
661.522293E-3
661.380959E-3
661.164665E-3
660.884285E-3
660.412216E-3
659.876633E-3
659.351349E-3
658.832932E-3
658.449554E-3
657.942009E-3
657.854462E-3
658.141136E-3
660.077477E-3
662.652969E-3
666.477585E-3
671.665192E-3
677.347755E-3
683.274651E-3
688.343811E-3
692.413330E-3
695.154762E-3
696.142960E-3
696.429062E-3
695.666885E-3
694.006920E-3
692.205048E-3
690.122223E-3
688.186455E-3
686.358261E-3
684.860802E-3
683.790207E-3
683.072090E-3
682.503891E-3
682.216072E-3
681.911087E-3
681.878471E-3
681.422424E-3
680.765533E-3
679.525566E-3
678.483009E-3
677.007294E-3
675.761032E-3
674.875832E-3
674.452972E-3
674.360275E-3
674.620628E-3
674.978828E-3
675.585365E-3
676.183319E-3
676.721191E-3
677.134323E-3
677.279091E-3
677.184105E-3
676.820755E-3
676.094627E-3
675.418282E-3
674.436951E-3
673.556900E-3
672.577286E-3
671.512985E-3
670.698166E-3
669.655609E-3
668.891144E-3
668.167877E-3
667.719841E-3
667.243195E-3
666.776276E-3
666.482162E-3
666.182327E-3
665.737724E-3
665.614128E-3
665.213585E-3
664.980698E-3
665.137482E-3
664.682007E-3
664.522934E-3
664.332390E-3
664.112663E-3
663.950729E-3
663.754463E-3
663.771629E-3
663.415146E-3
663.549614E-3
663.252640E-3
663.097000E-3
662.922478E-3
662.691307E-3
662.515640E-3
662.345695E-3
662.116814E-3
662.036133E-3
662.040138E-3
661.550331E-3
660.966682E-3
660.642242E-3
660.283470E-3
659.654617E-3
659.099007E-3
658.475304E-3
657.895660E-3
657.604408E-3
657.138062E-3
656.894302E-3
657.019615E-3
657.683945E-3
659.594536E-3
662.936783E-3
667.725563E-3
673.332596E-3
679.533577E-3
685.414696E-3
690.483284E-3
694.355965E-3
696.839905E-3
697.770309E-3
697.452164E-3
695.921516E-3
693.824959E-3
691.684341E-3
689.028740E-3
686.802864E-3
684.694862E-3
683.028603E-3
681.877327E-3
681.041908E-3
680.625343E-3
680.379295E-3
680.616760E-3
680.197334E-3
679.646873E-3
678.806305E-3
677.622414E-3
676.221657E-3
674.974251E-3
673.886490E-3
673.287392E-3
672.913170E-3
673.239326E-3
673.670197E-3
674.166870E-3
674.983978E-3
675.506973E-3
676.131821E-3
676.283455E-3
676.222801E-3
675.987625E-3
675.327873E-3
674.633789E-3
673.886490E-3
672.977829E-3
671.928978E-3
670.746231E-3
669.944000E-3
668.897438E-3
667.975616E-3
667.152214E-3
666.591454E-3
665.974045E-3
665.629005E-3
665.186691E-3
664.929771E-3
664.522362E-3
664.333534E-3
664.084053E-3
663.923836E-3
663.869476E-3
663.583374E-3
663.404846E-3
663.312721E-3
663.162804E-3
662.808609E-3
662.741661E-3
662.564850E-3
662.628365E-3
662.394905E-3
662.445259E-3
662.077332E-3
661.960602E-3
661.612701E-3
661.065102E-3
661.007309E-3
660.717773E-3
660.495186E-3
660.244560E-3
660.005379E-3
659.817123E-3
659.513283E-3
659.294128E-3
659.314728E-3
658.808327E-3
658.509064E-3
658.102226E-3
657.728577E-3
657.320595E-3
656.756973E-3
656.345558E-3
655.814552E-3
655.184555E-3
654.756546E-3
654.393768E-3
654.318810E-3
654.263878E-3
654.998589E-3
656.845093E-3
659.969330E-3
664.601326E-3
670.178032E-3
676.290321E-3
682.341957E-3
687.578201E-3
691.746140E-3
694.289017E-3
695.365334E-3
695.262337E-3
693.695068E-3
691.531563E-3
689.040756E-3
686.334229E-3
683.822823E-3
681.520844E-3
679.817963E-3
678.194618E-3
677.244186E-3
676.514626E-3
676.112938E-3
676.094627E-3
675.818825E-3
675.462341E-3
674.613190E-3
673.453903E-3
672.345543E-3
671.455193E-3
670.799446E-3
670.476151E-3
670.353699E-3
670.840645E-3
671.454048E-3
672.338676E-3
673.158646E-3
673.859024E-3
674.331093E-3
674.444962E-3
674.309349E-3
674.015808E-3
673.205566E-3
672.506905E-3
671.550751E-3
670.498466E-3
669.597816E-3
668.590164E-3
667.504120E-3
666.309357E-3
665.404701E-3
664.700890E-3
663.957596E-3
663.532448E-3
662.943077E-3
662.595177E-3
661.974335E-3
661.862183E-3
661.758614E-3
661.638451E-3
661.404419E-3
661.326599E-3
661.057663E-3
661.030197E-3
660.928917E-3
660.948372E-3
660.740089E-3
660.447693E-3
660.493469E-3
660.343552E-3
660.180473E-3
659.984779E-3
659.822845E-3
659.647751E-3
659.621429E-3
659.327316E-3
659.045219E-3
658.614349E-3
658.367157E-3
658.004379E-3
657.686234E-3
657.408142E-3
656.972694E-3
656.988144E-3
656.639099E-3
656.319237E-3
656.196785E-3
655.861473E-3
655.704689E-3
655.420303E-3
655.389977E-3
655.142784E-3
654.773140E-3
654.421806E-3
653.998947E-3
653.641319E-3
653.220177E-3
652.647972E-3
652.448273E-3
651.766777E-3
651.637459E-3
651.549339E-3
651.481247E-3
652.422523E-3
654.429817E-3
657.753754E-3
662.533379E-3
667.993355E-3
673.789215E-3
679.906654E-3
685.134888E-3
689.062500E-3
691.371918E-3
692.263985E-3
691.759300E-3
690.158844E-3
687.738991E-3
684.973526E-3
682.266426E-3
679.482651E-3
677.045059E-3
675.208282E-3
673.462486E-3
672.398186E-3
671.689224E-3
671.325302E-3
671.617126E-3
670.956802E-3
670.437241E-3
669.703102E-3
668.788147E-3
667.969894E-3
667.000580E-3
666.625214E-3
666.499901E-3
667.012596E-3
667.654610E-3
668.452835E-3
669.461632E-3
670.253563E-3
670.893860E-3
671.371078E-3
671.439171E-3
671.325874E-3
670.885277E-3
670.147133E-3
669.342041E-3
668.423653E-3
667.403984E-3
666.240692E-3
665.043640E-3
663.993073E-3
663.095856E-3
661.936569E-3
661.307144E-3
660.757256E-3
660.338974E-3
659.823990E-3
659.676933E-3
659.350204E-3
658.966255E-3
658.800888E-3
658.682442E-3
658.511925E-3
658.433533E-3
658.310509E-3
658.252144E-3
658.106804E-3
658.053589E-3
657.923126E-3
657.898521E-3
657.775497E-3
657.700539E-3
657.560921E-3
657.409859E-3
657.225037E-3
657.081413E-3
656.914902E-3
657.008743E-3
656.591606E-3
656.211090E-3
656.078339E-3
655.598831E-3
655.339050E-3
654.878998E-3
654.531097E-3
654.318237E-3
653.934288E-3
653.780365E-3
653.505707E-3
653.262520E-3
653.100586E-3
652.899742E-3
652.908897E-3
652.638245E-3
652.342987E-3
652.609062E-3
651.973915E-3
651.572227E-3
651.271248E-3
650.838661E-3
650.577164E-3
650.137138E-3
649.748611E-3
649.477959E-3
649.258232E-3
649.003601E-3
649.061394E-3
650.057030E-3
652.270889E-3
655.868340E-3
660.733223E-3
666.220665E-3
672.183037E-3
677.657318E-3
682.170296E-3
685.580635E-3
687.294960E-3
687.616539E-3
686.674690E-3
684.584999E-3
682.004929E-3
679.079247E-3
676.059723E-3
673.465347E-3
671.038055E-3
669.176102E-3
667.573357E-3
666.527367E-3
665.772057E-3
665.415573E-3
665.238762E-3
665.041351E-3
664.347839E-3
663.351059E-3
662.459564E-3
661.957741E-3
661.440468E-3
661.522293E-3
661.831284E-3
662.578583E-3
663.571358E-3
664.511490E-3
665.643883E-3
666.708755E-3
667.395401E-3
667.795372E-3
667.571068E-3
667.448616E-3
666.759682E-3
666.004944E-3
665.116882E-3
664.156151E-3
663.049507E-3
661.925125E-3
660.620499E-3
659.449768E-3
658.344841E-3
657.533455E-3
656.806755E-3
656.258583E-3
655.817413E-3
655.339622E-3
655.176544E-3
654.784012E-3
654.437828E-3
654.361725E-3
654.051018E-3
653.990936E-3
653.858757E-3
653.733444E-3
653.894234E-3
653.838158E-3
653.703690E-3
653.719711E-3
653.747177E-3
653.649902E-3
653.368950E-3
653.442192E-3
653.174400E-3
653.061104E-3
652.909470E-3
652.606773E-3
652.559280E-3
652.190208E-3
651.885223E-3
651.781654E-3
651.386261E-3
651.204300E-3
650.877571E-3
650.568008E-3
650.409508E-3
650.071335E-3
649.927139E-3
649.679375E-3
649.277687E-3
649.206734E-3
648.814774E-3
648.692894E-3
648.338699E-3
647.835159E-3
647.442627E-3
647.313881E-3
646.720505E-3
646.281624E-3
646.055603E-3
645.784950E-3
645.738029E-3
646.240997E-3
647.870636E-3
650.836945E-3
655.310440E-3
660.877419E-3
666.761971E-3
672.691727E-3
677.720833E-3
681.793213E-3
684.282875E-3
685.299110E-3
684.974098E-3
683.530998E-3
681.361771E-3
678.672981E-3
675.776482E-3
672.993279E-3
670.490456E-3
668.314362E-3
666.467857E-3
665.184402E-3
664.450264E-3
663.868904E-3
663.582230E-3
663.424873E-3
663.158798E-3
662.568283E-3
661.675072E-3
660.960388E-3
659.953308E-3
659.611130E-3
659.415436E-3
659.659195E-3
660.237122E-3
660.926056E-3
661.905098E-3
662.907028E-3
663.791084E-3
664.584732E-3
664.827919E-3
664.934921E-3
664.798164E-3
664.180183E-3
663.607407E-3
662.758255E-3
661.883926E-3
660.922050E-3
659.583092E-3
658.339119E-3
657.274246E-3
656.395340E-3
655.637169E-3
654.990005E-3
654.406929E-3
653.762054E-3
653.478813E-3
653.101730E-3
652.738380E-3
652.624512E-3
652.413940E-3
652.323532E-3
652.188492E-3
652.060318E-3
652.044868E-3
651.552773E-3
651.635170E-3
651.637459E-3
651.596260E-3
651.608276E-3
651.394844E-3
651.363945E-3
651.287270E-3
651.147079E-3
650.862122E-3
650.915337E-3
650.884438E-3
650.638962E-3
650.279045E-3
650.089645E-3
649.760628E-3
649.670792E-3
649.348640E-3
649.071121E-3
648.973846E-3
648.690605E-3
648.488045E-3
648.195076E-3
647.880936E-3
647.766495E-3
647.274399E-3
647.210312E-3
646.976852E-3
646.592903E-3
646.253586E-3
645.818710E-3
645.369530E-3
644.972420E-3
644.521523E-3
644.512939E-3
644.056892E-3
644.157600E-3
645.025063E-3
646.891022E-3
650.450706E-3
655.244637E-3
660.916901E-3
666.778564E-3
672.799301E-3
677.318001E-3
680.813599E-3
683.092690E-3
683.612251E-3
682.945061E-3
681.318855E-3
678.825188E-3
676.012802E-3
673.452187E-3
670.695305E-3
668.270874E-3
666.094780E-3
664.554977E-3
663.331604E-3
662.611198E-3
662.278175E-3
661.977196E-3
661.935425E-3
661.719131E-3
660.970116E-3
660.363007E-3
659.428596E-3
658.769989E-3
658.399773E-3
658.233833E-3
658.720207E-3
659.437180E-3
660.011101E-3
660.800171E-3
661.737442E-3
662.488174E-3
663.105011E-3
663.443756E-3
663.338470E-3
663.029480E-3
662.393188E-3
661.885643E-3
661.108017E-3
660.256004E-3
659.214020E-3
658.214378E-3
657.049370E-3
656.070328E-3
