Notes :


2023-11-06 ¿ÀÈÄ 10:27:36
Volts
Ch : LED 2,
412.394714E-3
412.323761E-3
412.279701E-3
412.212181E-3
412.059975E-3
412.047958E-3
411.795616E-3
411.820221E-3
411.842537E-3
411.863136E-3
411.798477E-3
411.741829E-3
411.638832E-3
411.536980E-3
411.484337E-3
411.442566E-3
411.358452E-3
411.234283E-3
411.147308E-3
411.094666E-3
411.064339E-3
410.983658E-3
410.999107E-3
411.105537E-3
411.496353E-3
411.913490E-3
412.481117E-3
413.170624E-3
413.913918E-3
414.475822E-3
415.006256E-3
415.211678E-3
415.374184E-3
415.486908E-3
415.375900E-3
415.192795E-3
415.031433E-3
414.895821E-3
414.691544E-3
414.540482E-3
414.434052E-3
414.408302E-3
414.456367E-3
414.414024E-3
414.380836E-3
414.452362E-3
414.391708E-3
414.324188E-3
414.257812E-3
414.085007E-3
413.876724E-3
413.612366E-3
413.750267E-3
413.715363E-3
413.690758E-3
413.693047E-3
413.774300E-3
413.825798E-3
413.952827E-3
413.979149E-3
414.091873E-3
414.098167E-3
414.037514E-3
413.951683E-3
413.893890E-3
413.857269E-3
413.825226E-3
413.198090E-3
413.354301E-3
413.398933E-3
413.298798E-3
413.206100E-3
413.170624E-3
413.187218E-3
412.989235E-3
412.819290E-3
412.596130E-3
412.631035E-3
412.649345E-3
412.590408E-3
412.550354E-3
412.524033E-3
412.410164E-3
412.363243E-3
412.262535E-3
412.299728E-3
412.219048E-3
412.070274E-3
412.133789E-3
412.094879E-3
412.063980E-3
411.989021E-3
411.873436E-3
411.804771E-3
411.867714E-3
411.634827E-3
411.549568E-3
411.518097E-3
411.527252E-3
411.516953E-3
411.490059E-3
411.432266E-3
411.664009E-3
411.743546E-3
412.531471E-3
413.457298E-3
414.119911E-3
414.791107E-3
415.369034E-3
415.730667E-3
415.845680E-3
415.811920E-3
415.740967E-3
415.549850E-3
415.330124E-3
415.066910E-3
414.850616E-3
414.618301E-3
414.523888E-3
414.666939E-3
414.448357E-3
414.353943E-3
414.337349E-3
414.383698E-3
414.418030E-3
414.406013E-3
414.237213E-3
413.876152E-3
413.807487E-3
413.596916E-3
413.488770E-3
413.530540E-3
413.508224E-3
413.528824E-3
413.535690E-3
413.616943E-3
413.656425E-3
413.617516E-3
413.623238E-3
413.610077E-3
413.559723E-3
413.483620E-3
413.385773E-3
413.310242E-3
413.203812E-3
413.044167E-3
413.051605E-3
412.986946E-3
412.743187E-3
412.761497E-3
412.574959E-3
412.484550E-3
412.344360E-3
412.322044E-3
412.234497E-3
412.327766E-3
412.096596E-3
412.025642E-3
411.826515E-3
411.824799E-3
411.761856E-3
411.642265E-3
411.542130E-3
411.501503E-3
411.080933E-3
411.133575E-3
411.133003E-3
410.989952E-3
411.071205E-3
411.069489E-3
410.980797E-3
410.944176E-3
410.801125E-3
410.623169E-3
410.589409E-3
410.559082E-3
410.459518E-3
410.389137E-3
410.302734E-3
410.285568E-3
410.267830E-3
410.336494E-3
410.510445E-3
411.118698E-3
411.835670E-3
412.576675E-3
413.272476E-3
413.956833E-3
414.415741E-3
414.824867E-3
414.757347E-3
414.716721E-3
414.477539E-3
414.340782E-3
414.054680E-3
413.783455E-3
413.529968E-3
413.356018E-3
413.173485E-3
413.155174E-3
413.051605E-3
413.088799E-3
413.138008E-3
413.152313E-3
413.128281E-3
413.069344E-3
412.942314E-3
412.725449E-3
412.494850E-3
412.440491E-3
412.419891E-3
412.343216E-3
412.313461E-3
412.401009E-3
412.521744E-3
412.545776E-3
412.307739E-3
412.551498E-3
412.473679E-3
412.576675E-3
412.595558E-3
412.484550E-3
412.455368E-3
412.449074E-3
412.335205E-3
411.869431E-3
412.026787E-3
411.914635E-3
411.976433E-3
411.845970E-3
411.659431E-3
411.630821E-3
411.506081E-3
411.459732E-3
411.577606E-3
411.415672E-3
411.260605E-3
411.175919E-3
411.092949E-3
411.073494E-3
411.026001E-3
410.921288E-3
410.797691E-3
410.698128E-3
410.654068E-3
410.666084E-3
410.591125E-3
410.525894E-3
410.444641E-3
410.409737E-3
410.409737E-3
410.355377E-3
410.381699E-3
410.299873E-3
410.238647E-3
410.195732E-3
410.064697E-3
410.042381E-3
409.931374E-3
409.780312E-3
409.737396E-3
409.743690E-3
409.747124E-3
409.746552E-3
409.907341E-3
410.263252E-3
410.863495E-3
411.601639E-3
412.560081E-3
413.327980E-3
413.878441E-3
414.320183E-3
414.657211E-3
414.731026E-3
414.820862E-3
414.612007E-3
414.343643E-3
413.899040E-3
413.798332E-3
413.507652E-3
413.297081E-3
413.153458E-3
413.149452E-3
413.073921E-3
413.132286E-3
413.079071E-3
413.063622E-3
413.087082E-3
413.064194E-3
412.931442E-3
412.783241E-3
412.547493E-3
412.357521E-3
412.196732E-3
412.191582E-3
412.247086E-3
412.200165E-3
412.138367E-3
412.108040E-3
412.259102E-3
412.284851E-3
412.273407E-3
412.323189E-3
412.338638E-3
412.362099E-3
412.264824E-3
412.243652E-3
412.141800E-3
412.041092E-3
411.906052E-3
411.836815E-3
411.719513E-3
411.647415E-3
411.550140E-3
411.516953E-3
411.499214E-3
411.358452E-3
411.280632E-3
411.209106E-3
411.142159E-3
411.079788E-3
411.044884E-3
410.983086E-3
410.832596E-3
410.762787E-3
410.692406E-3
410.590553E-3
410.628319E-3
410.569954E-3
410.498428E-3
410.349083E-3
410.382271E-3
410.421181E-3
410.317612E-3
410.353088E-3
410.243797E-3
410.417747E-3
410.343361E-3
410.263824E-3
410.310173E-3
410.199738E-3
410.266113E-3
410.195732E-3
410.090446E-3
410.028648E-3
409.950829E-3
409.911346E-3
409.858704E-3
409.728813E-3
409.687042E-3
409.759712E-3
409.634972E-3
409.811783E-3
410.133934E-3
410.712433E-3
411.476898E-3
412.288857E-3
413.164330E-3
413.775444E-3
414.447784E-3
414.693260E-3
414.764214E-3
414.769363E-3
414.600563E-3
414.391136E-3
414.135361E-3
413.895035E-3
413.549995E-3
413.096809E-3
413.036156E-3
412.982368E-3
413.005257E-3
413.028145E-3
413.000679E-3
412.994385E-3
413.012695E-3
412.948036E-3
412.730026E-3
412.648201E-3
412.450218E-3
412.264824E-3
412.180710E-3
412.149811E-3
412.058830E-3
412.061691E-3
412.121773E-3
412.344933E-3
412.265968E-3
412.395859E-3
412.429619E-3
412.392998E-3
412.363815E-3
412.397575E-3
412.328339E-3
412.324905E-3
412.158394E-3
412.109184E-3
411.975288E-3
411.739540E-3
411.732101E-3
411.667442E-3
411.595345E-3
411.569023E-3
411.400223E-3
411.305809E-3
411.181068E-3
411.123276E-3
410.976791E-3
410.985947E-3
410.873222E-3
410.782242E-3
410.410309E-3
410.593414E-3
410.552216E-3
410.495567E-3
410.412025E-3
410.333061E-3
410.291290E-3
410.181427E-3
410.210037E-3
410.127640E-3
410.161400E-3
410.165977E-3
410.041809E-3
410.022354E-3
409.998322E-3
409.963989E-3
409.910774E-3
409.890175E-3
409.482193E-3
409.645844E-3
409.638405E-3
409.606934E-3
409.546280E-3
409.484482E-3
409.351730E-3
409.316254E-3
409.219551E-3
408.734894E-3
408.977509E-3
409.029007E-3
409.059906E-3
409.185791E-3
409.733963E-3
410.375977E-3
411.108398E-3
411.810493E-3
412.680817E-3
413.251877E-3
413.652420E-3
413.836670E-3
413.905907E-3
413.712502E-3
413.465881E-3
413.186646E-3
412.788391E-3
412.501144E-3
412.090302E-3
411.847115E-3
411.604500E-3
411.536980E-3
411.496925E-3
411.458015E-3
411.450005E-3
411.395645E-3
411.404228E-3
411.277771E-3
411.086655E-3
410.842323E-3
410.742760E-3
410.692978E-3
410.594559E-3
410.499001E-3
410.437775E-3
410.619736E-3
410.660934E-3
410.566521E-3
410.728455E-3
410.721016E-3
410.760498E-3
410.771370E-3
410.742187E-3
410.756493E-3
410.734749E-3
410.727882E-3
410.630035E-3
410.491562E-3
410.380554E-3
410.278130E-3
410.187149E-3
410.345078E-3
410.088158E-3
410.101318E-3
409.910774E-3
409.800911E-3
409.685326E-3
409.592056E-3
409.615517E-3
409.475327E-3
409.312248E-3
409.308243E-3
409.169769E-3
409.120560E-3
409.056473E-3
408.977509E-3
408.919144E-3
408.882523E-3
408.859062E-3
408.622169E-3
408.698845E-3
408.724594E-3
408.763504E-3
408.725166E-3
408.666801E-3
408.554649E-3
408.520317E-3
408.551216E-3
408.391571E-3
408.550072E-3
408.573532E-3
408.538055E-3
408.462524E-3
408.413887E-3
408.340073E-3
408.318901E-3
408.207893E-3
408.249664E-3
408.178139E-3
408.025932E-3
407.952690E-3
407.945824E-3
408.076859E-3
408.381844E-3
409.011269E-3
409.744263E-3
410.596848E-3
411.377335E-3
411.986160E-3
412.516022E-3
412.865639E-3
413.000679E-3
412.977791E-3
412.885094E-3
412.619591E-3
412.366104E-3
412.011337E-3
411.692047E-3
411.424255E-3
411.187363E-3
411.044312E-3
410.993958E-3
411.124992E-3
411.094093E-3
411.074638E-3
411.036301E-3
410.975647E-3
410.985947E-3
410.791397E-3
410.587692E-3
410.490990E-3
410.258102E-3
410.235214E-3
410.340500E-3
410.301590E-3
410.343933E-3
410.349083E-3
410.365677E-3
410.454941E-3
410.480118E-3
410.303307E-3
410.512733E-3
410.401154E-3
410.539627E-3
410.477257E-3
410.549355E-3
410.432053E-3
410.306168E-3
410.160828E-3
410.286713E-3
410.024071E-3
409.962845E-3
409.814072E-3
409.783745E-3
409.709358E-3
409.543419E-3
409.495926E-3
409.337997E-3
409.630394E-3
409.288788E-3
409.253883E-3
409.106827E-3
409.033585E-3
409.097099E-3
408.887100E-3
408.804703E-3
408.749199E-3
408.668518E-3
408.658791E-3
408.565521E-3
408.546638E-3
408.490562E-3
408.359528E-3
408.456802E-3
408.450508E-3
408.350372E-3
408.336067E-3
408.349800E-3
408.247948E-3
408.195877E-3
408.235931E-3
408.465958E-3
408.285141E-3
408.239937E-3
408.203888E-3
408.130646E-3
408.005333E-3
407.960701E-3
407.889748E-3
407.808495E-3
407.965279E-3
407.762146E-3
407.693481E-3
407.690048E-3
407.648277E-3
407.710648E-3
408.047676E-3
408.611298E-3
409.331703E-3
409.887314E-3
410.817719E-3
411.600494E-3
412.191582E-3
412.597847E-3
412.856483E-3
412.916565E-3
412.791252E-3
412.546349E-3
412.044525E-3
411.906624E-3
411.574745E-3
411.379623E-3
411.191368E-3
411.022568E-3
410.923004E-3
411.024857E-3
410.923576E-3
410.926437E-3
410.880089E-3
410.886383E-3
410.859489E-3
410.729599E-3
410.583687E-3
410.441780E-3
410.476112E-3
410.300446E-3
410.284424E-3
410.254097E-3
410.232353E-3
410.247803E-3
410.333633E-3
410.335350E-3
410.359383E-3
410.342216E-3
410.452080E-3
410.481834E-3
410.451508E-3
410.421753E-3
410.383987E-3
410.320473E-3
410.276413E-3
410.186005E-3
410.169983E-3
410.038948E-3
409.955406E-3
409.897614E-3
409.848404E-3
409.788322E-3
409.751129E-3
409.689331E-3
409.627533E-3
409.605217E-3
409.501076E-3
409.489632E-3
409.288788E-3
409.319687E-3
409.233284E-3
409.173203E-3
409.089661E-3
409.008408E-3
408.947754E-3
408.915710E-3
408.844185E-3
408.753204E-3
408.749771E-3
408.777809E-3
408.712006E-3
408.605003E-3
408.576393E-3
408.801270E-3
408.570099E-3
408.560371E-3
408.506012E-3
408.445930E-3
408.350372E-3
408.322906E-3
408.341789E-3
408.350372E-3
408.312607E-3
408.193588E-3
408.095169E-3
408.015060E-3
407.948685E-3
407.913208E-3
407.846832E-3
407.988167E-3
407.858849E-3
407.778740E-3
407.827950E-3
408.049393E-3
408.621597E-3
409.397507E-3
409.999466E-3
410.746765E-3
411.606789E-3
412.071419E-3
412.418747E-3
412.430191E-3
412.393570E-3
412.280846E-3
412.114334E-3
411.776733E-3
411.475754E-3
411.313248E-3
410.823441E-3
410.436630E-3
410.374832E-3
410.348511E-3
410.286713E-3
410.267258E-3
410.301018E-3
410.345078E-3
410.370827E-3
410.181427E-3
409.974861E-3
409.827232E-3
409.726524E-3
409.613800E-3
409.602356E-3
409.600639E-3
409.667015E-3
409.806633E-3
409.768295E-3
409.814644E-3
409.963989E-3
410.008621E-3
410.018921E-3
410.012627E-3
410.020065E-3
410.060120E-3
409.990883E-3
409.844398E-3
409.736252E-3
409.655571E-3
409.546852E-3
409.457588E-3
409.439278E-3
409.229851E-3
409.223557E-3
409.018135E-3
408.922005E-3
408.972359E-3
408.931160E-3
408.797264E-3
408.743477E-3
408.667374E-3
408.857346E-3
408.599281E-3
408.599281E-3
408.493996E-3
408.462524E-3
408.489990E-3
408.407021E-3
408.309174E-3
408.154678E-3
408.235931E-3
408.176422E-3
408.095741E-3
408.071709E-3
408.057404E-3
408.020210E-3
407.924652E-3
407.902336E-3
407.884026E-3
407.630539E-3
407.679176E-3
407.779312E-3
407.861710E-3
407.769585E-3
407.795334E-3
407.585907E-3
407.502365E-3
407.486343E-3
407.653999E-3
407.437706E-3
407.410240E-3
407.315254E-3
407.347870E-3
407.363319E-3
407.404518E-3
407.718658E-3
408.358955E-3
408.982086E-3
409.786606E-3
410.564232E-3
411.260605E-3
411.784744E-3
411.936951E-3
412.084007E-3
412.078285E-3
411.972427E-3
411.660004E-3
411.369324E-3
411.063194E-3
410.835457E-3
410.552216E-3
410.365105E-3
410.253525E-3
410.280991E-3
410.185432E-3
410.176849E-3
410.242653E-3
410.334778E-3
410.251808E-3
410.177994E-3
410.004044E-3
409.910202E-3
409.870720E-3
409.721375E-3
409.669876E-3
409.624672E-3
409.582329E-3
409.569740E-3
409.553719E-3
409.660721E-3
409.638977E-3
409.955406E-3
409.885025E-3
409.785461E-3
409.812927E-3
409.819221E-3
409.773445E-3
409.638405E-3
409.624672E-3
409.521103E-3
409.466743E-3
409.347153E-3
409.067345E-3
409.096527E-3
409.034157E-3
408.992958E-3
408.848190E-3
408.816147E-3
408.819580E-3
408.891678E-3
408.778381E-3
408.667946E-3
408.609581E-3
408.478546E-3
408.387566E-3
408.386993E-3
408.332062E-3
408.291435E-3
407.971001E-3
408.090591E-3
408.130646E-3
408.115768E-3
408.076859E-3
408.045387E-3
407.997894E-3
407.967567E-3
408.032227E-3
408.096313E-3
408.025932E-3
407.980728E-3
407.990456E-3
407.985878E-3
407.851982E-3
407.901192E-3
407.941246E-3
407.836533E-3
408.045959E-3
407.735252E-3
407.660866E-3
407.620239E-3
407.615089E-3
407.578468E-3
407.452583E-3
407.680893E-3
407.389069E-3
407.316971E-3
407.312965E-3
407.500648E-3
407.920647E-3
408.565521E-3
409.261322E-3
410.011482E-3
410.949898E-3
411.319542E-3
411.700630E-3
411.996460E-3
412.018204E-3
411.931801E-3
411.758995E-3
411.636543E-3
411.354446E-3
411.042595E-3
410.709000E-3
410.454941E-3
410.537338E-3
410.449791E-3
410.462379E-3
410.481262E-3
410.468102E-3
410.547638E-3
410.564232E-3
410.520744E-3
410.388565E-3
410.275269E-3
410.206604E-3
410.091019E-3
409.993172E-3
409.919930E-3
409.923935E-3
409.812927E-3
409.913635E-3
409.950256E-3
410.015488E-3
410.095596E-3
410.171127E-3
410.227203E-3
410.277557E-3
410.242653E-3
410.550499E-3
410.283279E-3
410.186005E-3
410.050392E-3
409.929085E-3
409.883881E-3
409.873009E-3
409.721947E-3
409.729385E-3
409.676743E-3
409.513664E-3
409.433556E-3
409.398079E-3
409.376335E-3
409.358025E-3
409.339142E-3
409.285927E-3
409.067917E-3
408.976936E-3
408.983803E-3
409.005547E-3
408.884239E-3
408.905411E-3
408.800125E-3
408.838463E-3
408.952332E-3
408.762932E-3
408.643913E-3
408.592415E-3
408.554649E-3
408.518028E-3
408.498001E-3
408.429337E-3
408.319473E-3
408.586121E-3
408.428192E-3
408.188438E-3
408.274841E-3
408.296585E-3
408.181572E-3
408.114624E-3
408.057976E-3
407.960129E-3
407.858849E-3
407.865143E-3
407.806206E-3
407.747841E-3
407.732391E-3
407.730103E-3
407.688904E-3
407.716370E-3
408.051109E-3
408.346367E-3
409.185791E-3
409.914207E-3
410.599709E-3
411.314392E-3
411.774445E-3
412.105179E-3
412.120056E-3
412.025070E-3
411.902046E-3
411.574745E-3
411.361885E-3
411.019707E-3
410.794258E-3
410.526466E-3
410.293579E-3
410.137939E-3
410.135651E-3
410.326195E-3
410.327339E-3
410.226059E-3
410.307884E-3
410.242081E-3
410.151100E-3
410.059547E-3
409.913063E-3
409.879875E-3
409.751701E-3
409.828377E-3
409.905624E-3
