Notes :


2023-11-04 ¿ÀÈÄ 10:02:20
Volts
Ch : LED 2,
541.988754E-3
543.548584E-3
544.371414E-3
544.413757E-3
543.844986E-3
542.927742E-3
541.572762E-3
540.017509E-3
538.863373E-3
537.628555E-3
536.779404E-3
536.135101E-3
535.759735E-3
535.691071E-3
535.638428E-3
535.764885E-3
535.853577E-3
536.028099E-3
536.160278E-3
535.976601E-3
535.573769E-3
534.889984E-3
534.161568E-3
533.503532E-3
533.030891E-3
532.717323E-3
532.624054E-3
532.718468E-3
532.903290E-3
533.095551E-3
533.271217E-3
533.389091E-3
533.400536E-3
533.317566E-3
533.262062E-3
532.926178E-3
532.443810E-3
531.986618E-3
531.547737E-3
530.966377E-3
530.486870E-3
530.011368E-3
529.507828E-3
529.050064E-3
528.566551E-3
528.312492E-3
527.968597E-3
527.727127E-3
527.565193E-3
527.361488E-3
527.142906E-3
527.005005E-3
526.910591E-3
526.797295E-3
526.590157E-3
526.663971E-3
526.524925E-3
526.429939E-3
526.293755E-3
526.147842E-3
526.021957E-3
525.704956E-3
525.717545E-3
525.696945E-3
525.519562E-3
525.556755E-3
525.453758E-3
525.293541E-3
525.181961E-3
524.959946E-3
524.953651E-3
524.751091E-3
524.605179E-3
524.380875E-3
524.182320E-3
524.059868E-3
523.837852E-3
523.772049E-3
523.751450E-3
523.400688E-3
523.503113E-3
523.282242E-3
523.081970E-3
523.002434E-3
522.846794E-3
522.702599E-3
522.473145E-3
522.251701E-3
522.096634E-3
521.853447E-3
521.597672E-3
521.316719E-3
521.064949E-3
521.012878E-3
521.113014E-3
521.886635E-3
523.690224E-3
526.376152E-3
529.791069E-3
533.292389E-3
536.843491E-3
539.870453E-3
542.173004E-3
543.602943E-3
544.270134E-3
543.898201E-3
543.036461E-3
541.873741E-3
540.482712E-3
538.956070E-3
537.710953E-3
536.639786E-3
535.794067E-3
535.384369E-3
535.073090E-3
535.047340E-3
535.086250E-3
535.237312E-3
535.610962E-3
535.732841E-3
535.922241E-3
535.774612E-3
535.412979E-3
534.778404E-3
533.922958E-3
533.364487E-3
532.887840E-3
532.620049E-3
532.646370E-3
532.575989E-3
532.778549E-3
532.709312E-3
532.949638E-3
533.031464E-3
533.165932E-3
533.083534E-3
532.896996E-3
532.791710E-3
532.438660E-3
532.117653E-3
531.578636E-3
531.125450E-3
530.703163E-3
530.275726E-3
529.744720E-3
529.381943E-3
529.114723E-3
528.901291E-3
528.603172E-3
528.397751E-3
528.199196E-3
527.998352E-3
527.895927E-3
527.827263E-3
527.659607E-3
527.592659E-3
527.539444E-3
527.373505E-3
527.324295E-3
527.130318E-3
527.000427E-3
526.992416E-3
526.910591E-3
526.833916E-3
526.720047E-3
526.593018E-3
526.522636E-3
526.453400E-3
526.318932E-3
526.155853E-3
526.118088E-3
525.893211E-3
525.771332E-3
525.625992E-3
525.274086E-3
525.188828E-3
525.033188E-3
524.836922E-3
524.739647E-3
524.596024E-3
524.472427E-3
524.284744E-3
524.141121E-3
524.027252E-3
523.848724E-3
523.708534E-3
523.650169E-3
523.505974E-3
523.521996E-3
523.206139E-3
523.127747E-3
522.949791E-3
522.783279E-3
522.634506E-3
522.248268E-3
522.122383E-3
521.940994E-3
521.764755E-3
521.898651E-3
522.454262E-3
523.998070E-3
526.598167E-3
529.858017E-3
533.296967E-3
536.775398E-3
539.893913E-3
542.253685E-3
543.729973E-3
544.347954E-3
544.084167E-3
543.113708E-3
542.071152E-3
540.641785E-3
539.231300E-3
537.802505E-3
536.736488E-3
535.777473E-3
535.127449E-3
534.830475E-3
534.618759E-3
534.694862E-3
534.899139E-3
535.116577E-3
535.367203E-3
535.261917E-3
535.161781E-3
534.668541E-3
534.043121E-3
533.411980E-3
532.974815E-3
532.769966E-3
532.633781E-3
532.715034E-3
532.931328E-3
533.115005E-3
533.214569E-3
533.501244E-3
533.687782E-3
533.819389E-3
533.640289E-3
533.413124E-3
533.079529E-3
532.703590E-3
532.241249E-3
531.736565E-3
531.176949E-3
530.733490E-3
530.252266E-3
529.780197E-3
529.353905E-3
529.044914E-3
528.778839E-3
528.425789E-3
528.190041E-3
527.830696E-3
527.768326E-3
527.617264E-3
527.418137E-3
527.323151E-3
527.085114E-3
526.952362E-3
526.775551E-3
526.560974E-3
526.498604E-3
526.342392E-3
526.241684E-3
526.158142E-3
525.934410E-3
525.815392E-3
525.623131E-3
525.442886E-3
525.302696E-3
525.188255E-3
525.060654E-3
524.842072E-3
524.650955E-3
524.417496E-3
524.131393E-3
524.054146E-3
523.786926E-3
523.556328E-3
523.282814E-3
523.118591E-3
522.982407E-3
522.739792E-3
522.714043E-3
522.504044E-3
522.244263E-3
522.083473E-3
521.827698E-3
521.716690E-3
521.472359E-3
521.249199E-3
521.067238E-3
520.689011E-3
520.517349E-3
520.251846E-3
519.972610E-3
519.879913E-3
519.756889E-3
520.151138E-3
521.451759E-3
523.556900E-3
526.548958E-3
529.841423E-3
533.276367E-3
536.345673E-3
538.723755E-3
540.347672E-3
541.045761E-3
541.044617E-3
540.350533E-3
539.269066E-3
538.077736E-3
536.556816E-3
535.320282E-3
534.076309E-3
533.008575E-3
532.452965E-3
531.856155E-3
531.717110E-3
531.691360E-3
531.685066E-3
532.023239E-3
532.082748E-3
532.122803E-3
531.893349E-3
531.511688E-3
530.882263E-3
530.245972E-3
529.777336E-3
529.512978E-3
529.309845E-3
529.437447E-3
529.472351E-3
529.753876E-3
529.958725E-3
530.228806E-3
530.387878E-3
530.479431E-3
530.378723E-3
530.187607E-3
529.787064E-3
529.468346E-3
529.009438E-3
528.539658E-3
528.057861E-3
527.569771E-3
527.185822E-3
526.629639E-3
526.279449E-3
525.857735E-3
525.467491E-3
525.189400E-3
524.911308E-3
524.815750E-3
524.592590E-3
524.415207E-3
524.374008E-3
524.153709E-3
524.143410E-3
524.000931E-3
523.964310E-3
523.975182E-3
523.745155E-3
523.769188E-3
523.666191E-3
523.603249E-3
523.578072E-3
523.427010E-3
523.285103E-3
523.253059E-3
523.036766E-3
522.981262E-3
522.866249E-3
522.817039E-3
522.787285E-3
522.512627E-3
522.402763E-3
522.185326E-3
522.090340E-3
521.960449E-3
521.790504E-3
521.668053E-3
521.530151E-3
521.375084E-3
521.289825E-3
521.152496E-3
521.106148E-3
520.878410E-3
520.889854E-3
520.803452E-3
520.531654E-3
520.517921E-3
520.230675E-3
520.123672E-3
519.822121E-3
519.545174E-3
519.314003E-3
519.025040E-3
518.892860E-3
518.785286E-3
518.990135E-3
520.069313E-3
521.914101E-3
524.780273E-3
528.114510E-3
531.480217E-3
534.821320E-3
537.591362E-3
539.776611E-3
541.004562E-3
541.382217E-3
541.102409E-3
540.151978E-3
538.950920E-3
537.653160E-3
536.133385E-3
535.061646E-3
533.821678E-3
533.125305E-3
532.636070E-3
532.347107E-3
532.459831E-3
532.506180E-3
532.747078E-3
532.948494E-3
533.119583E-3
533.272362E-3
533.045197E-3
532.643509E-3
532.080460E-3
531.365204E-3
530.937195E-3
530.537224E-3
530.364990E-3
530.238533E-3
530.379868E-3
530.574989E-3
530.684280E-3
530.798149E-3
530.996704E-3
531.042480E-3
531.127167E-3
530.927467E-3
530.695724E-3
530.382156E-3
529.955864E-3
529.595947E-3
529.100418E-3
528.632927E-3
528.206635E-3
527.766037E-3
527.443314E-3
527.071953E-3
526.812744E-3
526.491165E-3
526.203346E-3
526.084328E-3
525.815964E-3
525.763893E-3
525.679779E-3
525.522995E-3
525.442886E-3
525.227165E-3
525.192261E-3
525.119019E-3
524.951363E-3
524.888420E-3
524.848366E-3
524.666977E-3
524.620628E-3
524.536514E-3
524.523926E-3
524.403191E-3
524.356842E-3
524.234390E-3
524.150276E-3
524.067879E-3
523.822975E-3
523.673630E-3
523.462486E-3
523.320007E-3
523.238182E-3
523.109436E-3
522.972679E-3
522.821045E-3
522.636223E-3
522.465706E-3
522.350121E-3
522.259712E-3
522.192192E-3
522.057724E-3
522.015381E-3
521.883774E-3
521.819115E-3
521.648598E-3
521.478653E-3
521.396255E-3
521.131325E-3
521.030617E-3
520.772552E-3
520.488739E-3
520.417786E-3
520.248985E-3
520.192337E-3
520.393181E-3
521.203423E-3
523.168373E-3
525.766182E-3
529.137039E-3
532.567978E-3
535.745430E-3
538.514328E-3
540.398598E-3
541.419983E-3
541.624260E-3
541.183662E-3
540.216637E-3
538.864517E-3
537.578201E-3
536.228943E-3
534.952354E-3
533.866310E-3
532.948494E-3
532.527924E-3
532.130241E-3
531.991196E-3
532.143974E-3
532.280159E-3
532.528496E-3
532.543373E-3
532.512474E-3
532.347679E-3
531.703949E-3
531.218719E-3
530.713463E-3
530.284882E-3
530.362129E-3
530.222511E-3
530.488586E-3
530.609894E-3
530.866241E-3
531.147194E-3
531.206703E-3
531.332016E-3
531.318283E-3
531.123161E-3
531.005859E-3
530.587006E-3
530.186462E-3
529.784775E-3
529.140472E-3
528.702736E-3
528.290749E-3
527.853584E-3
527.513123E-3
527.056503E-3
526.868248E-3
526.429939E-3
526.271439E-3
526.078033E-3
525.777054E-3
525.737572E-3
525.550461E-3
525.263786E-3
525.147629E-3
524.961090E-3
524.965096E-3
524.830627E-3
524.770546E-3
524.736214E-3
524.559402E-3
524.522781E-3
524.276161E-3
524.162865E-3
524.093628E-3
523.977470E-3
523.998642E-3
523.813820E-3
523.738861E-3
523.694229E-3
523.483658E-3
523.443031E-3
523.147202E-3
522.905731E-3
522.830772E-3
522.734642E-3
522.540665E-3
522.362709E-3
522.255135E-3
522.095490E-3
521.956444E-3
521.871758E-3
521.625710E-3
521.544456E-3
521.384811E-3
521.092987E-3
520.963669E-3
520.569420E-3
520.302773E-3
519.802094E-3
519.738007E-3
519.611549E-3
519.357491E-3
519.353485E-3
519.557762E-3
520.325089E-3
522.268867E-3
524.874115E-3
528.049850E-3
531.292534E-3
534.379005E-3
536.944771E-3
538.825035E-3
539.899635E-3
540.146255E-3
539.848709E-3
538.944626E-3
537.707520E-3
536.287880E-3
534.930038E-3
533.821106E-3
532.839775E-3
531.964302E-3
531.540871E-3
531.264496E-3
531.192970E-3
531.373787E-3
531.429863E-3
531.628418E-3
531.755447E-3
531.629562E-3
531.453896E-3
530.945206E-3
530.203056E-3
529.736710E-3
529.261208E-3
529.150772E-3
529.096413E-3
529.292679E-3
529.486084E-3
529.764748E-3
530.140686E-3
530.157280E-3
530.316353E-3
530.391312E-3
530.226517E-3
530.029678E-3
529.749870E-3
529.333878E-3
528.896713E-3
528.306198E-3
527.986336E-3
527.426147E-3
526.968956E-3
526.633644E-3
526.243973E-3
526.009941E-3
525.738144E-3
525.382233E-3
525.207138E-3
524.999428E-3
524.840355E-3
524.707603E-3
524.608612E-3
524.575996E-3
524.498177E-3
524.355698E-3
524.296761E-3
524.185181E-3
524.063873E-3
523.936844E-3
523.975182E-3
523.879051E-3
523.705101E-3
523.555756E-3
523.402405E-3
523.139763E-3
523.111153E-3
523.142052E-3
523.013306E-3
522.894287E-3
522.850800E-3
522.631073E-3
522.439384E-3
522.309494E-3
522.198486E-3
522.157288E-3
521.895218E-3
521.771049E-3
521.733284E-3
521.584511E-3
521.553040E-3
521.462059E-3
521.240044E-3
521.273804E-3
520.943642E-3
520.737648E-3
520.543671E-3
520.311928E-3
520.060158E-3
519.838142E-3
519.748878E-3
519.422150E-3
519.342613E-3
519.469643E-3
519.984627E-3
521.390533E-3
523.661041E-3
526.608467E-3
529.907227E-3
533.204269E-3
536.260414E-3
538.699150E-3
540.398598E-3
541.304398E-3
541.331291E-3
540.909004E-3
540.093040E-3
538.873100E-3
537.599373E-3
536.355400E-3
535.379219E-3
534.601021E-3
533.933258E-3
533.594513E-3
533.437729E-3
533.587074E-3
533.666611E-3
533.967590E-3
534.278297E-3
534.336662E-3
534.270859E-3
533.929825E-3
533.407402E-3
532.728767E-3
531.992340E-3
531.586647E-3
531.395531E-3
531.283951E-3
531.331444E-3
531.374359E-3
531.566620E-3
531.668472E-3
531.810379E-3
531.551170E-3
531.698799E-3
531.690788E-3
531.527710E-3
531.225586E-3
530.891991E-3
530.353546E-3
530.056572E-3
529.521561E-3
529.055786E-3
528.662682E-3
528.256989E-3
528.060722E-3
527.772903E-3
527.610970E-3
527.467346E-3
526.911163E-3
527.076530E-3
527.099991E-3
527.027321E-3
527.018166E-3
526.881409E-3
526.799011E-3
526.645660E-3
526.535225E-3
526.188469E-3
526.177025E-3
526.214218E-3
526.161575E-3
526.117516E-3
526.076889E-3
525.972176E-3
525.848007E-3
525.715828E-3
525.764465E-3
525.545883E-3
525.333023E-3
525.295258E-3
525.128174E-3
524.953079E-3
524.732208E-3
524.508476E-3
524.348831E-3
524.209785E-3
524.017525E-3
523.916245E-3
523.761749E-3
523.747444E-3
523.614120E-3
523.592949E-3
523.538017E-3
523.299408E-3
523.210716E-3
523.004150E-3
522.710609E-3
522.550392E-3
522.271729E-3
522.056007E-3
521.862602E-3
521.666336E-3
521.557617E-3
521.503830E-3
521.912384E-3
523.046494E-3
525.078964E-3
527.886200E-3
530.982399E-3
534.293747E-3
537.151337E-3
539.511681E-3
541.349030E-3
541.894341E-3
541.950417E-3
541.256332E-3
540.271568E-3
539.028168E-3
537.677193E-3
536.578560E-3
535.309410E-3
534.467697E-3
533.887482E-3
533.390808E-3
533.269501E-3
533.278084E-3
533.393097E-3
533.635712E-3
533.633995E-3
533.856010E-3
533.625412E-3
533.153915E-3
532.514191E-3
531.898499E-3
531.554031E-3
531.323433E-3
531.336021E-3
531.311417E-3
531.593513E-3
531.940842E-3
532.234383E-3
532.463837E-3
532.511330E-3
532.475853E-3
532.443237E-3
532.170868E-3
531.907654E-3
531.554031E-3
531.052208E-3
530.533218E-3
529.990768E-3
529.531860E-3
529.123878E-3
528.664398E-3
528.401756E-3
528.212929E-3
527.720261E-3
527.484512E-3
527.138901E-3
526.963234E-3
526.781845E-3
526.649094E-3
526.532364E-3
526.395607E-3
526.234818E-3
526.090050E-3
525.967026E-3
525.881767E-3
525.659752E-3
525.688362E-3
525.625992E-3
525.549889E-3
525.457764E-3
525.312424E-3
525.143623E-3
524.890137E-3
524.759674E-3
524.743080E-3
524.594879E-3
524.495316E-3
524.267578E-3
524.197769E-3
524.150276E-3
523.989487E-3
523.857307E-3
523.681641E-3
523.619843E-3
523.462486E-3
523.295975E-3
523.135757E-3
523.068237E-3
522.756386E-3
522.603035E-3
522.335815E-3
522.001076E-3
521.775627E-3
521.569061E-3
521.397400E-3
521.056366E-3
521.028900E-3
521.276665E-3
522.003365E-3
523.639297E-3
526.028252E-3
529.079247E-3
532.338524E-3
535.414696E-3
538.278580E-3
540.167427E-3
541.463470E-3
541.876602E-3
541.592216E-3
540.916443E-3
539.806366E-3
538.633919E-3
537.434006E-3
536.285019E-3
535.433006E-3
534.658813E-3
534.322929E-3
534.008789E-3
533.999062E-3
534.148979E-3
534.127808E-3
534.400749E-3
534.503746E-3
534.511757E-3
534.195328E-3
533.557892E-3
532.851791E-3
532.254410E-3
531.690216E-3
531.366920E-3
531.172943E-3
531.270790E-3
531.350327E-3
531.521416E-3
531.725693E-3
531.835556E-3
531.940269E-3
531.950569E-3
531.719971E-3
531.611252E-3
531.285095E-3
530.930328E-3
530.521774E-3
530.022240E-3
529.571915E-3
528.977394E-3
528.624916E-3
528.209496E-3
527.894783E-3
527.583504E-3
527.227020E-3
527.029610E-3
526.803589E-3
526.552391E-3
526.432228E-3
526.290894E-3
526.174736E-3
526.144981E-3
526.016808E-3
525.961304E-3
525.741005E-3
525.605392E-3
525.610542E-3
525.628853E-3
525.430870E-3
525.270081E-3
525.215149E-3
525.026321E-3
524.959373E-3
524.901581E-3
524.717903E-3
524.628639E-3
524.326515E-3
524.295616E-3
524.164581E-3
524.036980E-3
523.851013E-3
523.702812E-3
523.527718E-3
523.433304E-3
523.212433E-3
523.147202E-3
523.049355E-3
522.970390E-3
522.941208E-3
522.805595E-3
522.673416E-3
522.548676E-3
522.370720E-3
522.266006E-3
521.974182E-3
521.862602E-3
521.644020E-3
521.440887E-3
521.166229E-3
520.852661E-3
520.710754E-3
520.798302E-3
520.872116E-3
521.468925E-3
522.906876E-3
525.374794E-3
528.379440E-3
531.630707E-3
534.928894E-3
537.791061E-3
540.157700E-3
541.502953E-3
542.215347E-3
542.107773E-3
541.354179E-3
540.447807E-3
539.156914E-3
537.914085E-3
536.806870E-3
535.878754E-3
535.266495E-3
