Notes :


2023-11-10 ¿ÀÈÄ 11:54:39
Volts
Ch : LED 2,
763.841057E-3
763.239098E-3
763.186455E-3
763.294601E-3
763.813591E-3
764.211845E-3
764.764023E-3
765.099335E-3
765.050125E-3
764.640999E-3
763.409615E-3
762.441444E-3
761.273575E-3
760.330009E-3
759.950638E-3
759.654808E-3
759.962082E-3
760.315132E-3
760.835838E-3
761.394882E-3
761.709023E-3
761.870956E-3
761.846352E-3
761.457253E-3
761.132240E-3
760.460472E-3
759.883690E-3
759.284592E-3
758.822823E-3
758.371353E-3
757.913589E-3
757.620621E-3
757.377434E-3
757.212067E-3
756.948853E-3
756.724548E-3
756.638145E-3
756.620407E-3
756.599808E-3
756.564331E-3
756.501961E-3
756.432724E-3
756.389236E-3
756.307411E-3
756.234741E-3
756.271362E-3
756.245041E-3
756.164360E-3
756.038475E-3
755.950928E-3
755.702591E-3
755.628777E-3
755.366135E-3
755.042267E-3
754.914665E-3
754.566193E-3
754.418564E-3
754.266930E-3
753.802299E-3
753.652382E-3
753.200912E-3
753.010941E-3
752.776337E-3
752.475357E-3
752.235031E-3
752.071953E-3
751.947212E-3
751.850510E-3
752.006721E-3
751.815605E-3
751.572990E-3
751.435089E-3
751.157570E-3
751.074028E-3
751.186180E-3
750.810814E-3
750.639153E-3
750.484085E-3
750.267792E-3
749.937630E-3
749.502754E-3
749.325371E-3
749.152565E-3
748.784065E-3
748.616982E-3
748.485947E-3
748.591232E-3
748.659897E-3
748.982048E-3
750.024605E-3
752.162933E-3
755.286598E-3
759.048843E-3
763.224792E-3
767.229080E-3
770.419121E-3
772.595787E-3
773.827744E-3
773.749924E-3
773.026657E-3
771.598434E-3
769.955635E-3
768.166351E-3
766.660309E-3
765.246964E-3
764.028740E-3
763.385582E-3
763.179016E-3
762.971306E-3
763.233948E-3
763.561821E-3
764.132881E-3
764.516830E-3
764.406395E-3
764.109993E-3
763.272285E-3
762.225723E-3
761.293602E-3
760.562897E-3
760.455894E-3
760.550308E-3
761.139107E-3
761.878395E-3
762.727547E-3
763.314629E-3
763.583565E-3
763.776398E-3
763.653946E-3
763.223076E-3
762.871742E-3
762.304115E-3
761.615181E-3
760.925102E-3
760.217285E-3
759.642792E-3
759.051132E-3
758.630562E-3
758.201408E-3
757.828903E-3
757.406044E-3
757.196045E-3
756.992912E-3
756.780052E-3
756.523705E-3
756.446457E-3
756.209564E-3
756.215286E-3
756.039047E-3
756.071663E-3
756.055069E-3
755.863380E-3
755.808449E-3
755.771255E-3
755.471992E-3
755.473709E-3
755.157852E-3
755.019379E-3
754.865456E-3
754.752731E-3
754.764748E-3
754.518127E-3
754.417992E-3
754.134750E-3
753.864670E-3
753.795433E-3
753.430367E-3
753.284454E-3
752.894211E-3
752.533722E-3
752.519417E-3
752.075958E-3
752.062798E-3
751.782990E-3
751.451111E-3
751.374435E-3
751.175880E-3
750.996208E-3
750.902939E-3
750.574493E-3
750.455475E-3
750.159073E-3
749.959946E-3
749.669266E-3
749.350548E-3
749.073601E-3
748.670769E-3
748.457336E-3
748.264503E-3
748.015594E-3
747.965240E-3
747.997856E-3
748.211288E-3
748.865318E-3
750.414848E-3
753.016090E-3
756.540298E-3
760.784912E-3
765.002632E-3
768.843842E-3
771.934891E-3
773.846054E-3
774.568748E-3
774.373055E-3
773.268127E-3
771.733475E-3
769.786263E-3
768.037605E-3
766.451454E-3
765.043831E-3
764.006424E-3
763.402748E-3
763.195610E-3
763.326645E-3
763.564682E-3
763.975525E-3
764.328575E-3
764.856148E-3
764.908791E-3
764.313698E-3
763.696289E-3
762.551308E-3
761.427498E-3
760.659599E-3
760.217857E-3
760.246468E-3
760.470772E-3
761.023521E-3
761.540222E-3
762.051773E-3
762.554169E-3
762.684631E-3
762.707520E-3
762.450027E-3
761.948204E-3
761.440659E-3
760.840988E-3
760.125160E-3
759.610748E-3
758.912659E-3
758.347321E-3
757.592010E-3
757.124519E-3
756.638145E-3
756.069374E-3
756.000137E-3
755.420494E-3
755.372429E-3
755.202484E-3
754.991341E-3
754.831123E-3
754.608536E-3
754.382515E-3
754.411125E-3
754.095840E-3
754.084969E-3
753.797722E-3
753.713036E-3
753.526497E-3
753.311920E-3
753.247261E-3
752.974892E-3
752.855873E-3
752.784920E-3
752.429581E-3
752.255630E-3
752.070808E-3
751.930046E-3
751.643944E-3
751.276016E-3
751.150703E-3
750.755310E-3
750.656319E-3
750.553894E-3
750.261497E-3
750.066948E-3
749.693871E-3
749.505615E-3
749.230957E-3
749.037552E-3
749.117661E-3
748.731422E-3
748.668480E-3
748.554611E-3
748.416138E-3
748.424721E-3
748.291397E-3
748.120880E-3
748.113441E-3
747.791862E-3
747.713470E-3
747.458267E-3
747.362709E-3
747.272873E-3
746.847153E-3
746.597672E-3
746.185112E-3
745.954514E-3
745.762825E-3
745.377731E-3
745.312500E-3
745.341110E-3
745.547104E-3
746.143341E-3
747.597313E-3
750.158501E-3
753.759956E-3
758.128166E-3
762.601662E-3
766.662598E-3
769.913864E-3
771.862793E-3
772.894478E-3
772.727394E-3
771.648788E-3
770.242310E-3
768.291092E-3
766.621399E-3
764.927673E-3
763.537216E-3
762.712669E-3
761.973953E-3
761.699295E-3
761.809158E-3
762.092972E-3
762.785912E-3
763.334084E-3
763.752365E-3
764.145470E-3
763.876534E-3
763.387299E-3
762.379646E-3
761.487007E-3
760.443306E-3
759.733200E-3
759.549522E-3
759.587288E-3
759.884262E-3
760.339737E-3
760.814095E-3
761.384583E-3
761.580276E-3
761.579132E-3
761.543083E-3
761.073875E-3
760.811806E-3
760.232735E-3
759.789276E-3
759.229660E-3
758.524132E-3
758.081245E-3
757.385445E-3
756.900787E-3
756.548882E-3
756.058502E-3
755.718040E-3
755.431366E-3
755.094910E-3
754.925537E-3
754.543304E-3
754.407692E-3
754.231453E-3
754.066086E-3
753.957939E-3
753.698158E-3
753.642654E-3
753.439522E-3
753.310776E-3
753.329086E-3
753.016663E-3
752.983475E-3
752.739716E-3
752.581787E-3
752.420998E-3
752.248764E-3
752.079391E-3
751.777267E-3
751.498032E-3
751.169586E-3
750.728416E-3
750.567055E-3
750.121880E-3
749.824333E-3
749.669266E-3
749.380875E-3
749.367714E-3
749.097061E-3
749.043846E-3
748.852730E-3
748.456764E-3
748.302269E-3
748.129463E-3
747.890282E-3
747.850227E-3
747.695160E-3
747.633934E-3
747.548103E-3
747.488022E-3
747.423363E-3
747.295189E-3
747.344398E-3
747.215080E-3
747.017670E-3
746.849442E-3
746.599388E-3
746.519279E-3
746.225166E-3
745.826912E-3
745.587730E-3
745.329094E-3
745.103645E-3
744.837570E-3
744.889069E-3
744.952583E-3
744.923401E-3
745.418358E-3
746.853447E-3
749.056435E-3
752.414703E-3
756.558609E-3
760.703087E-3
764.340591E-3
767.313194E-3
769.115067E-3
769.771385E-3
769.460678E-3
768.360901E-3
766.782761E-3
765.032959E-3
763.173294E-3
761.619186E-3
760.236740E-3
759.095764E-3
758.481789E-3
757.866096E-3
757.844353E-3
758.102989E-3
758.479500E-3
758.940125E-3
759.082031E-3
759.250832E-3
758.951569E-3
758.213997E-3
757.527924E-3
756.569481E-3
756.253052E-3
756.206703E-3
756.488800E-3
757.302475E-3
757.930183E-3
758.821678E-3
759.392166E-3
759.719467E-3
759.963226E-3
759.748077E-3
759.580421E-3
759.125519E-3
758.576775E-3
758.144760E-3
757.374573E-3
756.886482E-3
756.176949E-3
755.599594E-3
755.122948E-3
754.504967E-3
754.276657E-3
753.988266E-3
753.763390E-3
753.531647E-3
753.327942E-3
753.289604E-3
753.208351E-3
753.140831E-3
753.053284E-3
752.950859E-3
752.896500E-3
752.692223E-3
752.626991E-3
752.518272E-3
752.351761E-3
752.192116E-3
752.047348E-3
751.671410E-3
751.677132E-3
751.422501E-3
751.335526E-3
751.062584E-3
750.869179E-3
750.767326E-3
750.381088E-3
750.325584E-3
749.983978E-3
749.745369E-3
749.447823E-3
749.118805E-3
748.891068E-3
748.552895E-3
748.288536E-3
748.060226E-3
747.798157E-3
747.557259E-3
747.402191E-3
747.243690E-3
747.036552E-3
746.953583E-3
746.749878E-3
746.568489E-3
746.360207E-3
746.373940E-3
746.051216E-3
746.024895E-3
745.780563E-3
745.623207E-3
745.337105E-3
744.894791E-3
744.711685E-3
744.387245E-3
744.155502E-3
744.041634E-3
743.952942E-3
744.131470E-3
744.282532E-3
745.150566E-3
747.003365E-3
749.934769E-3
753.613472E-3
757.954788E-3
762.058640E-3
765.774536E-3
768.396378E-3
770.024300E-3
770.564461E-3
769.877815E-3
768.974304E-3
767.228508E-3
765.458107E-3
763.735771E-3
762.012291E-3
760.881042E-3
759.804153E-3
759.190750E-3
759.026527E-3
758.872032E-3
759.310341E-3
759.659386E-3
760.134315E-3
760.518265E-3
760.511971E-3
760.344887E-3
759.651947E-3
758.790207E-3
757.791138E-3
757.012367E-3
756.643867E-3
756.470490E-3
756.841850E-3
757.166290E-3
757.687569E-3
758.325577E-3
758.675766E-3
759.040260E-3
758.921242E-3
758.805084E-3
758.535576E-3
757.938194E-3
757.426071E-3
756.803513E-3
756.099129E-3
755.547523E-3
754.856873E-3
754.226875E-3
753.690147E-3
753.200912E-3
752.817535E-3
752.461052E-3
752.275658E-3
752.034760E-3
751.796150E-3
751.441956E-3
751.259995E-3
751.155853E-3
751.172447E-3
751.058006E-3
750.916100E-3
750.808525E-3
750.755882E-3
750.586510E-3
750.339890E-3
750.502396E-3
750.160217E-3
750.074959E-3
750.004005E-3
749.834061E-3
749.697304E-3
749.511337E-3
749.456406E-3
749.291611E-3
749.214363E-3
749.027824E-3
748.924255E-3
748.630142E-3
748.493958E-3
748.230171E-3
748.085976E-3
747.854233E-3
747.542953E-3
747.348404E-3
747.171593E-3
747.081184E-3
746.744156E-3
746.554184E-3
746.490669E-3
746.238899E-3
746.294403E-3
746.063805E-3
745.938492E-3
745.892143E-3
745.818901E-3
745.858955E-3
745.712471E-3
745.608902E-3
745.300484E-3
745.100784E-3
744.916534E-3
744.608688E-3
744.433594E-3
744.113731E-3
743.817329E-3
743.621063E-3
743.466568E-3
743.301201E-3
743.582153E-3
744.107437E-3
745.397186E-3
747.804451E-3
751.259422E-3
755.528641E-3
759.790993E-3
763.839912E-3
766.982460E-3
769.195747E-3
770.241165E-3
770.089531E-3
769.282722E-3
767.840767E-3
766.337585E-3
764.554024E-3
762.892914E-3
761.540222E-3
760.390663E-3
759.650230E-3
759.478569E-3
759.197044E-3
759.571838E-3
759.932899E-3
760.517693E-3
761.062431E-3
761.081886E-3
761.077881E-3
760.646439E-3
759.942055E-3
759.082031E-3
758.209991E-3
757.721329E-3
757.407188E-3
757.543373E-3
757.913017E-3
758.171654E-3
758.858299E-3
759.280586E-3
759.440231E-3
759.656525E-3
759.506035E-3
759.343529E-3
758.913231E-3
758.512688E-3
758.004570E-3
757.287598E-3
756.830978E-3
756.131172E-3
755.670547E-3
755.246544E-3
754.666901E-3
754.338455E-3
754.046631E-3
753.659821E-3
753.542519E-3
753.132248E-3
752.957726E-3
752.705383E-3
752.589798E-3
752.462196E-3
752.414703E-3
752.321434E-3
752.205276E-3
751.943779E-3
751.981544E-3
751.770973E-3
751.687431E-3
751.516342E-3
751.295471E-3
751.214790E-3
751.012230E-3
750.881195E-3
750.721550E-3
750.483513E-3
750.536728E-3
750.230598E-3
750.214577E-3
749.958229E-3
749.739647E-3
749.621773E-3
749.400902E-3
749.261856E-3
749.032974E-3
748.714256E-3
748.621559E-3
748.433876E-3
748.405838E-3
748.163795E-3
747.863960E-3
747.803307E-3
747.628212E-3
747.603607E-3
747.328377E-3
747.338676E-3
747.303772E-3
746.902657E-3
747.021675E-3
746.914101E-3
746.705246E-3
746.553612E-3
746.362495E-3
746.180534E-3
746.014023E-3
745.688438E-3
745.394325E-3
745.178032E-3
744.941711E-3
744.885063E-3
744.776344E-3
744.854736E-3
744.763184E-3
745.361137E-3
746.399689E-3
748.523140E-3
751.782417E-3
755.563545E-3
759.568977E-3
763.189888E-3
766.006851E-3
768.107414E-3
768.691635E-3
768.722534E-3
767.850494E-3
766.293526E-3
764.691925E-3
762.894058E-3
761.374283E-3
759.885979E-3
758.768463E-3
758.088112E-3
757.410049E-3
757.201195E-3
757.246971E-3
757.519913E-3
757.887268E-3
758.279800E-3
758.264351E-3
757.927895E-3
757.172585E-3
756.514549E-3
755.815887E-3
755.542374E-3
755.524063E-3
755.828476E-3
756.399536E-3
757.164574E-3
757.926178E-3
758.272934E-3
758.659172E-3
758.942986E-3
758.878899E-3
758.633995E-3
758.322716E-3
757.744789E-3
757.307625E-3
756.647301E-3
755.870819E-3
755.245399E-3
754.613686E-3
754.280090E-3
753.787994E-3
753.489304E-3
753.180313E-3
752.854156E-3
752.767754E-3
752.621841E-3
752.418137E-3
752.291679E-3
752.223015E-3
752.192688E-3
752.094269E-3
751.951790E-3
751.912308E-3
751.813316E-3
751.998711E-3
751.546097E-3
751.306343E-3
751.343536E-3
751.030540E-3
750.903511E-3
750.741005E-3
750.594521E-3
750.350189E-3
750.149918E-3
750.028038E-3
749.771690E-3
749.684143E-3
749.316788E-3
749.035835E-3
748.980904E-3
748.587227E-3
748.313141E-3
748.100281E-3
747.829628E-3
747.587585E-3
747.220802E-3
747.092628E-3
746.863174E-3
746.634293E-3
746.716690E-3
746.392822E-3
746.276665E-3
746.154213E-3
746.000862E-3
746.018600E-3
745.782280E-3
745.728493E-3
745.691872E-3
745.513344E-3
745.267868E-3
744.895935E-3
744.618988E-3
744.404411E-3
744.079399E-3
743.915749E-3
743.816757E-3
743.845940E-3
743.891716E-3
744.248772E-3
745.430946E-3
747.432518E-3
750.625992E-3
754.542732E-3
758.692932E-3
762.650299E-3
765.907288E-3
768.210983E-3
769.392586E-3
769.552231E-3
768.808365E-3
767.467117E-3
765.851212E-3
764.230156E-3
762.616539E-3
761.289597E-3
759.892845E-3
759.043694E-3
758.584213E-3
758.355331E-3
758.718109E-3
758.948135E-3
759.344101E-3
759.893417E-3
760.141754E-3
760.280800E-3
759.883118E-3
759.067726E-3
758.283234E-3
757.277870E-3
756.713676E-3
756.536293E-3
756.385231E-3
756.783485E-3
757.101631E-3
757.770538E-3
758.274078E-3
758.617401E-3
758.910942E-3
758.777618E-3
758.590508E-3
758.199120E-3
757.820320E-3
757.327080E-3
756.617546E-3
756.085396E-3
755.340385E-3
754.816818E-3
754.387093E-3
753.660393E-3
753.386307E-3
752.867317E-3
752.554321E-3
752.303696E-3
751.980400E-3
751.955795E-3
751.813316E-3
751.618195E-3
751.587868E-3
751.383018E-3
751.305771E-3
751.234818E-3
751.126671E-3
751.062584E-3
750.835419E-3
750.825691E-3
750.615692E-3
750.456619E-3
750.326729E-3
750.223732E-3
750.193405E-3
749.966240E-3
750.002861E-3
749.848366E-3
749.579430E-3
749.413490E-3
749.170303E-3
749.184036E-3
748.946571E-3
748.557472E-3
748.436165E-3
748.148918E-3
748.048210E-3
747.926903E-3
747.538948E-3
747.397614E-3
747.047997E-3
746.990204E-3
746.809387E-3
746.498108E-3
746.499825E-3
746.396828E-3
746.318436E-3
746.268654E-3
745.997429E-3
746.022034E-3
745.892715E-3
745.721626E-3
745.767975E-3
745.430374E-3
745.331383E-3
744.928551E-3
744.903946E-3
744.674492E-3
744.449615E-3
744.272804E-3
744.168663E-3
744.237328E-3
744.519424E-3
745.158005E-3
746.581650E-3
748.738861E-3
752.064514E-3
756.306839E-3
760.380363E-3
764.455605E-3
767.647362E-3
769.675255E-3
770.817375E-3
770.706940E-3
769.981384E-3
768.655014E-3
766.833687E-3
765.205193E-3
763.684845E-3
762.290955E-3
761.171722E-3
760.407829E-3
759.957504E-3
759.807014E-3
759.980392E-3
760.186386E-3
760.592651E-3
761.141968E-3
761.299324E-3
761.266708E-3
760.729408E-3
759.839630E-3
758.885765E-3
757.845497E-3
757.344818E-3
757.225800E-3
757.352829E-3
757.808876E-3
758.238602E-3
758.992195E-3
759.182739E-3
759.358978E-3
759.652519E-3
759.293175E-3
759.160995E-3
758.671761E-3
758.270073E-3
757.760239E-3
757.101631E-3
756.679916E-3
756.223297E-3
755.578423E-3
755.280876E-3
754.801369E-3
754.423714E-3
754.264641E-3
753.915024E-3
753.729057E-3
753.484726E-3
753.381729E-3
753.256416E-3
753.164291E-3
753.231812E-3
753.029251E-3
752.946854E-3
752.842140E-3
752.755165E-3
752.832413E-3
