Notes :


2023-11-04 ¿ÀÈÄ 6:41:48
Volts
Ch : LED 2,
566.686249E-3
566.495132E-3
566.313744E-3
566.242218E-3
566.015625E-3
565.928078E-3
565.872002E-3
565.841675E-3
565.833092E-3
565.639114E-3
565.624809E-3
565.172768E-3
564.828873E-3
564.506149E-3
564.293861E-3
564.169121E-3
564.010620E-3
563.675880E-3
563.424110E-3
563.080788E-3
562.748337E-3
562.207031E-3
561.912346E-3
561.878586E-3
561.771011E-3
561.855698E-3
562.088013E-3
562.642479E-3
564.010620E-3
565.956116E-3
568.662643E-3
571.569443E-3
574.798393E-3
577.657700E-3
579.901886E-3
581.592178E-3
582.247925E-3
582.096291E-3
581.366158E-3
580.112457E-3
578.613281E-3
577.091789E-3
575.775146E-3
574.765205E-3
573.956108E-3
573.453712E-3
573.171616E-3
573.095512E-3
573.204231E-3
573.239136E-3
573.209953E-3
572.938728E-3
572.388268E-3
571.700478E-3
570.785522E-3
570.041084E-3
569.507217E-3
569.337273E-3
569.446564E-3
569.753838E-3
570.307732E-3
570.880508E-3
571.316528E-3
571.672440E-3
571.849823E-3
571.780014E-3
571.493340E-3
570.978928E-3
570.437622E-3
569.708633E-3
569.115257E-3
568.507576E-3
568.013763E-3
567.681885E-3
567.387199E-3
567.255020E-3
567.025566E-3
566.817856E-3
566.647339E-3
566.403008E-3
566.330910E-3
566.138649E-3
565.916634E-3
565.836525E-3
565.701485E-3
565.809059E-3
565.784454E-3
565.711212E-3
565.640831E-3
565.357018E-3
565.236282E-3
565.023994E-3
564.863205E-3
564.811707E-3
564.843178E-3
564.886665E-3
564.829445E-3
564.832306E-3
564.811707E-3
564.615440E-3
564.470100E-3
564.247513E-3
564.099312E-3
563.975143E-3
563.608360E-3
563.257599E-3
562.941170E-3
562.660789E-3
562.377548E-3
562.034225E-3
561.869431E-3
561.890030E-3
561.925507E-3
562.084007E-3
562.470818E-3
563.723373E-3
565.732384E-3
568.223190E-3
571.476173E-3
574.804688E-3
578.159523E-3
580.906105E-3
582.749748E-3
583.885574E-3
584.010887E-3
583.376884E-3
582.194710E-3
580.758476E-3
579.412079E-3
577.995872E-3
577.042007E-3
576.214600E-3
575.774574E-3
575.579453E-3
575.528526E-3
575.844383E-3
576.105309E-3
576.458931E-3
576.690102E-3
576.633453E-3
576.262665E-3
575.411224E-3
574.433899E-3
573.596764E-3
572.832298E-3
572.390556E-3
572.247505E-3
572.404861E-3
572.800255E-3
573.000526E-3
573.465157E-3
573.843956E-3
574.000168E-3
574.041367E-3
573.558426E-3
573.239708E-3
572.720146E-3
572.111320E-3
571.722221E-3
571.048737E-3
570.744324E-3
570.300293E-3
569.960976E-3
569.563866E-3
569.107819E-3
568.694115E-3
568.282127E-3
567.970848E-3
567.837524E-3
567.606926E-3
567.479897E-3
567.463875E-3
567.364311E-3
567.352867E-3
567.251015E-3
567.148590E-3
566.951752E-3
566.801834E-3
566.842461E-3
566.694832E-3
566.691399E-3
566.719437E-3
566.700554E-3
566.678238E-3
566.500854E-3
566.471100E-3
566.407013E-3
566.195297E-3
566.229630E-3
565.901184E-3
565.722084E-3
565.434837E-3
565.180206E-3
564.761353E-3
564.264679E-3
563.982010E-3
563.718224E-3
563.420677E-3
563.212967E-3
563.031578E-3
563.059616E-3
563.148308E-3
563.294792E-3
563.875580E-3
565.188217E-3
567.462730E-3
570.360374E-3
573.896599E-3
577.603912E-3
581.037140E-3
583.632660E-3
585.313797E-3
585.933495E-3
585.680580E-3
584.667778E-3
583.215523E-3
581.490326E-3
579.855537E-3
578.678513E-3
577.588463E-3
577.027702E-3
576.508141E-3
576.271248E-3
576.107597E-3
575.979996E-3
576.127625E-3
576.302147E-3
576.243782E-3
576.081848E-3
575.470161E-3
574.664497E-3
573.812485E-3
572.818565E-3
572.210312E-3
571.755409E-3
571.756554E-3
571.974564E-3
572.299576E-3
572.644043E-3
572.955322E-3
573.325539E-3
573.349571E-3
573.175049E-3
572.918701E-3
572.303009E-3
571.810913E-3
571.231842E-3
570.715714E-3
570.296860E-3
569.729805E-3
569.265175E-3
568.742752E-3
568.273544E-3
568.035507E-3
567.734528E-3
567.422104E-3
567.246437E-3
567.055893E-3
567.037582E-3
566.738892E-3
566.654778E-3
566.572380E-3
566.461945E-3
566.409874E-3
566.198158E-3
566.205025E-3
566.121483E-3
566.029930E-3
566.084862E-3
566.004181E-3
565.919495E-3
565.797043E-3
565.709496E-3
565.678024E-3
565.585899E-3
565.522957E-3
565.498924E-3
565.257454E-3
565.092087E-3
564.823723E-3
564.618874E-3
564.267540E-3
563.871002E-3
563.594627E-3
563.213539E-3
563.063622E-3
562.755775E-3
562.494850E-3
562.500572E-3
562.399292E-3
562.427330E-3
562.414169E-3
562.554932E-3
563.421249E-3
564.913559E-3
567.228699E-3
570.193863E-3
573.442268E-3
576.798820E-3
579.355431E-3
581.405067E-3
582.653618E-3
582.682800E-3
582.091141E-3
580.958748E-3
579.614067E-3
578.156090E-3
576.777077E-3
575.710487E-3
574.873352E-3
574.406433E-3
574.116325E-3
574.057388E-3
574.259949E-3
574.569511E-3
574.701118E-3
574.744606E-3
574.389267E-3
573.994446E-3
572.952461E-3
572.004318E-3
571.299362E-3
570.761490E-3
570.711136E-3
570.892525E-3
571.301651E-3
571.813774E-3
572.368240E-3
572.797394E-3
573.111534E-3
573.050308E-3
572.865486E-3
572.412872E-3
571.938515E-3
571.316528E-3
570.774078E-3
570.211029E-3
569.575882E-3
569.159889E-3
568.630600E-3
568.294716E-3
567.873001E-3
567.521095E-3
567.222977E-3
566.985512E-3
566.782379E-3
566.856766E-3
566.691971E-3
566.751480E-3
566.638756E-3
566.512299E-3
566.477966E-3
566.321182E-3
566.242790E-3
566.142654E-3
566.106606E-3
566.127777E-3
566.030502E-3
566.207886E-3
566.248512E-3
566.314888E-3
566.197014E-3
566.019058E-3
565.974998E-3
565.704918E-3
565.464592E-3
565.323257E-3
565.015984E-3
564.752769E-3
564.288712E-3
563.997459E-3
563.775444E-3
563.412094E-3
563.272476E-3
563.061333E-3
563.069344E-3
563.221550E-3
563.418961E-3
564.201164E-3
565.533829E-3
567.593765E-3
570.443916E-3
573.567581E-3
576.957321E-3
579.806900E-3
582.177544E-3
583.724213E-3
584.272385E-3
584.155655E-3
583.156586E-3
581.950378E-3
580.674362E-3
579.230118E-3
578.122902E-3
577.274323E-3
576.725578E-3
576.491547E-3
576.448059E-3
576.555061E-3
576.826859E-3
577.082634E-3
577.280617E-3
577.127838E-3
576.698685E-3
575.818634E-3
574.844170E-3
573.772430E-3
572.829437E-3
572.571945E-3
572.475815E-3
572.573090E-3
573.029137E-3
573.390770E-3
573.913193E-3
574.221039E-3
574.303436E-3
574.386406E-3
574.076843E-3
573.678589E-3
573.276329E-3
572.587967E-3
572.161102E-3
571.585464E-3
571.020699E-3
570.510864E-3
570.134354E-3
569.777870E-3
569.290924E-3
568.962479E-3
568.634605E-3
568.426323E-3
568.309593E-3
568.068123E-3
568.010330E-3
567.876434E-3
567.788887E-3
567.798615E-3
567.695045E-3
567.595482E-3
567.454147E-3
567.363167E-3
567.407227E-3
567.206955E-3
567.132568E-3
567.131996E-3
567.098236E-3
567.117691E-3
566.994095E-3
566.977501E-3
566.996384E-3
566.805267E-3
566.778946E-3
566.552353E-3
566.302299E-3
566.034508E-3
565.722656E-3
565.460587E-3
564.969635E-3
564.816856E-3
564.472389E-3
564.159966E-3
563.929939E-3
563.588905E-3
563.681030E-3
563.686752E-3
563.842964E-3
564.121056E-3
564.821434E-3
566.345787E-3
568.611717E-3
571.534538E-3
574.814987E-3
578.057671E-3
581.138992E-3
583.486748E-3
584.852028E-3
585.409927E-3
584.995651E-3
584.143066E-3
582.885361E-3
581.413078E-3
580.133629E-3
578.963470E-3
578.141212E-3
577.654266E-3
577.452278E-3
577.447128E-3
577.736092E-3
578.141212E-3
578.516006E-3
578.710556E-3
578.555489E-3
577.909470E-3
576.963043E-3
575.824356E-3
574.758911E-3
573.874283E-3
573.272896E-3
573.198509E-3
573.270607E-3
573.564720E-3
573.904037E-3
574.245071E-3
574.554634E-3
574.635887E-3
574.564362E-3
574.344063E-3
573.916626E-3
573.441696E-3
572.959900E-3
572.353935E-3
571.922493E-3
571.370316E-3
570.902824E-3
570.339775E-3
569.763565E-3
569.493484E-3
569.134140E-3
568.874931E-3
568.553352E-3
568.321609E-3
568.266106E-3
568.085861E-3
567.996597E-3
567.792320E-3
567.610359E-3
567.633247E-3
567.376900E-3
567.427826E-3
567.279053E-3
567.176628E-3
567.105675E-3
567.006111E-3
566.935158E-3
566.801262E-3
566.528893E-3
566.457939E-3
566.294289E-3
566.358948E-3
566.202164E-3
566.023636E-3
565.976143E-3
565.667725E-3
565.653992E-3
565.418243E-3
565.176773E-3
564.953613E-3
564.708710E-3
564.536476E-3
564.201164E-3
563.847542E-3
563.617516E-3
563.219261E-3
563.021851E-3
562.779808E-3
562.504578E-3
562.481689E-3
562.403870E-3
562.601280E-3
562.992668E-3
563.682747E-3
565.155602E-3
567.353439E-3
570.264816E-3
573.592758E-3
576.886368E-3
579.763985E-3
581.953812E-3
583.219528E-3
583.561134E-3
583.008957E-3
581.942368E-3
580.416870E-3
578.850746E-3
577.313232E-3
576.116180E-3
575.289345E-3
574.754906E-3
574.651909E-3
574.758339E-3
574.964905E-3
575.208664E-3
575.515938E-3
575.588608E-3
575.486755E-3
574.928284E-3
573.986435E-3
572.950745E-3
572.162247E-3
571.504211E-3
571.175194E-3
571.294785E-3
571.653557E-3
572.134209E-3
572.599411E-3
572.917557E-3
573.361588E-3
573.328400E-3
573.188210E-3
572.801399E-3
572.228050E-3
571.787453E-3
571.261597E-3
570.692253E-3
570.105171E-3
569.608498E-3
569.273186E-3
568.837166E-3
568.474388E-3
568.090439E-3
567.748833E-3
567.576027E-3
567.306519E-3
567.280197E-3
567.134857E-3
567.045593E-3
567.065048E-3
566.879082E-3
566.778374E-3
566.615868E-3
566.479683E-3
566.429329E-3
566.344643E-3
566.315460E-3
566.127777E-3
566.066551E-3
566.143799E-3
566.015625E-3
565.978432E-3
565.933228E-3
565.811348E-3
565.838814E-3
565.683174E-3
565.645981E-3
565.474319E-3
565.137863E-3
565.026855E-3
564.839745E-3
564.550209E-3
564.233780E-3
563.837814E-3
563.626099E-3
563.246727E-3
562.934875E-3
562.541771E-3
562.294006E-3
562.406158E-3
562.326622E-3
562.401581E-3
562.665939E-3
563.228416E-3
564.370537E-3
566.282272E-3
569.019127E-3
572.026062E-3
575.248718E-3
578.387833E-3
580.799103E-3
582.522011E-3
583.277321E-3
583.154869E-3
582.486534E-3
581.172180E-3
579.725075E-3
578.241920E-3
576.858330E-3
575.826073E-3
575.107956E-3
574.673653E-3
574.578094E-3
574.591255E-3
574.960327E-3
575.372887E-3
575.633812E-3
575.596619E-3
575.002098E-3
574.433899E-3
573.379326E-3
572.455788E-3
571.680450E-3
571.223831E-3
571.101379E-3
571.287918E-3
571.591759E-3
571.994019E-3
572.385406E-3
572.862053E-3
573.070335E-3
573.015404E-3
572.821426E-3
572.438049E-3
572.043800E-3
571.404076E-3
570.858192E-3
570.302582E-3
569.663429E-3
569.168472E-3
568.708992E-3
568.260384E-3
567.852974E-3
567.309380E-3
567.083359E-3
566.757202E-3
566.635323E-3
566.536903E-3
566.485977E-3
566.382980E-3
566.247940E-3
566.112328E-3
565.940666E-3
565.735817E-3
565.718651E-3
565.635681E-3
565.631104E-3
565.668869E-3
565.497780E-3
565.541267E-3
565.304947E-3
565.231133E-3
565.094948E-3
564.901543E-3
564.695549E-3
564.557076E-3
564.379120E-3
564.316750E-3
564.128494E-3
564.091301E-3
563.983154E-3
564.059830E-3
563.946533E-3
563.698769E-3
563.575745E-3
563.316536E-3
563.176918E-3
562.944603E-3
562.621880E-3
562.478256E-3
562.109756E-3
562.013626E-3
561.956406E-3
561.722946E-3
561.413956E-3
561.080360E-3
561.130714E-3
561.237144E-3
561.393356E-3
562.285423E-3
563.800621E-3
566.258812E-3
569.432259E-3
572.851753E-3
576.309013E-3
579.312515E-3
581.552696E-3
583.026695E-3
583.491898E-3
583.226967E-3
582.279396E-3
580.972481E-3
579.661560E-3
578.071404E-3
576.758766E-3
575.562286E-3
574.889374E-3
574.536896E-3
574.480820E-3
574.755478E-3
575.122833E-3
575.553703E-3
575.879860E-3
575.957680E-3
575.831795E-3
575.235558E-3
574.452209E-3
573.385620E-3
572.292709E-3
571.456718E-3
570.972061E-3
570.780373E-3
570.962906E-3
571.090508E-3
571.426964E-3
571.878433E-3
572.103310E-3
572.233772E-3
572.153091E-3
571.838951E-3
571.315956E-3
570.733452E-3
570.210457E-3
569.571304E-3
569.087791E-3
568.439484E-3
567.955399E-3
567.554855E-3
567.081642E-3
566.740608E-3
566.447639E-3
565.973854E-3
565.794754E-3
565.560150E-3
565.530968E-3
565.203667E-3
564.978790E-3
564.834023E-3
564.730453E-3
564.668083E-3
564.495277E-3
564.485550E-3
564.432335E-3
564.336205E-3
564.196587E-3
564.048386E-3
564.003181E-3
563.881874E-3
563.648415E-3
563.474464E-3
563.335419E-3
563.156319E-3
563.105965E-3
562.841606E-3
562.744331E-3
562.494850E-3
562.363243E-3
562.227058E-3
562.059975E-3
561.851692E-3
561.684036E-3
561.616516E-3
561.452293E-3
561.184502E-3
561.036873E-3
560.829735E-3
560.585976E-3
560.313034E-3
559.963989E-3
559.737396E-3
559.446144E-3
559.073067E-3
558.891678E-3
558.686256E-3
558.701134E-3
558.864784E-3
558.939171E-3
559.514236E-3
560.618019E-3
562.737465E-3
565.528679E-3
568.811989E-3
572.103882E-3
575.063324E-3
577.688026E-3
579.328537E-3
579.930496E-3
579.678154E-3
578.603554E-3
577.183914E-3
575.615501E-3
574.031067E-3
572.712135E-3
571.442413E-3
570.780373E-3
570.338058E-3
570.261383E-3
570.490265E-3
570.661926E-3
571.043015E-3
571.221542E-3
571.379471E-3
571.298790E-3
570.706558E-3
569.985008E-3
569.033432E-3
568.293571E-3
567.834663E-3
567.574883E-3
567.709351E-3
568.226051E-3
568.642616E-3
569.160461E-3
569.290352E-3
569.502640E-3
569.646263E-3
569.423676E-3
569.120407E-3
568.528175E-3
568.097305E-3
567.562866E-3
567.021561E-3
566.594696E-3
566.021347E-3
565.504074E-3
565.036011E-3
564.545059E-3
564.317894E-3
563.815498E-3
563.559151E-3
563.335991E-3
563.230133E-3
563.165474E-3
563.060188E-3
562.993240E-3
563.061905E-3
562.843895E-3
562.736893E-3
562.644196E-3
562.612152E-3
562.433052E-3
562.401581E-3
562.386703E-3
562.287140E-3
562.270546E-3
562.219620E-3
562.115479E-3
562.007904E-3
561.780167E-3
561.673164E-3
561.637115E-3
561.506653E-3
561.499214E-3
561.257172E-3
561.164474E-3
561.091232E-3
560.880089E-3
560.797119E-3
560.607719E-3
560.415459E-3
560.119629E-3
559.741402E-3
559.361458E-3
559.066200E-3
558.846474E-3
558.535194E-3
558.151245E-3
558.098030E-3
557.988739E-3
558.112335E-3
558.401299E-3
558.859062E-3
559.987450E-3
561.836243E-3
564.600563E-3
567.815208E-3
571.084213E-3
574.309731E-3
576.741028E-3
578.502846E-3
579.406357E-3
579.379463E-3
578.618431E-3
577.212524E-3
575.729942E-3
574.084282E-3
572.653198E-3
571.555138E-3
570.620728E-3
570.124626E-3
569.995308E-3
569.955254E-3
570.280838E-3
570.589256E-3
570.961761E-3
571.095657E-3
570.924568E-3
570.565224E-3
569.780731E-3
569.013405E-3
568.250084E-3
567.502785E-3
567.297935E-3
567.313385E-3
567.572594E-3
567.870712E-3
568.196869E-3
568.569946E-3
568.745613E-3
568.913269E-3
568.782806E-3
568.559074E-3
568.188286E-3
567.711639E-3
567.226982E-3
566.677666E-3
566.054535E-3
565.508080E-3
564.971924E-3
564.474678E-3
563.981438E-3
563.643265E-3
563.227272E-3
562.796974E-3
562.672234E-3
562.453079E-3
562.356949E-3
562.400436E-3
562.237358E-3
562.144089E-3
562.114334E-3
562.088013E-3
561.926079E-3
561.760139E-3
561.882591E-3
561.722946E-3
561.629105E-3
561.660004E-3
561.645126E-3
561.608505E-3
561.471748E-3
561.236572E-3
561.166763E-3
560.832596E-3
560.761070E-3
560.704422E-3
560.464096E-3
560.425186E-3
560.255241E-3
560.246658E-3
560.234642E-3
560.012054E-3
559.908485E-3
559.631538E-3
559.495926E-3
559.306526E-3
559.080505E-3
