Notes :


2023-11-13 ¿ÀÀü 12:45:19
Volts
Ch : LED 2,
931.066132E-3
930.823517E-3
930.733681E-3
930.384064E-3
930.311966E-3
930.193520E-3
930.116272E-3
930.078506E-3
929.956627E-3
929.905128E-3
929.871941E-3
929.823875E-3
929.775810E-3
929.536057E-3
929.572105E-3
929.451942E-3
929.393578E-3
929.477119E-3
929.337502E-3
929.358101E-3
929.392433E-3
929.164124E-3
929.149246E-3
929.054260E-3
928.927803E-3
928.914070E-3
928.742981E-3
928.695488E-3
928.553581E-3
928.513527E-3
928.317833E-3
928.261185E-3
928.206825E-3
928.019714E-3
927.958488E-3
927.824593E-3
927.670670E-3
927.439499E-3
927.222633E-3
926.931953E-3
926.642990E-3
926.421547E-3
926.306534E-3
925.931168E-3
925.760078E-3
925.499153E-3
925.751495E-3
926.049042E-3
926.746559E-3
928.308678E-3
930.580902E-3
933.365822E-3
936.275482E-3
938.941956E-3
941.249657E-3
942.857552E-3
943.663788E-3
944.062042E-3
943.944740E-3
943.513870E-3
942.875862E-3
941.907120E-3
941.156960E-3
940.387344E-3
939.673233E-3
938.921928E-3
938.481903E-3
938.129997E-3
937.783813E-3
937.608147E-3
937.781525E-3
937.810707E-3
937.730026E-3
937.687111E-3
937.612724E-3
937.259674E-3
936.792755E-3
936.370468E-3
935.987663E-3
935.858917E-3
935.717010E-3
935.696983E-3
936.034012E-3
936.282349E-3
936.498070E-3
936.682320E-3
936.588478E-3
936.731529E-3
936.390495E-3
936.321831E-3
936.031723E-3
935.561371E-3
935.212898E-3
934.689331E-3
934.257317E-3
933.876801E-3
933.446503E-3
933.190727E-3
932.783890E-3
932.604218E-3
932.374763E-3
932.119560E-3
931.892967E-3
931.645775E-3
931.681252E-3
931.471825E-3
931.120491E-3
931.101036E-3
930.993462E-3
930.860138E-3
930.820656E-3
930.568886E-3
930.590057E-3
930.308533E-3
930.163193E-3
930.010414E-3
929.865646E-3
929.792404E-3
929.613876E-3
929.518890E-3
929.453659E-3
929.299164E-3
929.210472E-3
929.073715E-3
929.203033E-3
929.047394E-3
928.825378E-3
928.685760E-3
928.552437E-3
928.369904E-3
928.047180E-3
927.680397E-3
927.576828E-3
927.202606E-3
926.911926E-3
926.656151E-3
926.321411E-3
926.073074E-3
925.843048E-3
925.598717E-3
925.471115E-3
925.528908E-3
926.184082E-3
927.436066E-3
929.438782E-3
931.825447E-3
934.549141E-3
937.237930E-3
939.530754E-3
941.377258E-3
942.506790E-3
943.100166E-3
943.236351E-3
942.748833E-3
942.110825E-3
941.299438E-3
940.365601E-3
939.632607E-3
938.626099E-3
937.977791E-3
937.563515E-3
937.077141E-3
936.886597E-3
936.664581E-3
936.745834E-3
936.761856E-3
936.708641E-3
936.601067E-3
936.486626E-3
936.217117E-3
935.632896E-3
934.973145E-3
934.687042E-3
934.317398E-3
934.213257E-3
934.194374E-3
934.387779E-3
934.595490E-3
934.847832E-3
934.940529E-3
935.054970E-3
935.135651E-3
935.119629E-3
934.906197E-3
934.716225E-3
934.335136E-3
933.917427E-3
933.525467E-3
933.170128E-3
932.696915E-3
932.228279E-3
931.825447E-3
931.633186E-3
931.305885E-3
930.978012E-3
930.751419E-3
930.413818E-3
930.389214E-3
930.050468E-3
929.748917E-3
929.791260E-3
929.330635E-3
929.363251E-3
929.211044E-3
929.055977E-3
929.012489E-3
928.694344E-3
928.537560E-3
928.517532E-3
928.250885E-3
928.208542E-3
927.861214E-3
927.807999E-3
927.660942E-3
927.511024E-3
927.386284E-3
927.083588E-3
926.950836E-3
926.593781E-3
926.560593E-3
926.330566E-3
925.956917E-3
925.956345E-3
925.756645E-3
925.610161E-3
925.552940E-3
925.215340E-3
925.039673E-3
924.767876E-3
924.541855E-3
924.337578E-3
923.927307E-3
923.692703E-3
923.314476E-3
922.865295E-3
922.463036E-3
921.982956E-3
921.530342E-3
921.269989E-3
921.158409E-3
921.176720E-3
921.220207E-3
922.148323E-3
923.795700E-3
926.332855E-3
929.205322E-3
932.162476E-3
934.960556E-3
937.090302E-3
938.602066E-3
939.391708E-3
939.474106E-3
939.354515E-3
938.830948E-3
937.769508E-3
936.897469E-3
935.699844E-3
934.870720E-3
933.986664E-3
933.397865E-3
932.842827E-3
932.478905E-3
932.459450E-3
932.458878E-3
932.485771E-3
932.577896E-3
932.637978E-3
932.670021E-3
932.415390E-3
932.083511E-3
931.529045E-3
930.803490E-3
930.337715E-3
929.989815E-3
929.759216E-3
929.829025E-3
929.897118E-3
930.075645E-3
930.184364E-3
930.301666E-3
930.468750E-3
930.505943E-3
930.433846E-3
930.341721E-3
929.937172E-3
929.718018E-3
929.233932E-3
929.017639E-3
928.589630E-3
928.286362E-3
927.970505E-3
927.568817E-3
927.220917E-3
926.915359E-3
926.699066E-3
926.497078E-3
926.185799E-3
926.084518E-3
925.895691E-3
925.606728E-3
925.559235E-3
925.208473E-3
925.191307E-3
924.957275E-3
924.785042E-3
924.746704E-3
924.423981E-3
924.335861E-3
924.121284E-3
923.903847E-3
923.834610E-3
923.553658E-3
923.453522E-3
923.278999E-3
923.149681E-3
922.978592E-3
922.741699E-3
922.472191E-3
922.386932E-3
922.148895E-3
921.924019E-3
921.638489E-3
921.448517E-3
921.176720E-3
920.922089E-3
920.695496E-3
920.462036E-3
920.353317E-3
919.929314E-3
919.838905E-3
919.508743E-3
919.052696E-3
918.783188E-3
918.367767E-3
917.994118E-3
917.671967E-3
917.186737E-3
916.771317E-3
916.478920E-3
915.975380E-3
915.789986E-3
915.382576E-3
915.182877E-3
915.099335E-3
915.369415E-3
916.270065E-3
917.970657E-3
920.622826E-3
923.576546E-3
926.866722E-3
929.994965E-3
932.323837E-3
934.047890E-3
934.859276E-3
934.999466E-3
934.794044E-3
934.041023E-3
932.887459E-3
931.711006E-3
930.471039E-3
929.484558E-3
928.574181E-3
927.884674E-3
927.316475E-3
926.902199E-3
926.881027E-3
927.025795E-3
927.357674E-3
927.551651E-3
927.664948E-3
927.794266E-3
927.345657E-3
926.861572E-3
926.248169E-3
925.662804E-3
925.182152E-3
925.092888E-3
925.189018E-3
925.334358E-3
925.487137E-3
925.821304E-3
926.006126E-3
926.431274E-3
926.303673E-3
926.299095E-3
926.235580E-3
925.787544E-3
925.311470E-3
924.819374E-3
924.342155E-3
923.986816E-3
923.261833E-3
922.778893E-3
922.203255E-3
921.705437E-3
921.283150E-3
920.746994E-3
920.468330E-3
920.099831E-3
919.717026E-3
919.568825E-3
919.200897E-3
919.071007E-3
918.937111E-3
918.592644E-3
918.463898E-3
918.228149E-3
918.048477E-3
917.782402E-3
917.539215E-3
917.439651E-3
917.036247E-3
917.026520E-3
916.975021E-3
916.808510E-3
916.702652E-3
916.617966E-3
916.544151E-3
916.339302E-3
916.020584E-3
915.781975E-3
915.637207E-3
915.448952E-3
915.262413E-3
915.014648E-3
914.875603E-3
914.547157E-3
914.283943E-3
914.073944E-3
913.807869E-3
913.593292E-3
913.244820E-3
912.882614E-3
912.606812E-3
912.153625E-3
911.779404E-3
911.323929E-3
910.941696E-3
910.354042E-3
910.031891E-3
909.651375E-3
909.179306E-3
909.092331E-3
908.972168E-3
909.234810E-3
910.636711E-3
912.532425E-3
915.145683E-3
918.463326E-3
921.606445E-3
924.623108E-3
926.526833E-3
927.899551E-3
928.749275E-3
928.935242E-3
928.571892E-3
927.718163E-3
926.762581E-3
925.768089E-3
924.449730E-3
923.395157E-3
922.413826E-3
921.671677E-3
921.223068E-3
920.815659E-3
920.682907E-3
920.538712E-3
920.599365E-3
920.761871E-3
920.609665E-3
920.508385E-3
920.018005E-3
919.573402E-3
918.887329E-3
918.214989E-3
917.855072E-3
917.564392E-3
917.623329E-3
917.634201E-3
917.746925E-3
918.010139E-3
918.077660E-3
918.099403E-3
918.053055E-3
917.939758E-3
917.717743E-3
917.308044E-3
916.949272E-3
916.371346E-3
915.900421E-3
915.339088E-3
914.632988E-3
914.031029E-3
913.577843E-3
912.985039E-3
912.675476E-3
912.159920E-3
911.636925E-3
911.449814E-3
911.102486E-3
910.996628E-3
910.670471E-3
910.577202E-3
910.399818E-3
910.083389E-3
910.038757E-3
909.717751E-3
909.506035E-3
909.482574E-3
909.294319E-3
909.077454E-3
909.007645E-3
908.955574E-3
908.834267E-3
908.715820E-3
908.561897E-3
908.484077E-3
908.248329E-3
908.034325E-3
907.743073E-3
907.578278E-3
907.427788E-3
907.090759E-3
906.871033E-3
906.611252E-3
906.256485E-3
905.974388E-3
905.722618E-3
905.395317E-3
905.079460E-3
904.929543E-3
904.710960E-3
904.537582E-3
904.440880E-3
904.168510E-3
903.992271E-3
903.858948E-3
903.587723E-3
903.299904E-3
903.016663E-3
903.080177E-3
902.564049E-3
902.201843E-3
901.919746E-3
901.563263E-3
901.321220E-3
901.056862E-3
900.839424E-3
900.896645E-3
901.183319E-3
902.568054E-3
904.695511E-3
907.896423E-3
911.758232E-3
915.621185E-3
918.925667E-3
921.498299E-3
923.108482E-3
923.933029E-3
924.249458E-3
924.131584E-3
923.579407E-3
922.715950E-3
921.613312E-3
920.538139E-3
919.453239E-3
918.622971E-3
917.940331E-3
917.430496E-3
917.151260E-3
917.150116E-3
917.037392E-3
917.115784E-3
917.329216E-3
917.479134E-3
917.631912E-3
917.354965E-3
917.069435E-3
916.628265E-3
915.982246E-3
915.359116E-3
914.872169E-3
914.521408E-3
914.499092E-3
914.495659E-3
914.711380E-3
914.873886E-3
915.092468E-3
915.237236E-3
915.285301E-3
915.297890E-3
915.113640E-3
914.850426E-3
914.504242E-3
914.036179E-3
913.486290E-3
913.051987E-3
912.525558E-3
912.041473E-3
911.482430E-3
911.028671E-3
910.628700E-3
910.219574E-3
910.098267E-3
909.683990E-3
909.642792E-3
909.304047E-3
908.994484E-3
908.785057E-3
908.680344E-3
908.401108E-3
908.300400E-3
908.078957E-3
908.014870E-3
907.840919E-3
907.867241E-3
907.788277E-3
907.525635E-3
907.416916E-3
907.165146E-3
907.245827E-3
907.106209E-3
906.784630E-3
906.794357E-3
906.742859E-3
906.558037E-3
906.421852E-3
906.290245E-3
906.206703E-3
905.812454E-3
905.566978E-3
905.262566E-3
904.948425E-3
904.781342E-3
904.468346E-3
904.282951E-3
903.923035E-3
903.615189E-3
903.441238E-3
903.141403E-3
903.112793E-3
902.906227E-3
902.732849E-3
902.723122E-3
902.588654E-3
902.386665E-3
902.221870E-3
901.920891E-3
901.744652E-3
901.423073E-3
901.211357E-3
900.880051E-3
900.619698E-3
900.492668E-3
900.005722E-3
899.899864E-3
899.845505E-3
899.778557E-3
900.608253E-3
902.125168E-3
904.658318E-3
908.014870E-3
912.001991E-3
915.682411E-3
918.746567E-3
921.133804E-3
922.473907E-3
923.066139E-3
923.186874E-3
922.708511E-3
921.936035E-3
921.198463E-3
920.343018E-3
919.305038E-3
918.192101E-3
917.613602E-3
917.267990E-3
916.760445E-3
916.663742E-3
916.155052E-3
915.971375E-3
915.495300E-3
914.827538E-3
914.210701E-3
913.408470E-3
912.466049E-3
911.363983E-3
910.429573E-3
909.627342E-3
908.747292E-3
908.099556E-3
907.650948E-3
907.205200E-3
907.031250E-3
906.900787E-3
906.733131E-3
906.531715E-3
906.377220E-3
906.229591E-3
905.974388E-3
905.609322E-3
905.269432E-3
904.580498E-3
904.013443E-3
903.283882E-3
902.682495E-3
902.271652E-3
901.645660E-3
901.047707E-3
900.383377E-3
899.958801E-3
899.494743E-3
899.086761E-3
898.865891E-3
898.401260E-3
898.146057E-3
897.920609E-3
897.609901E-3
897.601891E-3
897.323799E-3
897.152710E-3
896.947289E-3
896.761894E-3
896.605110E-3
896.366501E-3
896.345901E-3
896.207428E-3
895.939636E-3
896.027756E-3
895.720482E-3
895.594597E-3
895.498466E-3
895.211220E-3
895.186043E-3
894.962883E-3
894.816399E-3
894.584084E-3
894.327736E-3
894.271660E-3
893.888283E-3
893.692017E-3
893.313789E-3
893.104362E-3
892.980766E-3
892.621994E-3
892.486954E-3
892.376518E-3
892.058372E-3
891.997147E-3
891.836357E-3
891.732216E-3
891.584015E-3
891.368294E-3
891.372871E-3
891.107941E-3
890.958595E-3
890.830421E-3
890.568924E-3
890.428162E-3
890.052223E-3
889.847374E-3
889.589882E-3
889.316940E-3
889.190483E-3
888.936424E-3
888.920403E-3
889.072037E-3
890.222168E-3
892.383957E-3
895.282173E-3
898.908234E-3
902.878189E-3
906.099129E-3
908.847427E-3
910.480499E-3
911.390877E-3
911.884689E-3
911.781693E-3
911.247826E-3
910.419273E-3
909.437943E-3
908.251190E-3
907.083893E-3
906.033897E-3
905.010796E-3
904.356766E-3
903.868675E-3
903.427505E-3
903.492165E-3
903.449249E-3
903.545952E-3
903.571129E-3
903.446388E-3
903.343964E-3
902.766037E-3
902.202988E-3
901.697731E-3
901.363564E-3
901.320648E-3
901.365852E-3
901.552963E-3
901.830482E-3
902.297974E-3
902.672768E-3
902.718544E-3
902.865028E-3
902.946281E-3
902.798080E-3
902.609825E-3
902.324867E-3
901.784134E-3
901.283455E-3
900.904655E-3
900.296402E-3
899.732780E-3
899.200058E-3
898.745155E-3
898.271370E-3
897.739220E-3
897.414207E-3
897.074318E-3
896.820259E-3
896.686363E-3
896.514702E-3
896.270370E-3
896.016312E-3
895.975685E-3
895.761108E-3
895.697594E-3
895.524788E-3
895.476723E-3
895.394325E-3
895.236969E-3
895.184898E-3
895.215225E-3
894.985199E-3
895.073891E-3
894.842720E-3
894.775772E-3
894.607544E-3
894.411278E-3
894.417572E-3
894.184685E-3
894.128609E-3
893.879700E-3
893.559265E-3
893.584442E-3
893.461418E-3
893.234825E-3
893.043709E-3
892.877197E-3
892.747307E-3
892.495537E-3
892.379379E-3
892.430878E-3
892.262650E-3
892.077255E-3
891.839218E-3
891.801453E-3
891.588593E-3
891.367149E-3
891.152000E-3
890.897369E-3
890.706825E-3
890.393257E-3
890.258217E-3
889.916611E-3
889.558983E-3
889.411926E-3
889.375877E-3
889.554977E-3
890.441895E-3
892.092133E-3
894.909096E-3
898.468208E-3
902.297401E-3
905.961800E-3
908.777618E-3
910.971451E-3
912.093544E-3
912.761879E-3
912.926102E-3
912.524986E-3
912.017441E-3
911.300468E-3
910.351181E-3
909.172440E-3
908.155632E-3
907.247543E-3
906.451035E-3
905.977821E-3
905.756378E-3
905.592728E-3
905.683708E-3
905.937767E-3
905.997276E-3
906.198692E-3
905.924034E-3
905.807877E-3
905.382729E-3
904.903793E-3
904.305267E-3
903.854942E-3
903.636360E-3
903.526497E-3
903.658676E-3
903.853226E-3
904.107857E-3
904.354477E-3
904.490089E-3
904.646873E-3
904.679489E-3
904.594231E-3
904.422569E-3
904.108429E-3
903.627777E-3
903.343391E-3
902.910233E-3
902.521133E-3
901.918030E-3
901.452827E-3
901.049995E-3
900.588226E-3
900.183678E-3
899.846649E-3
899.524498E-3
899.196053E-3
898.930550E-3
898.830414E-3
898.665619E-3
898.449898E-3
898.380661E-3
898.151779E-3
898.032761E-3
897.872543E-3
897.624779E-3
897.655678E-3
897.422791E-3
897.317505E-3
897.300339E-3
897.114372E-3
896.991920E-3
896.760750E-3
896.768188E-3
896.677208E-3
896.614838E-3
896.364212E-3
896.134186E-3
896.092415E-3
895.826340E-3
895.726776E-3
895.595169E-3
895.339966E-3
895.314789E-3
895.076180E-3
894.865036E-3
894.755173E-3
894.494247E-3
894.534874E-3
894.376373E-3
894.248772E-3
894.042778E-3
893.939781E-3
893.833923E-3
893.631935E-3
893.370438E-3
893.223953E-3
892.926407E-3
892.699242E-3
892.417145E-3
892.182541E-3
892.004585E-3
891.645813E-3
891.561127E-3
891.463280E-3
891.572571E-3
892.311859E-3
893.815613E-3
896.373367E-3
899.761963E-3
903.443527E-3
907.137108E-3
910.213852E-3
912.329865E-3
913.655663E-3
914.429855E-3
914.558029E-3
914.367485E-3
913.884544E-3
912.940979E-3
911.848068E-3
910.918808E-3
909.883690E-3
909.031105E-3
908.342743E-3
907.788277E-3
907.557678E-3
907.421494E-3
907.532501E-3
907.569695E-3
907.601738E-3
907.867813E-3
907.753372E-3
907.494164E-3
907.018661E-3
906.521416E-3
906.075668E-3
905.576706E-3
905.518913E-3
905.451393E-3
905.683136E-3
906.004143E-3
906.194687E-3
906.562614E-3
906.797218E-3
906.826973E-3
906.887627E-3
906.698799E-3
906.500816E-3
906.373787E-3
905.818748E-3
905.394745E-3
904.839134E-3
904.460907E-3
