Notes :


2023-11-13 ¿ÀÀü 12:29:42
Volts
Ch : LED 2,
904.526711E-3
903.936195E-3
903.595161E-3
903.309059E-3
903.082466E-3
902.641869E-3
902.341461E-3
902.129745E-3
901.756668E-3
901.543808E-3
900.912666E-3
901.110649E-3
901.075172E-3
900.861168E-3
900.507545E-3
900.272942E-3
900.254631E-3
899.977684E-3
899.718475E-3
899.170876E-3
899.296188E-3
898.939133E-3
899.108505E-3
899.072456E-3
899.006081E-3
898.895073E-3
898.874474E-3
898.804092E-3
898.615265E-3
898.566628E-3
898.438454E-3
898.351479E-3
898.226166E-3
897.800446E-3
898.108864E-3
897.927475E-3
897.870827E-3
896.660042E-3
897.256279E-3
897.310066E-3
897.214508E-3
897.156715E-3
896.863174E-3
896.692657E-3
896.470642E-3
896.237755E-3
895.763397E-3
895.868683E-3
895.906448E-3
895.916748E-3
896.019173E-3
896.898651E-3
898.381805E-3
900.703239E-3
903.596306E-3
906.220436E-3
909.285736E-3
911.435509E-3
912.763596E-3
913.589859E-3
913.619614E-3
913.388443E-3
913.006783E-3
912.199402E-3
911.265564E-3
910.208130E-3
909.582138E-3
908.794212E-3
908.145905E-3
907.706451E-3
907.379723E-3
907.010078E-3
907.292175E-3
907.406044E-3
907.649803E-3
907.539368E-3
907.309341E-3
906.916809E-3
906.422997E-3
905.913162E-3
905.077171E-3
904.986763E-3
904.759026E-3
904.960442E-3
905.148697E-3
905.294609E-3
905.654526E-3
905.877686E-3
905.933189E-3
906.129456E-3
905.926895E-3
905.893135E-3
905.476570E-3
905.013084E-3
904.663467E-3
904.376221E-3
904.045486E-3
903.598022E-3
903.080750E-3
902.849579E-3
902.491379E-3
902.309990E-3
902.057076E-3
901.945496E-3
901.759529E-3
901.330376E-3
901.325226E-3
900.581932E-3
900.712967E-3
900.655174E-3
900.551605E-3
900.666618E-3
900.593376E-3
900.405693E-3
900.180244E-3
899.964523E-3
900.205994E-3
899.974251E-3
899.745941E-3
899.714470E-3
899.582863E-3
899.586868E-3
899.596024E-3
899.372864E-3
899.391174E-3
899.198914E-3
899.147415E-3
899.135399E-3
898.810387E-3
898.761749E-3
898.481369E-3
898.382378E-3
898.298264E-3
897.621346E-3
897.466278E-3
897.146988E-3
896.954155E-3
896.675491E-3
896.233177E-3
896.159935E-3
896.057510E-3
896.197128E-3
896.302986E-3
897.180176E-3
898.866463E-3
901.151276E-3
904.076958E-3
906.875610E-3
909.182739E-3
910.990334E-3
912.298393E-3
912.767029E-3
912.787628E-3
912.421989E-3
912.083817E-3
911.201477E-3
910.363197E-3
909.461403E-3
908.609390E-3
908.159637E-3
907.574844E-3
907.233810E-3
907.123375E-3
906.983757E-3
907.070732E-3
906.983757E-3
906.978035E-3
907.032394E-3
906.636429E-3
906.171227E-3
905.603600E-3
905.013084E-3
904.676056E-3
904.599953E-3
904.361916E-3
904.302406E-3
904.530144E-3
904.843140E-3
904.926109E-3
905.113792E-3
905.030823E-3
905.189323E-3
905.027962E-3
904.816818E-3
904.522133E-3
904.091835E-3
903.774261E-3
903.466415E-3
903.055000E-3
902.733994E-3
902.217865E-3
901.921463E-3
901.522636E-3
901.334381E-3
901.181602E-3
900.733566E-3
900.600243E-3
900.369072E-3
900.250053E-3
900.132179E-3
900.038910E-3
899.918175E-3
899.791718E-3
899.689293E-3
899.688721E-3
899.460983E-3
899.360275E-3
899.227524E-3
898.925400E-3
898.987770E-3
898.835564E-3
898.816109E-3
898.687935E-3
898.491096E-3
898.517418E-3
898.218727E-3
898.206711E-3
898.136330E-3
897.996712E-3
897.932625E-3
897.730064E-3
897.799873E-3
897.606468E-3
897.403908E-3
897.395325E-3
897.164154E-3
896.925545E-3
896.712685E-3
896.488380E-3
896.380234E-3
896.181679E-3
895.896721E-3
895.798302E-3
895.422363E-3
894.781494E-3
894.807243E-3
895.013809E-3
895.419502E-3
896.376801E-3
898.374939E-3
900.838852E-3
903.881264E-3
906.928825E-3
909.144402E-3
911.132812E-3
912.375069E-3
912.795639E-3
912.981033E-3
912.570190E-3
912.036324E-3
911.309052E-3
910.544014E-3
909.580994E-3
908.875465E-3
908.417130E-3
907.983398E-3
907.736778E-3
907.755089E-3
907.715034E-3
907.858658E-3
907.884407E-3
907.905579E-3
908.052635E-3
907.799721E-3
907.681274E-3
907.031250E-3
906.179237E-3
905.675697E-3
905.257988E-3
904.949570E-3
904.850578E-3
905.034828E-3
905.113220E-3
905.203056E-3
905.512619E-3
905.605316E-3
905.553246E-3
905.381012E-3
905.206490E-3
905.206490E-3
904.925537E-3
904.487228E-3
904.246330E-3
903.800583E-3
903.480148E-3
903.105927E-3
902.906227E-3
902.533150E-3
902.143478E-3
902.055931E-3
901.729202E-3
901.574135E-3
901.444817E-3
900.981331E-3
901.013947E-3
901.166725E-3
900.742149E-3
900.617981E-3
900.353050E-3
900.232315E-3
900.275803E-3
900.102997E-3
899.230957E-3
899.493027E-3
899.797440E-3
899.716187E-3
899.470711E-3
899.439812E-3
899.225235E-3
899.162292E-3
899.104500E-3
898.389816E-3
898.665619E-3
898.678207E-3
898.663902E-3
898.513985E-3
898.435593E-3
898.330879E-3
898.169518E-3
898.261642E-3
898.469353E-3
898.062515E-3
897.873116E-3
897.730637E-3
897.585869E-3
897.348976E-3
897.154427E-3
896.479797E-3
896.426582E-3
896.316719E-3
896.028328E-3
895.767403E-3
895.730782E-3
895.515633E-3
895.499611E-3
895.416641E-3
895.682716E-3
896.642876E-3
898.138618E-3
900.600815E-3
903.423500E-3
906.160355E-3
908.752441E-3
910.469627E-3
911.781120E-3
912.496948E-3
912.714958E-3
912.288094E-3
911.705017E-3
911.142540E-3
910.159492E-3
909.407043E-3
908.725548E-3
908.087540E-3
907.618904E-3
907.458687E-3
907.296181E-3
907.230377E-3
907.329369E-3
907.491302E-3
907.582283E-3
907.549095E-3
907.406616E-3
907.143402E-3
906.527710E-3
905.763817E-3
905.258560E-3
904.943275E-3
904.729843E-3
904.922676E-3
905.085182E-3
905.203056E-3
905.386162E-3
905.490303E-3
905.604744E-3
905.565262E-3
905.467987E-3
905.244255E-3
904.878044E-3
904.491234E-3
904.162216E-3
903.773117E-3
903.531647E-3
903.128815E-3
902.859879E-3
902.550888E-3
902.203560E-3
902.003860E-3
901.514626E-3
901.449966E-3
901.247406E-3
900.957298E-3
900.914383E-3
900.646591E-3
900.769615E-3
900.548172E-3
900.288963E-3
899.805450E-3
899.881554E-3
900.002861E-3
899.866104E-3
899.611473E-3
899.716187E-3
899.367142E-3
899.401474E-3
899.323082E-3
899.371147E-3
899.195480E-3
899.026108E-3
898.854446E-3
898.692513E-3
898.635864E-3
898.587227E-3
898.388672E-3
898.345184E-3
898.456192E-3
898.191261E-3
898.116875E-3
897.822189E-3
897.661972E-3
897.458267E-3
897.217369E-3
896.963882E-3
896.592522E-3
895.998573E-3
896.018600E-3
895.877838E-3
895.676994E-3
895.398903E-3
895.332527E-3
895.368004E-3
895.738792E-3
896.875191E-3
898.019600E-3
900.605392E-3
903.456116E-3
906.045341E-3
908.624268E-3
910.162926E-3
911.236382E-3
911.794853E-3
911.804008E-3
911.506462E-3
910.857010E-3
910.269356E-3
909.530067E-3
908.597946E-3
908.045197E-3
907.392311E-3
906.614685E-3
906.635857E-3
906.543732E-3
906.534004E-3
906.528854E-3
906.628990E-3
906.587791E-3
906.505394E-3
906.345177E-3
905.697441E-3
905.138397E-3
904.455185E-3
903.972244E-3
903.703880E-3
903.497314E-3
903.590012E-3
903.810883E-3
904.075813E-3
904.607964E-3
904.349327E-3
904.496384E-3
904.450607E-3
904.372215E-3
904.320145E-3
903.911591E-3
903.507614E-3
903.243256E-3
902.248192E-3
902.303123E-3
901.682854E-3
901.575279E-3
901.333809E-3
901.054001E-3
900.859451E-3
900.523567E-3
900.266075E-3
900.045776E-3
899.969101E-3
899.909019E-3
899.617195E-3
899.487877E-3
899.349403E-3
899.229240E-3
899.173737E-3
898.912239E-3
898.544884E-3
898.623276E-3
898.516273E-3
898.418999E-3
898.405266E-3
898.149490E-3
898.040771E-3
897.852516E-3
897.784996E-3
897.943497E-3
897.640228E-3
897.541237E-3
897.380447E-3
897.269440E-3
896.961594E-3
896.847725E-3
896.891212E-3
896.441460E-3
896.398544E-3
896.139908E-3
896.023178E-3
895.956230E-3
895.885277E-3
895.820045E-3
895.673561E-3
895.396042E-3
895.386314E-3
895.225525E-3
895.050430E-3
894.695663E-3
894.559479E-3
894.264793E-3
893.922043E-3
893.811607E-3
893.155289E-3
893.326378E-3
893.346405E-3
893.459129E-3
894.396400E-3
895.781136E-3
898.021317E-3
900.889206E-3
903.752518E-3
906.853867E-3
908.741570E-3
910.287666E-3
911.145973E-3
911.287308E-3
911.334801E-3
910.808945E-3
910.198402E-3
909.480286E-3
908.819389E-3
908.049774E-3
907.264709E-3
906.951141E-3
906.576920E-3
906.421280E-3
906.589508E-3
906.516838E-3
906.655884E-3
907.186317E-3
907.020378E-3
906.908226E-3
906.588936E-3
906.217003E-3
905.622482E-3
904.947853E-3
904.433441E-3
903.858948E-3
903.149986E-3
903.314209E-3
903.455544E-3
903.574562E-3
903.730774E-3
903.848076E-3
903.988266E-3
904.000854E-3
903.974533E-3
903.697586E-3
903.481293E-3
903.384590E-3
902.871323E-3
902.592659E-3
902.052498E-3
901.683998E-3
900.934982E-3
900.874329E-3
900.782776E-3
900.518417E-3
900.242043E-3
900.079536E-3
899.775696E-3
899.563408E-3
899.301338E-3
899.522209E-3
899.157715E-3
898.804092E-3
898.711395E-3
898.508835E-3
898.351479E-3
898.307419E-3
898.162079E-3
897.937202E-3
897.696877E-3
897.659111E-3
897.541809E-3
897.259140E-3
897.262001E-3
897.062874E-3
897.057152E-3
896.935844E-3
896.675491E-3
896.361923E-3
896.376801E-3
896.090698E-3
896.087837E-3
895.980835E-3
895.935631E-3
895.641518E-3
895.553398E-3
895.604324E-3
895.800591E-3
895.556831E-3
895.321655E-3
895.218086E-3
894.988060E-3
894.797516E-3
894.654465E-3
894.466209E-3
894.354057E-3
894.744873E-3
894.036484E-3
893.860245E-3
893.515778E-3
893.283463E-3
893.239403E-3
893.043709E-3
893.109512E-3
893.146706E-3
893.591309E-3
894.860458E-3
896.893501E-3
899.513626E-3
902.521706E-3
905.271721E-3
907.636642E-3
909.323502E-3
910.343742E-3
910.681343E-3
910.741425E-3
910.291100E-3
909.635925E-3
908.933258E-3
908.240891E-3
907.472420E-3
906.344604E-3
905.922318E-3
905.544662E-3
905.225372E-3
905.015373E-3
905.082893E-3
905.068588E-3
905.212784E-3
905.276871E-3
904.705238E-3
904.835129E-3
904.486656E-3
903.916740E-3
903.342247E-3
902.746582E-3
902.442741E-3
902.313995E-3
902.303696E-3
902.598381E-3
902.523994E-3
902.769470E-3
902.877617E-3
903.072166E-3
902.861023E-3
902.801514E-3
902.677917E-3
902.364922E-3
901.348686E-3
901.657677E-3
901.431084E-3
901.268005E-3
900.919533E-3
900.761032E-3
900.401688E-3
900.001717E-3
899.824905E-3
899.676704E-3
899.371719E-3
899.345970E-3
899.114227E-3
898.909378E-3
898.593521E-3
898.496819E-3
898.261642E-3
898.179245E-3
898.880768E-3
898.283386E-3
897.895432E-3
897.667122E-3
897.500038E-3
897.259712E-3
897.159004E-3
897.073746E-3
896.883774E-3
896.455193E-3
896.638298E-3
896.501541E-3
896.524429E-3
896.432877E-3
896.230316E-3
896.253204E-3
896.306992E-3
896.149063E-3
896.002007E-3
895.747948E-3
895.801735E-3
895.676994E-3
895.722771E-3
895.626068E-3
895.358849E-3
894.498253E-3
894.795227E-3
894.960022E-3
894.854164E-3
894.643021E-3
894.690514E-3
894.367218E-3
894.114304E-3
893.903732E-3
894.023895E-3
893.678284E-3
893.358421E-3
893.310928E-3
893.385887E-3
893.543816E-3
894.863319E-3
896.617126E-3
899.114799E-3
902.342606E-3
904.673767E-3
906.745720E-3
908.592224E-3
909.725761E-3
910.260201E-3
910.092545E-3
909.759521E-3
909.158707E-3
908.064079E-3
907.353401E-3
906.448174E-3
905.798149E-3
905.207062E-3
904.762459E-3
904.461479E-3
904.224586E-3
904.023743E-3
904.069519E-3
904.068947E-3
904.110718E-3
903.916740E-3
903.655815E-3
903.032112E-3
902.465057E-3
902.088547E-3
901.724625E-3
901.171875E-3
901.579857E-3
901.958084E-3
902.249908E-3
902.429008E-3
902.726555E-3
902.937126E-3
903.079033E-3
902.887344E-3
902.935982E-3
902.686501E-3
902.332306E-3
902.125740E-3
901.681709E-3
901.106071E-3
900.933266E-3
900.405121E-3
900.128746E-3
899.823189E-3
899.492455E-3
899.299049E-3
898.951721E-3
898.729706E-3
898.436737E-3
898.206139E-3
898.523140E-3
898.142052E-3
897.980690E-3
897.805595E-3
897.628784E-3
897.637939E-3
897.498894E-3
897.431946E-3
897.305489E-3
897.110939E-3
897.261429E-3
896.930695E-3
896.797371E-3
896.787071E-3
896.753311E-3
896.581078E-3
896.484947E-3
896.336746E-3
895.634651E-3
895.939064E-3
895.877266E-3
895.767403E-3
895.619202E-3
895.589447E-3
895.286751E-3
895.313644E-3
895.124245E-3
895.187759E-3
894.931984E-3
894.877052E-3
894.866753E-3
894.665337E-3
894.593811E-3
894.547462E-3
894.195557E-3
894.079399E-3
894.085693E-3
893.670845E-3
893.386459E-3
893.124962E-3
892.951012E-3
892.650032E-3
892.648888E-3
892.739296E-3
892.786789E-3
894.138336E-3
895.149994E-3
897.296333E-3
900.132179E-3
903.003502E-3
905.875397E-3
908.101273E-3
908.838844E-3
910.625839E-3
911.017227E-3
911.086464E-3
910.610390E-3
910.130310E-3
909.369278E-3
908.258057E-3
907.578850E-3
906.489944E-3
906.208420E-3
905.986404E-3
905.807877E-3
905.863953E-3
905.989838E-3
906.212997E-3
906.474495E-3
906.528854E-3
907.284164E-3
906.859589E-3
906.257629E-3
905.680847E-3
905.023956E-3
904.724693E-3
904.203987E-3
904.045486E-3
904.117012E-3
903.727341E-3
904.158211E-3
904.438019E-3
904.655457E-3
904.813957E-3
904.804230E-3
904.784203E-3
904.537582E-3
904.463768E-3
904.603958E-3
903.862953E-3
903.389168E-3
903.061867E-3
902.713966E-3
902.350044E-3
902.050209E-3
901.815605E-3
901.535797E-3
902.271080E-3
901.556969E-3
901.049995E-3
900.841713E-3
900.573349E-3
901.239395E-3
900.643158E-3
900.200272E-3
900.049782E-3
899.943352E-3
899.804878E-3
899.671555E-3
899.573135E-3
899.543381E-3
899.119949E-3
899.150276E-3
899.206924E-3
898.844147E-3
898.853302E-3
898.721695E-3
898.693657E-3
898.673058E-3
898.561478E-3
898.379517E-3
898.282814E-3
898.285103E-3
898.247337E-3
897.934914E-3
897.838211E-3
897.798729E-3
897.623634E-3
897.603607E-3
897.481155E-3
897.458267E-3
896.594238E-3
896.833992E-3
896.974754E-3
896.717834E-3
896.724701E-3
896.556473E-3
896.373940E-3
895.289612E-3
895.670128E-3
895.907593E-3
895.994568E-3
896.093559E-3
896.306992E-3
896.732712E-3
898.017883E-3
899.833488E-3
902.735710E-3
905.437660E-3
907.997704E-3
910.488510E-3
912.124443E-3
913.400459E-3
914.021301E-3
914.079094E-3
913.849640E-3
912.866020E-3
912.386513E-3
911.843491E-3
911.117935E-3
910.684204E-3
910.192680E-3
909.780121E-3
909.676552E-3
909.317780E-3
909.500885E-3
909.538078E-3
909.582710E-3
909.687424E-3
909.685135E-3
909.471130E-3
909.119797E-3
908.950424E-3
908.113861E-3
907.457542E-3
907.162857E-3
907.143402E-3
907.155991E-3
907.329369E-3
907.775116E-3
908.023453E-3
908.085251E-3
908.114433E-3
908.262634E-3
908.089828E-3
907.918739E-3
907.620049E-3
907.284737E-3
906.988335E-3
906.626701E-3
906.706810E-3
906.298828E-3
905.677414E-3
905.414772E-3
905.189323E-3
904.938698E-3
904.780769E-3
904.478073E-3
904.462624E-3
904.002571E-3
904.159927E-3
904.079247E-3
904.007721E-3
903.888130E-3
903.590012E-3
903.496170E-3
903.532791E-3
903.207207E-3
902.755737E-3
902.727127E-3
902.872467E-3
902.853584E-3
902.878189E-3
902.905083E-3
902.618408E-3
902.487946E-3
902.426147E-3
902.053642E-3
902.358055E-3
902.384949E-3
902.137756E-3
902.038193E-3
901.686287E-3
901.650238E-3
901.599312E-3
901.309776E-3
901.078606E-3
900.938416E-3
900.755310E-3
900.371933E-3
900.279236E-3
899.998856E-3
899.957657E-3
899.993134E-3
