Notes :


2023-11-10 ¿ÀÈÄ 11:09:17
Volts
Ch : LED 2,
72.548676E-3
73.529434E-3
74.954224E-3
75.329590E-3
75.796509E-3
76.236534E-3
76.429939E-3
76.522636E-3
76.241684E-3
75.934982E-3
75.730133E-3
75.403404E-3
75.170517E-3
74.823761E-3
74.686432E-3
74.585724E-3
74.652672E-3
74.520493E-3
74.565125E-3
74.583435E-3
74.602890E-3
74.552536E-3
74.555969E-3
74.371147E-3
74.159431E-3
73.476791E-3
73.546600E-3
73.609543E-3
73.533440E-3
73.698807E-3
73.695374E-3
73.862457E-3
73.950577E-3
73.883629E-3
74.331093E-3
74.196053E-3
74.012375E-3
73.951721E-3
73.754883E-3
73.708534E-3
73.558044E-3
73.440742E-3
73.248482E-3
73.354340E-3
73.115158E-3
72.911453E-3
72.759819E-3
72.686005E-3
72.448540E-3
72.419357E-3
72.369576E-3
72.241402E-3
72.392464E-3
72.223663E-3
72.185898E-3
72.095490E-3
72.026253E-3
72.116661E-3
71.951294E-3
71.979904E-3
71.908379E-3
71.775627E-3
71.864891E-3
71.729279E-3
71.791649E-3
71.764755E-3
71.716118E-3
71.714973E-3
71.672630E-3
71.653175E-3
71.702385E-3
71.569061E-3
71.545601E-3
71.507263E-3
71.483803E-3
71.383095E-3
71.353912E-3
71.345329E-3
71.181679E-3
71.522141E-3
71.248627E-3
71.050644E-3
71.039772E-3
70.882416E-3
70.845222E-3
70.796013E-3
70.612907E-3
70.570564E-3
70.633507E-3
70.634651E-3
70.552826E-3
70.541954E-3
70.742226E-3
70.951080E-3
71.601677E-3
72.361565E-3
73.277092E-3
74.098206E-3
74.795723E-3
75.580215E-3
75.992203E-3
76.153564E-3
76.186180E-3
75.993347E-3
75.870895E-3
75.458336E-3
75.056076E-3
74.853516E-3
74.481583E-3
74.344254E-3
74.121094E-3
73.989487E-3
73.989487E-3
73.923111E-3
73.896790E-3
73.891068E-3
73.811531E-3
73.729706E-3
73.453903E-3
73.348045E-3
73.225594E-3
73.011017E-3
72.984695E-3
72.976112E-3
73.162651E-3
73.266220E-3
73.287964E-3
73.466492E-3
73.444748E-3
73.599815E-3
73.562050E-3
73.625565E-3
73.570633E-3
73.317719E-3
73.290825E-3
73.107719E-3
72.927475E-3
72.775269E-3
72.537231E-3
72.476006E-3
72.257996E-3
72.145271E-3
72.046852E-3
71.947289E-3
71.969032E-3
71.886635E-3
71.735001E-3
71.764183E-3
71.734428E-3
71.546745E-3
71.537018E-3
71.471214E-3
71.537590E-3
71.486664E-3
71.590233E-3
71.531868E-3
71.467209E-3
71.443748E-3
71.155930E-3
71.295547E-3
71.389961E-3
71.262360E-3
71.288681E-3
71.200562E-3
71.155930E-3
71.233177E-3
71.056366E-3
71.249771E-3
71.061516E-3
71.047783E-3
70.946503E-3
70.861816E-3
70.925331E-3
70.804024E-3
70.775414E-3
70.647240E-3
70.532799E-3
70.475006E-3
70.360565E-3
70.361137E-3
70.212364E-3
70.095062E-3
70.123100E-3
69.937706E-3
70.013237E-3
70.104790E-3
70.324516E-3
70.897865E-3
71.527290E-3
72.556114E-3
73.444748E-3
74.296188E-3
74.921036E-3
75.643730E-3
76.102638E-3
76.356125E-3
76.266289E-3
76.180458E-3
75.798798E-3
75.527000E-3
75.222015E-3
74.499321E-3
74.632645E-3
74.486732E-3
74.444962E-3
74.360847E-3
74.273300E-3
74.478149E-3
74.499893E-3
74.564552E-3
74.468994E-3
74.325943E-3
74.329376E-3
74.011803E-3
73.774338E-3
73.523712E-3
73.446465E-3
73.448753E-3
73.344612E-3
73.434448E-3
73.600388E-3
73.512268E-3
73.719978E-3
73.717690E-3
73.742867E-3
73.712540E-3
73.627281E-3
73.605537E-3
73.158646E-3
73.271370E-3
73.137474E-3
72.965240E-3
72.929192E-3
72.671127E-3
72.556686E-3
72.456551E-3
72.242546E-3
72.407913E-3
72.135544E-3
72.072601E-3
72.106361E-3
71.939850E-3
72.015381E-3
71.902084E-3
71.849442E-3
71.828270E-3
71.715546E-3
71.755600E-3
71.674347E-3
71.721840E-3
71.657181E-3
71.551895E-3
71.726990E-3
71.573067E-3
71.589088E-3
71.362495E-3
71.376228E-3
71.443748E-3
71.375084E-3
71.429443E-3
71.409416E-3
71.218872E-3
71.323586E-3
71.183395E-3
71.209145E-3
71.141052E-3
71.123886E-3
71.165085E-3
71.024895E-3
70.904732E-3
70.861816E-3
70.762253E-3
70.801163E-3
70.643806E-3
70.605469E-3
70.623779E-3
70.487022E-3
70.542526E-3
70.397186E-3
70.497894E-3
70.920753E-3
70.975685E-3
71.522713E-3
72.240257E-3
73.121452E-3
74.122810E-3
74.926186E-3
75.750160E-3
76.278877E-3
76.403618E-3
76.692581E-3
76.556396E-3
76.417923E-3
76.102638E-3
75.825691E-3
75.525856E-3
75.153351E-3
75.065231E-3
74.566841E-3
74.725914E-3
74.795723E-3
74.644661E-3
74.796295E-3
74.781418E-3
74.762535E-3
74.771118E-3
74.616051E-3
74.593163E-3
74.261284E-3
73.939133E-3
73.911667E-3
73.744583E-3
73.751450E-3
73.801231E-3
73.892212E-3
73.956871E-3
73.911667E-3
74.104500E-3
74.075890E-3
74.099350E-3
74.119949E-3
73.908806E-3
73.899651E-3
73.622131E-3
73.542023E-3
73.382950E-3
73.271942E-3
73.202705E-3
72.963524E-3
72.912598E-3
72.858238E-3
72.627068E-3
72.650528E-3
72.536659E-3
72.530937E-3
72.508621E-3
72.378159E-3
72.399330E-3
72.371292E-3
72.256279E-3
72.270012E-3
72.146416E-3
72.178459E-3
72.037697E-3
71.993637E-3
72.093773E-3
72.005081E-3
72.000504E-3
71.942711E-3
71.970177E-3
71.953011E-3
71.903801E-3
71.867180E-3
71.730995E-3
71.796799E-3
71.821976E-3
71.713257E-3
71.728134E-3
71.619987E-3
71.681786E-3
71.596527E-3
71.471786E-3
71.465492E-3
71.352768E-3
71.323586E-3
71.296692E-3
71.107864E-3
71.066093E-3
70.505333E-3
70.681572E-3
70.783424E-3
70.775414E-3
70.856667E-3
70.903587E-3
71.304131E-3
71.933556E-3
72.653961E-3
73.420715E-3
74.403191E-3
75.229454E-3
75.849152E-3
76.225090E-3
76.556969E-3
76.492310E-3
76.313210E-3
76.099205E-3
75.855446E-3
75.538445E-3
75.171661E-3
74.821472E-3
74.660110E-3
74.478149E-3
74.388885E-3
74.322510E-3
74.315643E-3
74.446678E-3
74.320221E-3
74.195480E-3
74.016953E-3
73.862457E-3
73.664474E-3
73.373795E-3
73.368073E-3
73.275948E-3
73.433876E-3
73.464203E-3
73.467064E-3
73.634720E-3
73.709679E-3
73.837852E-3
73.924828E-3
73.798943E-3
73.796654E-3
73.571777E-3
73.459625E-3
73.354912E-3
73.152924E-3
73.056793E-3
72.833633E-3
72.600746E-3
72.584152E-3
72.390175E-3
72.224808E-3
72.143555E-3
72.015381E-3
71.962166E-3
71.869469E-3
71.859169E-3
71.761322E-3
71.743584E-3
71.680069E-3
71.617699E-3
71.724129E-3
71.610260E-3
71.619987E-3
71.650887E-3
71.609688E-3
71.589088E-3
71.491241E-3
71.444321E-3
71.452332E-3
71.372223E-3
71.435738E-3
71.347046E-3
71.331596E-3
71.379662E-3
71.322441E-3
71.344185E-3
71.260071E-3
71.256638E-3
71.261787E-3
71.142197E-3
71.144485E-3
71.020889E-3
70.976257E-3
71.011734E-3
70.533371E-3
70.748520E-3
70.615768E-3
70.487022E-3
70.511055E-3
70.373154E-3
70.385170E-3
70.242691E-3
70.301628E-3
70.680428E-3
70.721054E-3
71.350479E-3
72.017097E-3
73.008156E-3
74.052429E-3
74.858093E-3
75.666618E-3
76.138115E-3
76.702881E-3
76.744652E-3
76.635361E-3
76.453972E-3
76.173019E-3
75.853157E-3
75.563049E-3
75.191116E-3
75.086975E-3
74.994278E-3
74.811745E-3
74.685860E-3
74.678993E-3
74.832344E-3
74.862099E-3
74.900436E-3
74.865532E-3
74.751091E-3
74.379158E-3
74.231529E-3
74.027824E-3
73.905373E-3
73.768616E-3
73.781776E-3
73.745728E-3
73.823547E-3
73.861313E-3
74.010086E-3
74.117088E-3
74.031258E-3
73.968887E-3
73.969460E-3
73.793793E-3
73.836136E-3
73.676491E-3
73.561478E-3
73.077393E-3
73.012161E-3
72.993851E-3
72.941780E-3
72.715187E-3
72.680283E-3
72.453690E-3
72.396469E-3
72.307205E-3
71.886635E-3
72.202492E-3
72.084618E-3
72.161865E-3
72.043419E-3
72.006798E-3
72.033119E-3
71.882629E-3
71.955299E-3
71.889496E-3
71.816826E-3
71.872330E-3
71.701813E-3
71.789360E-3
71.722984E-3
71.648026E-3
71.800232E-3
71.543312E-3
71.605682E-3
71.551323E-3
71.515846E-3
71.467209E-3
71.306419E-3
71.320724E-3
71.282387E-3
71.224594E-3
71.202850E-3
71.088409E-3
71.110153E-3
71.078110E-3
70.979691E-3
70.993996E-3
70.869255E-3
70.832634E-3
70.496178E-3
70.544815E-3
70.554543E-3
70.376015E-3
70.416641E-3
70.348549E-3
70.310783E-3
70.389175E-3
70.457268E-3
70.920181E-3
71.478653E-3
72.287178E-3
73.232460E-3
74.196625E-3
75.198555E-3
75.854301E-3
76.377869E-3
76.752663E-3
77.056503E-3
76.813889E-3
76.488876E-3
76.095772E-3
75.845718E-3
75.458336E-3
75.306129E-3
75.172234E-3
74.942207E-3
74.830627E-3
74.860954E-3
74.914742E-3
74.911880E-3
74.918747E-3
75.016594E-3
74.836349E-3
74.864388E-3
74.588585E-3
74.418640E-3
74.256706E-3
73.954582E-3
73.943138E-3
73.874474E-3
73.880196E-3
73.988914E-3
74.008369E-3
74.155998E-3
74.466705E-3
74.358559E-3
74.325371E-3
74.116516E-3
74.114799E-3
73.947716E-3
73.788071E-3
73.710251E-3
73.421288E-3
73.186684E-3
73.125458E-3
72.980118E-3
72.929192E-3
72.748947E-3
72.751236E-3
72.655106E-3
72.518349E-3
72.482872E-3
72.366714E-3
72.368431E-3
72.255135E-3
72.208786E-3
72.248840E-3
72.137833E-3
72.199059E-3
72.048569E-3
72.025681E-3
72.089195E-3
71.969032E-3
72.054863E-3
71.936989E-3
71.833992E-3
71.904373E-3
71.747017E-3
72.090340E-3
71.883774E-3
71.800804E-3
71.794510E-3
71.693802E-3
71.701813E-3
71.625710E-3
71.520424E-3
71.593666E-3
71.257782E-3
71.393967E-3
71.447754E-3
71.320152E-3
71.321297E-3
71.217155E-3
71.227455E-3
71.222305E-3
71.068382E-3
71.380806E-3
70.907021E-3
70.838928E-3
70.787430E-3
70.637512E-3
70.632935E-3
70.628357E-3
70.642090E-3
70.794296E-3
70.934486E-3
71.621704E-3
72.395325E-3
73.298264E-3
74.171448E-3
74.985695E-3
75.719833E-3
76.175880E-3
76.461983E-3
76.582718E-3
76.349831E-3
76.143265E-3
75.809669E-3
75.511551E-3
75.161934E-3
74.790573E-3
74.622345E-3
74.347687E-3
74.600601E-3
74.340248E-3
74.273872E-3
74.320793E-3
74.286461E-3
74.286461E-3
74.189186E-3
73.941994E-3
73.813820E-3
73.265076E-3
73.369217E-3
73.295403E-3
73.264503E-3
73.363495E-3
73.425865E-3
73.641586E-3
73.713684E-3
73.774338E-3
73.979759E-3
73.804092E-3
73.814964E-3
73.734856E-3
73.582649E-3
73.500252E-3
73.304558E-3
73.134041E-3
72.957802E-3
72.760963E-3
72.743225E-3
72.544670E-3
72.514343E-3
72.349548E-3
72.240257E-3
72.205353E-3
72.295189E-3
72.188187E-3
71.979904E-3
71.862030E-3
71.907234E-3
71.833992E-3
71.831131E-3
71.770477E-3
71.689224E-3
71.965599E-3
71.638870E-3
71.570206E-3
71.488953E-3
71.349335E-3
71.480942E-3
71.323586E-3
71.353912E-3
71.262932E-3
70.834923E-3
71.137047E-3
71.083260E-3
71.076393E-3
71.040344E-3
70.996284E-3
70.948219E-3
70.844078E-3
70.809174E-3
70.904732E-3
70.734787E-3
70.719910E-3
70.609474E-3
70.641518E-3
70.540237E-3
70.396042E-3
70.388031E-3
70.195770E-3
70.397758E-3
70.152855E-3
70.010376E-3
70.096779E-3
70.024109E-3
70.037270E-3
70.297050E-3
70.649529E-3
71.452904E-3
72.302055E-3
73.260498E-3
74.119949E-3
74.961662E-3
75.678635E-3
76.012802E-3
76.194191E-3
76.197624E-3
76.080322E-3
76.134682E-3
75.552177E-3
75.280380E-3
74.916458E-3
74.642944E-3
74.520493E-3
74.315071E-3
74.197769E-3
74.172020E-3
73.963737E-3
74.247551E-3
74.260139E-3
74.318504E-3
74.205780E-3
74.003792E-3
73.974037E-3
73.609543E-3
73.416710E-3
73.271370E-3
73.172951E-3
73.302269E-3
73.294258E-3
73.440170E-3
73.469925E-3
73.504257E-3
73.986053E-3
73.707962E-3
73.677635E-3
73.533440E-3
73.414421E-3
73.363495E-3
73.187256E-3
73.060799E-3
72.911453E-3
72.645378E-3
72.630501E-3
72.414207E-3
72.291183E-3
72.263718E-3
72.103500E-3
72.052574E-3
71.912956E-3
71.894646E-3
71.975327E-3
71.763039E-3
71.728706E-3
71.604538E-3
71.673775E-3
71.666336E-3
71.516991E-3
71.596527E-3
71.542740E-3
71.196556E-3
71.305847E-3
71.296120E-3
71.395683E-3
71.303558E-3
71.277237E-3
71.253777E-3
71.198845E-3
71.240044E-3
71.083260E-3
71.047783E-3
70.784569E-3
70.907021E-3
70.936775E-3
70.888710E-3
70.854950E-3
70.785141E-3
70.711327E-3
70.781136E-3
70.664406E-3
70.640373E-3
70.603180E-3
70.398903E-3
70.480728E-3
70.290184E-3
70.305634E-3
70.281601E-3
69.755173E-3
69.945717E-3
69.921684E-3
69.957161E-3
69.916534E-3
69.876480E-3
70.151711E-3
70.345116E-3
70.925331E-3
71.737862E-3
72.694016E-3
73.742294E-3
74.498749E-3
75.306129E-3
75.806808E-3
76.128960E-3
76.302910E-3
76.221085E-3
75.900650E-3
75.742722E-3
75.412560E-3
75.242615E-3
74.930763E-3
74.653244E-3
74.536514E-3
74.511337E-3
74.613762E-3
74.479294E-3
74.546242E-3
74.629784E-3
74.642944E-3
74.666405E-3
74.586296E-3
74.358559E-3
74.133110E-3
73.862457E-3
73.748016E-3
73.608398E-3
73.491669E-3
73.571205E-3
73.547173E-3
73.733711E-3
73.709679E-3
73.621559E-3
73.853874E-3
73.816681E-3
73.838997E-3
73.707390E-3
73.754311E-3
73.627281E-3
73.423004E-3
73.410416E-3
73.268509E-3
73.039627E-3
72.988129E-3
72.743225E-3
72.684860E-3
72.506905E-3
72.419357E-3
72.388458E-3
72.264290E-3
72.093201E-3
72.093201E-3
72.100067E-3
72.096062E-3
71.969604E-3
72.078323E-3
71.929550E-3
71.912956E-3
71.975327E-3
72.113800E-3
71.985054E-3
71.754456E-3
71.707535E-3
71.746445E-3
71.678352E-3
71.744156E-3
71.615982E-3
71.596527E-3
71.225166E-3
71.367073E-3
71.446037E-3
71.366501E-3
71.308708E-3
71.305847E-3
71.252632E-3
71.302414E-3
71.131897E-3
70.838356E-3
71.041489E-3
70.977402E-3
70.978546E-3
70.935059E-3
70.861816E-3
70.853806E-3
70.739365E-3
70.689583E-3
70.487595E-3
70.463562E-3
70.436668E-3
70.394325E-3
70.419502E-3
70.299911E-3
70.296478E-3
70.511627E-3
70.711899E-3
71.066666E-3
72.014809E-3
72.997856E-3
73.917961E-3
74.680710E-3
75.429153E-3
75.912094E-3
76.155281E-3
76.223373E-3
76.274300E-3
75.961876E-3
75.621986E-3
75.203705E-3
74.957657E-3
74.608612E-3
74.388313E-3
74.157715E-3
74.099350E-3
74.118805E-3
74.094200E-3
74.198914E-3
74.184036E-3
74.143982E-3
74.103355E-3
73.831558E-3
73.667336E-3
73.430443E-3
73.273659E-3
73.275375E-3
73.120308E-3
73.298264E-3
73.345757E-3
73.390961E-3
73.539162E-3
73.814392E-3
73.813248E-3
73.708534E-3
73.646736E-3
73.638725E-3
73.443031E-3
73.332024E-3
73.219872E-3
73.079681E-3
72.687721E-3
72.679710E-3
72.651672E-3
72.415352E-3
72.244263E-3
72.206497E-3
72.093201E-3
72.049713E-3
71.957588E-3
71.777916E-3
71.899796E-3
71.705818E-3
71.756744E-3
71.753883E-3
71.646881E-3
71.609116E-3
71.536446E-3
71.549034E-3
71.435165E-3
71.492386E-3
71.444321E-3
71.341324E-3
71.336174E-3
71.333313E-3
71.324158E-3
71.314430E-3
71.103859E-3
70.858955E-3
71.003723E-3
70.980263E-3
70.961952E-3
