Notes :


2023-11-04 ¿ÀÈÄ 7:00:22
Volts
Ch : LED 2,
479.266548E-3
479.092026E-3
478.149605E-3
476.713943E-3
475.174141E-3
473.383713E-3
471.865082E-3
470.554733E-3
469.656944E-3
468.931961E-3
468.479347E-3
468.364334E-3
468.616104E-3
468.943405E-3
469.422913E-3
469.714737E-3
469.822884E-3
469.674110E-3
469.137955E-3
468.404961E-3
467.692566E-3
467.225647E-3
467.003632E-3
466.980743E-3
467.222214E-3
467.519188E-3
468.184090E-3
468.308830E-3
468.405533E-3
468.557739E-3
468.434143E-3
468.224144E-3
467.994690E-3
467.597008E-3
467.040253E-3
466.362762E-3
465.670967E-3
465.066719E-3
464.382935E-3
463.887978E-3
463.310623E-3
462.806511E-3
462.479782E-3
462.057495E-3
461.805153E-3
461.568832E-3
461.487579E-3
461.248970E-3
461.111641E-3
461.061287E-3
460.885048E-3
460.526276E-3
460.664749E-3
460.637856E-3
460.649300E-3
460.584068E-3
460.383797E-3
460.259056E-3
460.172081E-3
460.218430E-3
460.010719E-3
459.947205E-3
459.943199E-3
459.722328E-3
459.542084E-3
459.377289E-3
459.235954E-3
459.131241E-3
458.829689E-3
458.757019E-3
458.499527E-3
458.409691E-3
458.251190E-3
457.987976E-3
457.959938E-3
457.811165E-3
457.720184E-3
457.620621E-3
457.552528E-3
457.185745E-3
456.783485E-3
456.555176E-3
456.362915E-3
456.019592E-3
455.809593E-3
455.633926E-3
455.375862E-3
455.275154E-3
454.934120E-3
454.815102E-3
454.815102E-3
454.824257E-3
455.155563E-3
456.291962E-3
458.295822E-3
461.242104E-3
464.598083E-3
468.189812E-3
471.566963E-3
474.345589E-3
476.124573E-3
476.913071E-3
476.822090E-3
475.999260E-3
474.727821E-3
473.257256E-3
471.287155E-3
469.608879E-3
468.141747E-3
467.021370E-3
466.181946E-3
465.665817E-3
465.468407E-3
465.501022E-3
465.880394E-3
466.045189E-3
466.296387E-3
466.547012E-3
466.352463E-3
465.839195E-3
465.125084E-3
464.523125E-3
464.188385E-3
463.996124E-3
464.122581E-3
464.498520E-3
464.905930E-3
465.413475E-3
465.654373E-3
465.996552E-3
466.124153E-3
465.925598E-3
465.611458E-3
465.082169E-3
464.542007E-3
463.899994E-3
463.209343E-3
462.631416E-3
461.970520E-3
461.391449E-3
460.646439E-3
460.209846E-3
459.803009E-3
459.405327E-3
459.139824E-3
458.802223E-3
458.599091E-3
458.446312E-3
458.428001E-3
458.308983E-3
458.188820E-3
458.119011E-3
458.049202E-3
457.985115E-3
457.987976E-3
457.961655E-3
457.943344E-3
457.708740E-3
457.931900E-3
457.977104E-3
457.941055E-3
457.870102E-3
457.954788E-3
457.769966E-3
457.642365E-3
457.568550E-3
457.325935E-3
457.254982E-3
457.093620E-3
457.032967E-3
456.913948E-3
456.792641E-3
456.773186E-3
456.642723E-3
456.465340E-3
456.526566E-3
456.292534E-3
456.225014E-3
456.028748E-3
455.888557E-3
455.745506E-3
455.546379E-3
455.221939E-3
454.984474E-3
454.719543E-3
454.587364E-3
454.348755E-3
454.307556E-3
454.202843E-3
454.186821E-3
454.171944E-3
454.410553E-3
455.302048E-3
456.764030E-3
459.284019E-3
462.416267E-3
465.886688E-3
469.313622E-3
472.226715E-3
474.426270E-3
475.701141E-3
475.823021E-3
475.337219E-3
474.113846E-3
472.701645E-3
471.045113E-3
469.330788E-3
467.925453E-3
466.639137E-3
465.887260E-3
465.176582E-3
464.766884E-3
464.740562E-3
464.735985E-3
465.068436E-3
465.238953E-3
465.327072E-3
465.126228E-3
464.470482E-3
464.147186E-3
463.843918E-3
463.595581E-3
463.728905E-3
463.912010E-3
464.444733E-3
465.097618E-3
465.718460E-3
466.280937E-3
466.509819E-3
466.688347E-3
466.660881E-3
466.351318E-3
466.020584E-3
465.523338E-3
465.002060E-3
464.357185E-3
463.589287E-3
463.018227E-3
462.187386E-3
461.622047E-3
461.069298E-3
460.623550E-3
460.311127E-3
460.038185E-3
459.773254E-3
459.425926E-3
459.463120E-3
459.421349E-3
459.353256E-3
459.334373E-3
459.277725E-3
459.227371E-3
459.325218E-3
459.320068E-3
459.109497E-3
459.177589E-3
459.187317E-3
459.354973E-3
459.254265E-3
459.193039E-3
459.136391E-3
459.052277E-3
459.063721E-3
458.706093E-3
458.716965E-3
458.668900E-3
458.441162E-3
458.361626E-3
458.219719E-3
458.090973E-3
457.873535E-3
457.704735E-3
457.705879E-3
457.535362E-3
457.376289E-3
457.293892E-3
457.137108E-3
456.980324E-3
456.755447E-3
456.507111E-3
456.365776E-3
456.123161E-3
455.918312E-3
455.678558E-3
455.517197E-3
455.306625E-3
454.997635E-3
454.831696E-3
455.011940E-3
455.092621E-3
455.315208E-3
456.266785E-3
458.160782E-3
461.044693E-3
464.532852E-3
468.330002E-3
471.921730E-3
475.225639E-3
477.423477E-3
478.767586E-3
479.014206E-3
478.390503E-3
477.249527E-3
475.696564E-3
473.961639E-3
472.368050E-3
471.013641E-3
469.677544E-3
468.815231E-3
468.237877E-3
468.085670E-3
467.988396E-3
468.204117E-3
468.513680E-3
468.941689E-3
469.049835E-3
469.172287E-3
469.070435E-3
468.494225E-3
467.773247E-3
467.223358E-3
466.877747E-3
466.775322E-3
466.810226E-3
467.096901E-3
467.428780E-3
467.705154E-3
468.061066E-3
468.319702E-3
468.386078E-3
468.311119E-3
468.015289E-3
467.660522E-3
467.007637E-3
466.575623E-3
466.002846E-3
465.311623E-3
464.735985E-3
464.067650E-3
463.533211E-3
463.073730E-3
462.664032E-3
462.565613E-3
462.102127E-3
461.785126E-3
461.582565E-3
461.343956E-3
461.273575E-3
461.164284E-3
461.002350E-3
461.001205E-3
460.900497E-3
460.978317E-3
460.906219E-3
460.836411E-3
460.700798E-3
460.592079E-3
460.602379E-3
460.509109E-3
460.283089E-3
460.098839E-3
459.968376E-3
459.930038E-3
459.785271E-3
459.587288E-3
459.350395E-3
459.008789E-3
458.996773E-3
458.732414E-3
458.452606E-3
458.282661E-3
458.092690E-3
457.989693E-3
457.741356E-3
457.523346E-3
457.384300E-3
457.178879E-3
457.058144E-3
456.643295E-3
456.324577E-3
456.113434E-3
455.685997E-3
455.395317E-3
455.193329E-3
454.938126E-3
454.860306E-3
454.409981E-3
454.250908E-3
454.239464E-3
454.246902E-3
454.668045E-3
455.821037E-3
458.030319E-3
460.962868E-3
464.526558E-3
468.063354E-3
471.330643E-3
474.027443E-3
475.793839E-3
476.512527E-3
476.390076E-3
475.503731E-3
474.171638E-3
472.543716E-3
470.803642E-3
469.160843E-3
467.635345E-3
466.560173E-3
465.805435E-3
465.306473E-3
465.103912E-3
465.059853E-3
465.380287E-3
465.619469E-3
465.836906E-3
465.916443E-3
465.668678E-3
465.186882E-3
464.568901E-3
464.025307E-3
463.627625E-3
463.421631E-3
463.755226E-3
464.116859E-3
464.441872E-3
464.901924E-3
465.244102E-3
465.459824E-3
465.554810E-3
465.471840E-3
465.332794E-3
464.776039E-3
464.321136E-3
463.640785E-3
462.987900E-3
462.404251E-3
461.717033E-3
461.127090E-3
460.602379E-3
460.147476E-3
459.724045E-3
459.369850E-3
459.217072E-3
458.922386E-3
458.653450E-3
458.413124E-3
458.521271E-3
458.291817E-3
458.147621E-3
457.969093E-3
457.945633E-3
458.052635E-3
457.995987E-3
457.955933E-3
457.873535E-3
457.579422E-3
457.589722E-3
457.581711E-3
457.570839E-3
457.472992E-3
457.455254E-3
457.378578E-3
457.310486E-3
457.212067E-3
456.976318E-3
457.021523E-3
456.731415E-3
456.682777E-3
456.593513E-3
456.452179E-3
456.358337E-3
456.238174E-3
456.209564E-3
456.169510E-3
455.910301E-3
455.647087E-3
455.368423E-3
455.078316E-3
454.801941E-3
454.569626E-3
454.319000E-3
454.046059E-3
453.850365E-3
453.916168E-3
453.927612E-3
453.961372E-3
454.003143E-3
454.513550E-3
455.653954E-3
457.729912E-3
460.694504E-3
464.225578E-3
467.613029E-3
470.721245E-3
473.146248E-3
474.792480E-3
475.517464E-3
475.210190E-3
474.257469E-3
472.826385E-3
471.037102E-3
469.488716E-3
468.038177E-3
466.767311E-3
465.634918E-3
464.916229E-3
464.488792E-3
464.365196E-3
464.492798E-3
464.428711E-3
464.735413E-3
464.931679E-3
464.708519E-3
464.229584E-3
463.707161E-3
463.299751E-3
462.958145E-3
463.003349E-3
463.299751E-3
463.770676E-3
464.328575E-3
464.933395E-3
465.472984E-3
465.888405E-3
466.015434E-3
466.364479E-3
466.052628E-3
465.748215E-3
465.300179E-3
464.658737E-3
464.149475E-3
463.536644E-3
462.836266E-3
462.260056E-3
461.762810E-3
461.133957E-3
460.617256E-3
460.192108E-3
459.860229E-3
459.545517E-3
459.422493E-3
459.348106E-3
459.195328E-3
458.996773E-3
458.965302E-3
458.865738E-3
458.868027E-3
458.796501E-3
458.802795E-3
458.848000E-3
458.981895E-3
458.931541E-3
458.778191E-3
458.961868E-3
458.945847E-3
459.015656E-3
458.857155E-3
458.770180E-3
458.599663E-3
458.575630E-3
458.512688E-3
458.431435E-3
458.218002E-3
458.204842E-3
458.071518E-3
458.039474E-3
457.806587E-3
457.711029E-3
457.564545E-3
457.287025E-3
457.293320E-3
457.005501E-3
456.679344E-3
456.428719E-3
456.131172E-3
455.863380E-3
455.606461E-3
455.449104E-3
455.121803E-3
454.983902E-3
454.846573E-3
454.815102E-3
455.037689E-3
455.515480E-3
456.697655E-3
458.964729E-3
462.173653E-3
465.707588E-3
469.495583E-3
472.861862E-3
475.653648E-3
477.319908E-3
478.154755E-3
478.113556E-3
477.316475E-3
476.225281E-3
474.535561E-3
472.928810E-3
471.480560E-3
470.058632E-3
469.040680E-3
468.336296E-3
467.955208E-3
467.776680E-3
467.661667E-3
468.152618E-3
468.645287E-3
469.028664E-3
469.244385E-3
469.135094E-3
468.822670E-3
468.094254E-3
467.401886E-3
466.492081E-3
466.346741E-3
466.371346E-3
466.611671E-3
466.928101E-3
467.378426E-3
467.704582E-3
467.999268E-3
468.124580E-3
468.399811E-3
468.120003E-3
467.653656E-3
467.221642E-3
466.621399E-3
465.996552E-3
465.460968E-3
464.773178E-3
464.207840E-3
463.561249E-3
463.090324E-3
462.734413E-3
462.314987E-3
462.060928E-3
461.738777E-3
461.538506E-3
461.377716E-3
461.172867E-3
461.147118E-3
461.023521E-3
460.929680E-3
460.896492E-3
460.849571E-3
460.933113E-3
460.925674E-3
460.839272E-3
460.742569E-3
460.910225E-3
460.732269E-3
460.522842E-3
460.330009E-3
460.209846E-3
460.115433E-3
460.105133E-3
459.954643E-3
459.821892E-3
459.662819E-3
459.412766E-3
459.190750E-3
458.928108E-3
458.802223E-3
458.632278E-3
458.430862E-3
458.076096E-3
458.111572E-3
458.058357E-3
458.009148E-3
457.776833E-3
457.590294E-3
457.317924E-3
457.042122E-3
456.817818E-3
456.341171E-3
456.156349E-3
455.910873E-3
455.751228E-3
455.475998E-3
455.382729E-3
455.290031E-3
455.297470E-3
455.420494E-3
455.830193E-3
456.917381E-3
459.045410E-3
461.930466E-3
465.331078E-3
468.934250E-3
472.191811E-3
474.896622E-3
476.670456E-3
477.751923E-3
477.450371E-3
476.407814E-3
475.099182E-3
473.558235E-3
471.874809E-3
470.422554E-3
469.033813E-3
468.042755E-3
467.468262E-3
467.039108E-3
467.067719E-3
467.171288E-3
467.370415E-3
467.679405E-3
468.018723E-3
468.113136E-3
467.968369E-3
467.581558E-3
466.697502E-3
466.049194E-3
465.601158E-3
465.474701E-3
465.554810E-3
465.789986E-3
466.036034E-3
466.420555E-3
466.823387E-3
466.934967E-3
467.076874E-3
466.989326E-3
466.718102E-3
466.304970E-3
465.923309E-3
465.265274E-3
464.639282E-3
463.982964E-3
463.282585E-3
462.681198E-3
462.090111E-3
461.723328E-3
461.323357E-3
460.924530E-3
460.674477E-3
460.469055E-3
460.269928E-3
460.106850E-3
459.882545E-3
459.910011E-3
459.732056E-3
459.611893E-3
459.620476E-3
459.696007E-3
459.540939E-3
459.520912E-3
459.428787E-3
459.416771E-3
459.368706E-3
459.302902E-3
459.099197E-3
458.955574E-3
458.641434E-3
458.707809E-3
458.652878E-3
458.541870E-3
458.306694E-3
458.238602E-3
457.976532E-3
457.921028E-3
457.785988E-3
457.566833E-3
457.317924E-3
457.089615E-3
456.960297E-3
456.787491E-3
456.622124E-3
456.443024E-3
456.281662E-3
456.226730E-3
456.156921E-3
455.894852E-3
455.649948E-3
455.396461E-3
455.181313E-3
454.954147E-3
454.657745E-3
454.481506E-3
454.388809E-3
454.502678E-3
454.369926E-3
454.330444E-3
454.549026E-3
455.106926E-3
456.590652E-3
458.950996E-3
461.977386E-3
465.382576E-3
468.738556E-3
471.639633E-3
473.883820E-3
475.261116E-3
475.610161E-3
475.094032E-3
474.148750E-3
472.815514E-3
471.221352E-3
469.344521E-3
468.026733E-3
466.932106E-3
466.026878E-3
465.425491E-3
465.086746E-3
465.119362E-3
465.254974E-3
465.558815E-3
465.721321E-3
465.934181E-3
465.657234E-3
464.984322E-3
464.259338E-3
463.756943E-3
463.476562E-3
463.433647E-3
463.782692E-3
464.286232E-3
464.945984E-3
465.513039E-3
465.971375E-3
466.360474E-3
466.426849E-3
466.375351E-3
466.102409E-3
465.654945E-3
465.185165E-3
464.595222E-3
463.980675E-3
463.397598E-3
462.702370E-3
462.107849E-3
461.599159E-3
460.893631E-3
460.639572E-3
460.319138E-3
460.090828E-3
459.834480E-3
459.723473E-3
459.628487E-3
459.524918E-3
459.537506E-3
459.816742E-3
459.698868E-3
459.659386E-3
459.641075E-3
459.646797E-3
459.580421E-3
459.502029E-3
459.614182E-3
459.502029E-3
459.609604E-3
459.507179E-3
459.457970E-3
459.447098E-3
459.296036E-3
459.148407E-3
459.108925E-3
458.942413E-3
458.727837E-3
458.632278E-3
458.477783E-3
458.401680E-3
458.228302E-3
457.990837E-3
457.837486E-3
457.781410E-3
457.620621E-3
457.402039E-3
457.304764E-3
457.071877E-3
456.913376E-3
456.686783E-3
456.536865E-3
456.459618E-3
456.135750E-3
456.029320E-3
455.870247E-3
455.616188E-3
455.179024E-3
455.046844E-3
455.146408E-3
455.241394E-3
455.354691E-3
455.965233E-3
457.276154E-3
459.576416E-3
462.480354E-3
466.183662E-3
469.912148E-3
473.141098E-3
475.649071E-3
477.289581E-3
477.935028E-3
477.939606E-3
476.984596E-3
475.752640E-3
474.260902E-3
472.665024E-3
471.122360E-3
469.856644E-3
468.901634E-3
468.153191E-3
467.710304E-3
467.720032E-3
467.869377E-3
468.256760E-3
468.565178E-3
468.906212E-3
469.048691E-3
468.894768E-3
468.542862E-3
467.522049E-3
466.851997E-3
466.430855E-3
466.042328E-3
466.098404E-3
466.272926E-3
466.493797E-3
466.870308E-3
467.245102E-3
467.484283E-3
467.579842E-3
467.616463E-3
467.571831E-3
467.309189E-3
466.927528E-3
466.280365E-3
465.592003E-3
465.002060E-3
464.321709E-3
463.739204E-3
463.065147E-3
462.637138E-3
462.278366E-3
461.937904E-3
461.652374E-3
461.403465E-3
461.113930E-3
460.997200E-3
460.786629E-3
460.692787E-3
460.602379E-3
460.580635E-3
460.533714E-3
460.541725E-3
460.593796E-3
460.539436E-3
460.536003E-3
460.422707E-3
460.264206E-3
460.166359E-3
460.114288E-3
459.972382E-3
459.917450E-3
459.785843E-3
459.672546E-3
459.849358E-3
459.565544E-3
459.352684E-3
459.098625E-3
458.946991E-3
458.672905E-3
458.349609E-3
458.206558E-3
457.954216E-3
457.655525E-3
457.749367E-3
457.616615E-3
457.587433E-3
457.459259E-3
457.332230E-3
457.236671E-3
457.019234E-3
456.853294E-3
456.722260E-3
456.548309E-3
456.286812E-3
456.008720E-3
455.869102E-3
455.637360E-3
455.439949E-3
455.331230E-3
455.067444E-3
455.108643E-3
455.111504E-3
455.399323E-3
456.046486E-3
457.734489E-3
460.342026E-3
463.568115E-3
466.942978E-3
470.447731E-3
473.448944E-3
475.637054E-3
476.704788E-3
476.977158E-3
476.451302E-3
475.267982E-3
474.000549E-3
472.341156E-3
470.807648E-3
469.314194E-3
468.138313E-3
467.337799E-3
466.873741E-3
466.752434E-3
466.732979E-3
466.764450E-3
467.112350E-3
467.302322E-3
467.506599E-3
467.456245E-3
466.995049E-3
466.419983E-3
465.653801E-3
465.038681E-3
464.594078E-3
464.509964E-3
464.607239E-3
464.801216E-3
465.164566E-3
465.483284E-3
465.700150E-3
465.905571E-3
