Notes :


2023-10-22 ¿ÀÀü 10:53:20
Volts
Ch : LED 2,
277.042580E-3
277.142143E-3
277.469444E-3
277.445984E-3
277.606201E-3
277.816772E-3
277.842522E-3
278.209305E-3
278.136635E-3
278.189850E-3
278.293419E-3
278.209877E-3
278.444481E-3
278.336906E-3
278.389549E-3
278.406715E-3
278.354073E-3
278.472519E-3
278.467941E-3
278.402138E-3
278.538322E-3
278.489113E-3
278.623009E-3
278.613281E-3
278.502846E-3
278.572083E-3
278.587532E-3
278.720856E-3
278.646469E-3
278.590965E-3
278.614998E-3
278.578949E-3
278.930283E-3
278.813553E-3
278.897667E-3
278.972626E-3
278.946877E-3
279.062462E-3
279.019547E-3
279.057884E-3
279.219818E-3
279.222107E-3
279.321098E-3
279.382896E-3
279.505920E-3
279.705048E-3
279.736519E-3
279.880714E-3
279.778290E-3
279.719353E-3
279.516220E-3
278.985786E-3
278.470802E-3
277.701759E-3
276.896095E-3
276.222610E-3
275.526237E-3
275.156021E-3
274.886513E-3
274.710846E-3
274.898529E-3
274.932861E-3
275.329399E-3
275.438690E-3
275.747108E-3
275.918770E-3
276.055527E-3
276.292419E-3
276.351929E-3
276.247215E-3
276.337051E-3
276.247787E-3
276.391411E-3
276.280403E-3
276.316452E-3
276.405716E-3
276.486397E-3
276.713562E-3
276.885796E-3
277.033997E-3
277.095222E-3
276.951027E-3
276.957321E-3
276.769066E-3
276.742744E-3
276.695824E-3
276.497841E-3
276.569366E-3
276.547623E-3
276.538467E-3
276.729012E-3
276.711273E-3
276.881790E-3
276.941299E-3
277.030563E-3
277.229691E-3
277.387047E-3
277.542114E-3
277.739525E-3
277.812767E-3
278.026199E-3
278.054237E-3
278.172112E-3
278.129196E-3
278.185844E-3
278.205872E-3
278.195000E-3
278.322029E-3
278.395271E-3
278.296852E-3
278.427887E-3
278.379250E-3
278.525734E-3
278.574944E-3
278.467941E-3
278.484535E-3
278.481674E-3
278.621864E-3
278.697395E-3
278.569794E-3
278.621864E-3
278.549194E-3
278.737450E-3
278.805542E-3
278.782082E-3
278.952599E-3
278.620148E-3
278.947449E-3
278.934288E-3
278.867340E-3
279.071045E-3
278.873062E-3
279.096794E-3
279.268456E-3
279.296494E-3
279.460144E-3
279.418373E-3
279.682732E-3
279.729652E-3
279.699898E-3
279.784012E-3
279.632378E-3
279.635811E-3
279.516220E-3
278.988075E-3
278.455353E-3
277.679443E-3
276.939011E-3
276.274109E-3
275.570869E-3
275.079346E-3
274.724007E-3
274.698830E-3
274.657631E-3
274.757767E-3
275.063896E-3
275.193787E-3
275.555420E-3
275.779152E-3
275.866127E-3
276.086998E-3
276.022911E-3
276.127625E-3
276.155090E-3
276.077843E-3
276.069260E-3
276.019478E-3
276.221466E-3
276.267815E-3
276.388550E-3
276.602554E-3
276.682091E-3
276.866341E-3
277.029991E-3
276.771927E-3
276.755905E-3
276.507568E-3
276.535034E-3
276.452637E-3
276.161385E-3
276.175690E-3
276.119614E-3
276.229477E-3
276.273537E-3
276.293564E-3
276.480675E-3
276.533890E-3
276.785088E-3
277.008820E-3
276.987076E-3
277.260017E-3
277.305222E-3
277.459717E-3
277.638245E-3
277.629089E-3
277.751541E-3
277.601624E-3
277.658272E-3
277.742958E-3
277.777863E-3
277.855682E-3
277.803612E-3
277.828217E-3
277.906036E-3
277.828789E-3
277.854538E-3
277.839088E-3
277.845383E-3
277.849388E-3
277.783585E-3
277.843094E-3
277.882004E-3
277.989578E-3
278.096581E-3
277.928352E-3
278.029633E-3
277.976990E-3
278.094864E-3
278.176117E-3
278.240776E-3
278.318596E-3
278.326035E-3
278.381538E-3
278.623581E-3
278.235054E-3
278.586960E-3
278.672791E-3
278.823280E-3
278.928566E-3
278.666496E-3
278.783798E-3
279.061317E-3
279.180336E-3
279.223824E-3
279.137993E-3
279.253578E-3
279.175186E-3
278.980064E-3
278.592110E-3
277.869415E-3
277.338982E-3
276.529312E-3
275.761414E-3
275.296783E-3
274.856758E-3
274.606705E-3
274.535179E-3
274.724007E-3
275.052452E-3
275.183487E-3
275.597191E-3
275.792313E-3
275.944519E-3
276.280975E-3
276.312447E-3
276.528740E-3
276.540756E-3
276.613426E-3
276.727295E-3
276.580238E-3
276.814270E-3
276.803398E-3
277.036858E-3
277.126694E-3
277.187920E-3
277.507210E-3
277.378464E-3
277.192497E-3
277.165604E-3
276.961899E-3
276.936150E-3
276.729012E-3
276.637459E-3
276.549911E-3
276.430893E-3
276.782799E-3
276.749611E-3
276.818848E-3
276.905251E-3
276.996231E-3
277.306366E-3
277.425385E-3
277.696037E-3
277.887726E-3
277.758408E-3
278.112602E-3
277.958107E-3
278.015327E-3
278.221893E-3
278.239632E-3
278.423309E-3
278.296280E-3
278.380966E-3
278.431892E-3
278.353500E-3
278.535461E-3
278.303719E-3
278.402710E-3
278.339767E-3
278.327751E-3
278.441048E-3
278.303719E-3
278.363228E-3
278.404999E-3
278.442764E-3
278.452492E-3
278.421593E-3
278.356934E-3
278.540611E-3
278.474808E-3
278.551483E-3
278.540611E-3
278.473663E-3
278.644180E-3
278.579521E-3
278.803825E-3
278.747749E-3
278.727150E-3
278.830147E-3
278.540611E-3
278.997231E-3
279.049873E-3
279.112816E-3
279.256439E-3
279.380035E-3
279.615784E-3
279.540825E-3
279.469872E-3
279.259300E-3
278.533745E-3
278.091431E-3
277.276611E-3
276.499557E-3
275.835228E-3
275.086784E-3
274.690247E-3
274.310875E-3
274.090576E-3
274.278831E-3
274.382401E-3
274.693680E-3
274.859047E-3
275.162315E-3
275.428963E-3
275.700760E-3
275.989151E-3
275.898170E-3
275.866699E-3
275.940514E-3
275.853539E-3
276.037216E-3
275.933647E-3
275.893021E-3
276.019478E-3
276.139641E-3
276.381111E-3
276.622581E-3
276.672363E-3
276.779938E-3
276.691818E-3
276.731873E-3
276.537895E-3
276.309013E-3
276.385117E-3
276.200867E-3
276.293564E-3
276.278687E-3
276.225471E-3
276.421738E-3
276.420021E-3
276.560783E-3
276.652336E-3
276.744461E-3
276.964188E-3
277.165031E-3
277.373314E-3
277.503204E-3
277.482033E-3
277.727509E-3
277.697182E-3
277.902031E-3
277.939796E-3
277.855682E-3
277.863121E-3
277.883720E-3
277.963257E-3
277.975273E-3
278.013611E-3
278.016472E-3
277.928925E-3
278.021049E-3
278.037643E-3
277.973557E-3
278.031349E-3
277.954102E-3
278.022194E-3
277.965546E-3
277.893448E-3
278.110313E-3
278.011322E-3
278.149223E-3
278.176689E-3
278.138351E-3
278.138924E-3
278.191566E-3
278.307724E-3
278.330612E-3
278.347778E-3
278.497696E-3
278.470230E-3
278.737450E-3
278.766060E-3
278.756905E-3
278.974342E-3
278.885078E-3
278.977776E-3
279.101944E-3
279.037857E-3
278.972626E-3
278.596115E-3
278.299141E-3
277.606773E-3
276.824570E-3
276.106453E-3
275.321960E-3
274.828148E-3
274.322319E-3
273.976135E-3
274.052811E-3
274.034500E-3
274.322319E-3
274.501991E-3
274.760628E-3
275.067902E-3
275.212669E-3
275.553703E-3
275.596619E-3
275.570869E-3
275.559425E-3
275.460434E-3
275.517082E-3
275.489616E-3
275.438118E-3
275.582886E-3
275.628662E-3
275.859833E-3
276.049232E-3
276.147652E-3
276.226616E-3
276.151657E-3
276.140213E-3
276.073265E-3
275.814056E-3
275.761414E-3
275.582886E-3
275.690460E-3
275.570297E-3
275.565147E-3
275.697327E-3
275.708199E-3
275.886154E-3
276.009750E-3
276.126480E-3
276.366806E-3
276.422882E-3
276.699829E-3
276.830292E-3
276.829147E-3
276.976776E-3
277.046585E-3
277.103233E-3
277.153587E-3
277.029419E-3
277.152443E-3
277.210808E-3
277.371597E-3
277.403641E-3
277.360153E-3
277.488327E-3
277.372169E-3
277.435112E-3
277.403069E-3
277.436829E-3
277.581596E-3
277.554131E-3
277.651978E-3
277.631378E-3
277.371025E-3
277.482605E-3
277.482605E-3
277.694321E-3
277.653122E-3
277.635956E-3
277.823639E-3
277.779007E-3
277.849960E-3
278.009033E-3
278.096581E-3
278.256798E-3
278.360939E-3
278.571510E-3
278.611565E-3
278.586388E-3
278.755760E-3
278.774071E-3
278.766632E-3
278.927422E-3
278.781509E-3
278.594971E-3
278.136063E-3
277.663994E-3
277.002525E-3
276.018906E-3
275.543976E-3
274.798965E-3
274.486542E-3
274.226761E-3
274.040222E-3
274.213600E-3
274.427032E-3
274.642181E-3
274.887085E-3
275.186348E-3
275.557709E-3
275.617790E-3
275.841522E-3
275.934219E-3
275.930786E-3
275.996590E-3
275.992584E-3
275.959969E-3
276.161385E-3
276.139069E-3
276.389122E-3
276.448059E-3
276.675797E-3
276.731300E-3
276.651192E-3
276.768494E-3
276.543617E-3
276.515579E-3
276.315880E-3
276.075554E-3
276.121902E-3
275.973701E-3
275.982857E-3
276.124191E-3
276.101303E-3
276.349068E-3
276.330185E-3
276.567078E-3
276.671219E-3
276.850891E-3
277.146721E-3
277.187920E-3
277.233124E-3
277.526665E-3
277.559280E-3
277.744675E-3
277.625656E-3
277.750397E-3
277.922630E-3
277.789307E-3
278.009605E-3
277.934647E-3
277.972412E-3
278.059387E-3
277.840233E-3
278.132057E-3
278.098869E-3
278.050232E-3
278.126907E-3
277.982140E-3
278.217316E-3
278.054237E-3
278.080559E-3
278.250504E-3
278.142929E-3
278.314590E-3
278.204727E-3
278.271675E-3
278.376961E-3
278.269386E-3
278.444481E-3
278.381538E-3
278.419304E-3
278.550911E-3
278.473663E-3
278.783226E-3
278.824997E-3
279.026413E-3
279.159164E-3
279.196358E-3
279.217529E-3
279.107666E-3
279.081917E-3
279.004669E-3
278.638458E-3
278.296280E-3
277.484322E-3
276.595116E-3
275.942230E-3
275.034714E-3
274.740601E-3
274.234200E-3
274.049377E-3
274.171257E-3
274.059677E-3
274.440765E-3
274.604416E-3
274.870491E-3
275.168610E-3
275.040436E-3
275.469589E-3
275.513077E-3
275.515938E-3
275.692749E-3
275.622368E-3
275.784874E-3
275.662422E-3
275.585175E-3
275.716209E-3
275.842094E-3
276.141930E-3
276.214027E-3
276.288414E-3
276.464081E-3
276.363373E-3
276.424599E-3
276.196861E-3
276.082993E-3
276.135635E-3
275.990295E-3
275.944519E-3
275.912476E-3
275.897598E-3
276.055527E-3
276.052094E-3
276.274681E-3
276.373672E-3
276.429176E-3
276.625443E-3
276.707840E-3
276.940727E-3
277.075768E-3
277.072334E-3
277.241707E-3
277.213097E-3
277.412796E-3
277.353859E-3
277.359009E-3
277.349281E-3
277.318954E-3
277.502632E-3
277.427673E-3
277.458000E-3
277.545547E-3
277.485466E-3
277.655411E-3
277.527237E-3
277.486610E-3
277.585602E-3
277.531242E-3
277.657700E-3
277.535248E-3
277.560425E-3
277.658844E-3
277.536964E-3
277.669144E-3
277.644539E-3
277.667427E-3
277.780151E-3
277.781296E-3
277.886581E-3
277.906609E-3
277.883148E-3
278.059959E-3
278.037071E-3
278.417015E-3
278.455925E-3
278.439903E-3
278.644753E-3
278.643036E-3
278.693390E-3
278.714561E-3
278.511429E-3
278.387833E-3
277.989578E-3
277.562141E-3
276.872063E-3
276.119614E-3
275.391197E-3
274.683380E-3
274.288559E-3
273.939514E-3
273.819923E-3
273.948669E-3
273.938370E-3
274.331474E-3
274.518585E-3
274.564934E-3
274.919701E-3
275.024986E-3
275.208664E-3
275.315666E-3
275.318527E-3
275.281906E-3
275.236130E-3
275.372314E-3
275.392342E-3
275.385475E-3
275.537682E-3
275.589180E-3
275.904465E-3
276.022339E-3
276.125336E-3
276.100731E-3
275.977707E-3
275.949097E-3
275.793457E-3
275.528526E-3
275.467300E-3
275.211525E-3
275.336838E-3
275.410080E-3
275.295639E-3
275.481606E-3
275.510788E-3
275.796318E-3
276.053810E-3
276.149368E-3
276.371384E-3
276.218605E-3
276.469803E-3
276.657486E-3
276.754761E-3
276.988220E-3
276.984787E-3
276.991081E-3
277.096367E-3
276.937866E-3
277.094650E-3
277.052879E-3
277.159882E-3
277.211380E-3
277.218819E-3
277.313805E-3
277.272034E-3
277.413368E-3
277.413368E-3
277.394485E-3
277.474594E-3
277.397346E-3
277.429390E-3
277.488327E-3
277.360153E-3
277.534676E-3
277.464867E-3
277.605057E-3
277.652550E-3
277.641678E-3
277.757263E-3
277.677155E-3
277.880859E-3
277.994728E-3
278.086853E-3
278.293991E-3
278.237343E-3
278.410721E-3
278.489113E-3
278.446198E-3
278.438759E-3
278.336334E-3
278.332901E-3
278.033066E-3
277.501488E-3
277.032280E-3
276.220322E-3
275.530243E-3
274.888229E-3
274.170113E-3
273.896599E-3
273.683167E-3
273.775291E-3
273.948669E-3
274.073982E-3
274.479675E-3
274.535751E-3
274.857330E-3
275.011826E-3
275.200081E-3
275.427818E-3
275.347137E-3
275.493622E-3
275.490189E-3
275.309372E-3
275.436974E-3
275.539398E-3
275.629234E-3
275.804901E-3
275.966263E-3
276.143646E-3
276.233482E-3
276.312447E-3
276.321602E-3
276.178551E-3
276.064110E-3
275.886726E-3
275.816345E-3
275.723648E-3
275.716782E-3
275.800323E-3
275.865555E-3
275.917625E-3
276.198578E-3
276.068687E-3
276.243782E-3
276.311302E-3
276.569366E-3
276.803398E-3
276.821709E-3
277.060890E-3
277.126122E-3
277.301788E-3
277.436829E-3
277.332115E-3
277.349854E-3
277.379036E-3
277.557564E-3
277.606773E-3
277.309227E-3
277.581024E-3
277.560997E-3
277.658844E-3
277.682304E-3
277.603912E-3
277.765846E-3
277.696037E-3
277.678871E-3
277.689743E-3
277.639389E-3
277.864265E-3
277.706337E-3
277.784729E-3
277.888870E-3
277.752113E-3
277.947235E-3
277.908897E-3
277.959251E-3
278.145218E-3
278.018188E-3
278.323746E-3
278.294563E-3
278.332329E-3
278.483963E-3
278.546906E-3
278.772354E-3
278.812981E-3
278.905106E-3
278.923416E-3
278.704262E-3
278.495979E-3
277.936363E-3
277.262878E-3
276.603699E-3
275.768852E-3
275.331688E-3
274.590683E-3
274.107742E-3
274.016762E-3
273.914909E-3
274.135208E-3
274.195862E-3
274.388123E-3
274.633598E-3
274.847603E-3
275.113678E-3
275.255013E-3
275.350571E-3
275.479317E-3
275.375175E-3
275.424385E-3
275.260735E-3
275.145149E-3
275.258446E-3
275.375175E-3
275.645256E-3
275.747108E-3
275.873566E-3
276.124763E-3
276.174545E-3
276.248360E-3
276.069832E-3
275.905037E-3
275.882721E-3
275.678444E-3
275.756836E-3
275.641823E-3
275.561714E-3
275.684166E-3
275.668144E-3
275.913620E-3
275.856400E-3
276.018906E-3
276.160240E-3
276.258659E-3
276.481247E-3
276.564217E-3
276.649475E-3
276.897812E-3
276.898384E-3
277.103806E-3
276.992798E-3
277.061462E-3
277.087784E-3
277.123833E-3
277.254295E-3
277.155304E-3
277.220535E-3
277.284622E-3
277.317810E-3
277.474594E-3
277.446556E-3
277.314949E-3
277.493477E-3
277.482033E-3
277.575874E-3
277.476311E-3
277.552986E-3
277.595329E-3
277.484894E-3
277.623367E-3
277.599335E-3
277.691460E-3
277.782440E-3
277.741814E-3
277.829361E-3
277.908897E-3
277.942657E-3
278.120041E-3
277.931213E-3
278.263092E-3
278.434753E-3
278.597260E-3
278.746605E-3
278.630447E-3
278.874207E-3
278.878784E-3
278.878784E-3
278.727150E-3
278.481102E-3
278.331184E-3
277.784729E-3
277.242279E-3
276.633453E-3
275.773430E-3
275.256729E-3
274.715996E-3
274.320030E-3
274.170113E-3
274.164963E-3
274.380684E-3
274.645615E-3
274.859619E-3
275.170326E-3
275.398636E-3
275.671577E-3
275.692749E-3
275.695038E-3
275.807762E-3
275.411797E-3
275.612068E-3
275.786591E-3
275.647545E-3
275.626373E-3
275.667572E-3
275.940514E-3
276.117897E-3
276.323891E-3
276.585388E-3
276.497841E-3
276.511574E-3
276.367950E-3
276.092720E-3
275.946236E-3
275.838661E-3
275.899887E-3
275.963974E-3
275.897598E-3
276.050949E-3
276.063538E-3
276.347351E-3
276.489830E-3
276.494980E-3
276.715279E-3
276.878357E-3
277.124977E-3
277.284050E-3
277.328110E-3
277.571297E-3
277.593040E-3
277.758408E-3
277.834511E-3
277.776146E-3
277.827644E-3
277.795029E-3
277.932930E-3
278.033066E-3
277.994728E-3
278.057671E-3
278.005600E-3
278.078842E-3
278.169823E-3
278.135490E-3
278.226471E-3
278.137779E-3
278.170967E-3
278.220749E-3
278.161812E-3
278.295708E-3
278.195572E-3
278.302574E-3
278.439331E-3
278.327179E-3
