Notes :


2023-11-04 ¿ÀÈÄ 6:41:02
Volts
Ch : LED 2,
645.490837E-3
645.670509E-3
645.239067E-3
644.008255E-3
642.380905E-3
640.608215E-3
638.887024E-3
637.393570E-3
636.179352E-3
635.075569E-3
634.487915E-3
634.205818E-3
634.194374E-3
634.335136E-3
634.477043E-3
634.387207E-3
634.006691E-3
633.523178E-3
632.943535E-3
632.022858E-3
631.349373E-3
630.786896E-3
630.623817E-3
630.854988E-3
631.209755E-3
631.483841E-3
631.838608E-3
632.340431E-3
632.739830E-3
632.793045E-3
632.635689E-3
632.433128E-3
632.096672E-3
631.682396E-3
630.940247E-3
630.310249E-3
629.484558E-3
628.836823E-3
628.184509E-3
627.681541E-3
627.120209E-3
626.688766E-3
626.259613E-3
625.923729E-3
625.663376E-3
625.374413E-3
625.208473E-3
624.961853E-3
624.693489E-3
624.499512E-3
624.304390E-3
624.196815E-3
624.176216E-3
624.092102E-3
624.007416E-3
623.937035E-3
623.990822E-3
623.999405E-3
623.943329E-3
623.843765E-3
623.843765E-3
623.709297E-3
623.611450E-3
623.514748E-3
623.397446E-3
623.250389E-3
622.923660E-3
622.477341E-3
622.084236E-3
621.700859E-3
621.495438E-3
621.006203E-3
620.607376E-3
620.411682E-3
620.310402E-3
620.567894E-3
621.470261E-3
623.293304E-3
625.828171E-3
629.137802E-3
632.720947E-3
636.256027E-3
639.295578E-3
641.602707E-3
643.010902E-3
643.469238E-3
643.014908E-3
641.962051E-3
640.644836E-3
638.916206E-3
637.144661E-3
635.699844E-3
634.389496E-3
633.421326E-3
632.704353E-3
632.336426E-3
632.109261E-3
632.090378E-3
632.108688E-3
631.933022E-3
631.561661E-3
631.023788E-3
630.309105E-3
629.614449E-3
629.169846E-3
628.898621E-3
628.868294E-3
629.066849E-3
629.388428E-3
629.862213E-3
630.290222E-3
630.635262E-3
630.869293E-3
631.139374E-3
630.754852E-3
630.380058E-3
630.008698E-3
629.571533E-3
628.935814E-3
628.254890E-3
627.650642E-3
626.978302E-3
626.307678E-3
625.668526E-3
625.020790E-3
624.571037E-3
624.264908E-3
623.991966E-3
623.681831E-3
623.514175E-3
623.383713E-3
623.170280E-3
622.894478E-3
622.788048E-3
622.620964E-3
622.443581E-3
622.362328E-3
622.213554E-3
622.154617E-3
622.012711E-3
622.050476E-3
622.226715E-3
622.315979E-3
622.281647E-3
622.065353E-3
622.032166E-3
621.794128E-3
621.481133E-3
621.119499E-3
620.737267E-3
620.375633E-3
619.991684E-3
619.629478E-3
619.283867E-3
619.016075E-3
618.933678E-3
619.209480E-3
619.854355E-3
621.316910E-3
623.590851E-3
626.690483E-3
630.044746E-3
633.420753E-3
636.344719E-3
638.584900E-3
639.833450E-3
640.299225E-3
640.069771E-3
638.969421E-3
637.490273E-3
635.861778E-3
634.207535E-3
632.641411E-3
631.350517E-3
630.446434E-3
629.814148E-3
629.361534E-3
629.092026E-3
628.982735E-3
628.824806E-3
628.467178E-3
627.967072E-3
627.268410E-3
626.566315E-3
626.007843E-3
625.826454E-3
625.821304E-3
625.946045E-3
626.299095E-3
626.730537E-3
627.286720E-3
627.781677E-3
628.114128E-3
628.386497E-3
628.387070E-3
628.153038E-3
627.906418E-3
627.558517E-3
627.050972E-3
626.368332E-3
625.811005E-3
625.117493E-3
624.509239E-3
623.834038E-3
623.188591E-3
622.738838E-3
622.186661E-3
621.886253E-3
621.727753E-3
621.543503E-3
621.317482E-3
621.141815E-3
620.990753E-3
620.865440E-3
620.825386E-3
620.650291E-3
620.672035E-3
620.737839E-3
620.581055E-3
620.504951E-3
620.522118E-3
620.572472E-3
620.606804E-3
620.663452E-3
620.565033E-3
620.700645E-3
620.613670E-3
620.591927E-3
620.522690E-3
620.487785E-3
620.269775E-3
620.028877E-3
619.730186E-3
619.413757E-3
618.855286E-3
618.349457E-3
617.963791E-3
617.529488E-3
617.245102E-3
617.061996E-3
617.013359E-3
617.087746E-3
617.471695E-3
618.840981E-3
620.880318E-3
623.749352E-3
627.192307E-3
630.807495E-3
634.147453E-3
636.692047E-3
638.498497E-3
639.383698E-3
639.237213E-3
638.382339E-3
636.812210E-3
635.065842E-3
633.326340E-3
631.680107E-3
630.206108E-3
628.881454E-3
628.281212E-3
627.679253E-3
627.284431E-3
626.929092E-3
626.656151E-3
626.688194E-3
626.501083E-3
625.781250E-3
625.181007E-3
624.792480E-3
624.637413E-3
624.704361E-3
624.865723E-3
625.273705E-3
625.701714E-3
626.395798E-3
626.859283E-3
627.323341E-3
627.432060E-3
627.556229E-3
627.496719E-3
627.132225E-3
626.485634E-3
625.898552E-3
625.302887E-3
624.493217E-3
623.859215E-3
623.009491E-3
622.199821E-3
621.614456E-3
621.181870E-3
620.769310E-3
620.427132E-3
620.261765E-3
619.926453E-3
619.910431E-3
619.713020E-3
619.531631E-3
619.508743E-3
619.322205E-3
619.314194E-3
619.293022E-3
619.232368E-3
618.908501E-3
618.779755E-3
618.804932E-3
618.747139E-3
618.770027E-3
618.669891E-3
618.620110E-3
618.636703E-3
618.753433E-3
618.889046E-3
618.533134E-3
618.180084E-3
618.054199E-3
617.803001E-3
617.498589E-3
616.979599E-3
616.485214E-3
616.068649E-3
615.800285E-3
615.412903E-3
615.326500E-3
615.412903E-3
615.832329E-3
617.025375E-3
618.982315E-3
621.552086E-3
624.872589E-3
628.464317E-3
631.874657E-3
634.704208E-3
636.681175E-3
637.711143E-3
637.881660E-3
637.260818E-3
635.740471E-3
634.394073E-3
632.901764E-3
631.158829E-3
629.707146E-3
628.407097E-3
627.557945E-3
626.937675E-3
626.488495E-3
626.387787E-3
626.214409E-3
626.269913E-3
626.269341E-3
625.980949E-3
625.463676E-3
624.801636E-3
624.254608E-3
624.010849E-3
623.835754E-3
624.024010E-3
624.211121E-3
624.734116E-3
625.234222E-3
625.542641E-3
625.768089E-3
625.762939E-3
625.713158E-3
625.574112E-3
625.237656E-3
624.754143E-3
624.283791E-3
623.903275E-3
623.402023E-3
622.638702E-3
621.881104E-3
621.383286E-3
620.939255E-3
620.356178E-3
619.719887E-3
619.330788E-3
619.003487E-3
618.901062E-3
618.566895E-3
618.665314E-3
618.309975E-3
618.067360E-3
618.180084E-3
618.103981E-3
617.986107E-3
618.039894E-3
617.905426E-3
617.796707E-3
617.847633E-3
617.693138E-3
617.585564E-3
617.379570E-3
617.365837E-3
617.270851E-3
617.263985E-3
617.305183E-3
617.301178E-3
617.506599E-3
617.498016E-3
617.429352E-3
617.285728E-3
617.138100E-3
616.790199E-3
616.494942E-3
616.172218E-3
615.895844E-3
615.685844E-3
615.604019E-3
615.475845E-3
615.182877E-3
614.944267E-3
614.719391E-3
614.632988E-3
614.677620E-3
615.335655E-3
617.009926E-3
619.770813E-3
623.426056E-3
627.144241E-3
631.006622E-3
634.260178E-3
636.731529E-3
638.271904E-3
638.789177E-3
638.424683E-3
637.359810E-3
635.943031E-3
634.339142E-3
632.734680E-3
631.234360E-3
629.905701E-3
628.737831E-3
628.135300E-3
627.645493E-3
627.313042E-3
627.235794E-3
627.368546E-3
627.507591E-3
627.473831E-3
627.226639E-3
626.800919E-3
626.236153E-3
625.687408E-3
625.316048E-3
624.933815E-3
624.702072E-3
624.666595E-3
624.692345E-3
624.763870E-3
625.024223E-3
625.230789E-3
625.536919E-3
625.613022E-3
625.436783E-3
625.111771E-3
624.759865E-3
624.139595E-3
623.708153E-3
623.161125E-3
622.392082E-3
621.719742E-3
621.282005E-3
620.657158E-3
620.039177E-3
619.385147E-3
619.229507E-3
618.800926E-3
618.604088E-3
618.511963E-3
618.492508E-3
618.350601E-3
618.419838E-3
618.411255E-3
618.288231E-3
618.322563E-3
617.987823E-3
617.864799E-3
617.693710E-3
617.499733E-3
617.151833E-3
617.091751E-3
617.019081E-3
616.984177E-3
616.678047E-3
616.866302E-3
616.881180E-3
616.742134E-3
616.810799E-3
616.678619E-3
616.487503E-3
616.272354E-3
616.070366E-3
615.836334E-3
615.579414E-3
615.079308E-3
614.951134E-3
614.925385E-3
614.961433E-3
614.622688E-3
614.493942E-3
614.332581E-3
614.314842E-3
614.065361E-3
613.749504E-3
613.577271E-3
613.453674E-3
613.493729E-3
613.856506E-3
614.723969E-3
616.624260E-3
619.670677E-3
623.097610E-3
626.910782E-3
630.415535E-3
633.453941E-3
635.616302E-3
636.754990E-3
636.960411E-3
636.274338E-3
634.911919E-3
633.346367E-3
631.621170E-3
629.926872E-3
628.361893E-3
627.011490E-3
626.128006E-3
625.532913E-3
625.229073E-3
625.191879E-3
625.366974E-3
625.575256E-3
625.629044E-3
625.528336E-3
625.095749E-3
624.457741E-3
623.895836E-3
623.364830E-3
623.078728E-3
623.002052E-3
623.151398E-3
623.602295E-3
624.132156E-3
624.823380E-3
625.108337E-3
625.209618E-3
625.215340E-3
625.164413E-3
624.924088E-3
624.431419E-3
623.895836E-3
623.256683E-3
622.758865E-3
622.017288E-3
621.370125E-3
620.720673E-3
620.235443E-3
619.801140E-3
619.413757E-3
619.073296E-3
618.780899E-3
618.779182E-3
618.570900E-3
618.555450E-3
618.510818E-3
618.352890E-3
618.216133E-3
618.083954E-3
618.061638E-3
618.040466E-3
617.726898E-3
617.798996E-3
617.931175E-3
618.144035E-3
618.263054E-3
618.137741E-3
618.001556E-3
617.889404E-3
617.803001E-3
617.500305E-3
617.415619E-3
617.520332E-3
617.507744E-3
617.625618E-3
617.866516E-3
617.944336E-3
618.100548E-3
617.709160E-3
617.490005E-3
617.381287E-3
617.150116E-3
616.669464E-3
616.180229E-3
615.853500E-3
615.653801E-3
615.335655E-3
614.781761E-3
614.385223E-3
614.313126E-3
614.444160E-3
614.450455E-3
614.698792E-3
615.475845E-3
617.257690E-3
619.952202E-3
623.271561E-3
626.699066E-3
629.992104E-3
632.754135E-3
634.780884E-3
635.851479E-3
636.092949E-3
635.399437E-3
634.075928E-3
632.423973E-3
630.833244E-3
629.248810E-3
627.830315E-3
626.655579E-3
625.785828E-3
625.387573E-3
625.106049E-3
625.037384E-3
624.956703E-3
624.931526E-3
624.669456E-3
624.426270E-3
623.769379E-3
623.176003E-3
622.699356E-3
622.390938E-3
622.505951E-3
622.856712E-3
623.317909E-3
623.838615E-3
624.438286E-3
625.041389E-3
625.464249E-3
625.777245E-3
625.573540E-3
625.325775E-3
625.018501E-3
624.344444E-3
623.548508E-3
622.802353E-3
622.338295E-3
621.617889E-3
620.961571E-3
620.369339E-3
619.846344E-3
619.466400E-3
619.023514E-3
618.707085E-3
618.596649E-3
618.499947E-3
618.435287E-3
618.407822E-3
618.177223E-3
618.089104E-3
617.900848E-3
617.842484E-3
618.054199E-3
617.705154E-3
617.554665E-3
617.539787E-3
617.421341E-3
617.490005E-3
617.429352E-3
617.284584E-3
617.132378E-3
616.727257E-3
616.845131E-3
616.836548E-3
616.760445E-3
616.712379E-3
616.702652E-3
616.829109E-3
616.695213E-3
616.472054E-3
616.220856E-3
615.978813E-3
615.768242E-3
615.431786E-3
615.193176E-3
614.986610E-3
614.717674E-3
614.545441E-3
614.274788E-3
613.775826E-3
613.479996E-3
613.083458E-3
612.709236E-3
612.479210E-3
612.819672E-3
613.371849E-3
614.477348E-3
616.553879E-3
619.507599E-3
623.397446E-3
627.366257E-3
630.637550E-3
633.530045E-3
635.533333E-3
636.622810E-3
637.128067E-3
636.016273E-3
634.566307E-3
632.944107E-3
631.326485E-3
629.908562E-3
628.323555E-3
627.269554E-3
626.670456E-3
626.267052E-3
626.261330E-3
626.363182E-3
626.671028E-3
626.921082E-3
627.030373E-3
627.041817E-3
626.656723E-3
625.888252E-3
625.247955E-3
624.318123E-3
623.648643E-3
623.219490E-3
623.144531E-3
623.054695E-3
623.303032E-3
623.895264E-3
624.481201E-3
624.683762E-3
625.052261E-3
625.079727E-3
624.910927E-3
624.419975E-3
623.867798E-3
623.258400E-3
622.765732E-3
622.238159E-3
621.514893E-3
621.077156E-3
620.662880E-3
620.048904E-3
619.668961E-3
619.428635E-3
619.111061E-3
618.738556E-3
618.509102E-3
618.544579E-3
618.573189E-3
618.498230E-3
618.378067E-3
618.413544E-3
618.367767E-3
618.313980E-3
618.133736E-3
617.929459E-3
617.752647E-3
617.750931E-3
617.669106E-3
617.646217E-3
617.635918E-3
617.619896E-3
617.665672E-3
617.507744E-3
617.345238E-3
617.139816E-3
616.959572E-3
616.892052E-3
616.740990E-3
616.680908E-3
616.699219E-3
616.545868E-3
616.433716E-3
616.071510E-3
615.917015E-3
615.822601E-3
615.492439E-3
615.305901E-3
615.158844E-3
614.875603E-3
614.597511E-3
614.367485E-3
614.115715E-3
613.866806E-3
613.681412E-3
613.576698E-3
613.870239E-3
614.717102E-3
616.307831E-3
618.681335E-3
621.959496E-3
625.169563E-3
628.593636E-3
631.622887E-3
633.933449E-3
635.373688E-3
635.874367E-3
635.568810E-3
634.490776E-3
633.094597E-3
631.481552E-3
629.807281E-3
628.448296E-3
627.228355E-3
626.511955E-3
626.003838E-3
625.974655E-3
625.932312E-3
626.129150E-3
626.297951E-3
626.383781E-3
626.226425E-3
625.797844E-3
625.098610E-3
624.343300E-3
623.725891E-3
622.933960E-3
622.782326E-3
622.847557E-3
623.107910E-3
623.448944E-3
623.926735E-3
624.435425E-3
624.862289E-3
625.193596E-3
625.110626E-3
624.890327E-3
624.520683E-3
624.025726E-3
623.491287E-3
622.928810E-3
622.394371E-3
621.914291E-3
621.755219E-3
621.171570E-3
620.684624E-3
620.324707E-3
619.993401E-3
619.709015E-3
619.360542E-3
619.044113E-3
618.787193E-3
618.571472E-3
618.425560E-3
618.307686E-3
618.313980E-3
618.252754E-3
618.098831E-3
618.011856E-3
618.052483E-3
618.089104E-3
617.926025E-3
617.849350E-3
618.038177E-3
618.097687E-3
618.065643E-3
617.743492E-3
617.762947E-3
617.741203E-3
617.515755E-3
617.225647E-3
616.932678E-3
616.783905E-3
616.698647E-3
616.708374E-3
616.656876E-3
616.462326E-3
616.450882E-3
616.498375E-3
616.468048E-3
616.370201E-3
616.041756E-3
615.934753E-3
615.814590E-3
615.622902E-3
615.228081E-3
614.689636E-3
614.499664E-3
614.313126E-3
614.099693E-3
613.993263E-3
613.917732E-3
613.985825E-3
614.318275E-3
615.054703E-3
616.385651E-3
618.953133E-3
622.320557E-3
625.764656E-3
629.088593E-3
632.008553E-3
634.065628E-3
635.105324E-3
635.301018E-3
634.933662E-3
633.786392E-3
632.279778E-3
630.742836E-3
629.251671E-3
627.770805E-3
626.527977E-3
625.461960E-3
624.773598E-3
624.380493E-3
624.169922E-3
624.140167E-3
624.118996E-3
624.211121E-3
624.084091E-3
623.817444E-3
623.325920E-3
622.895050E-3
622.594070E-3
622.575760E-3
622.797203E-3
623.111916E-3
623.643494E-3
624.099541E-3
624.536133E-3
624.977875E-3
625.068283E-3
624.960136E-3
624.720383E-3
624.282646E-3
623.757362E-3
623.028374E-3
622.424698E-3
621.952057E-3
621.303749E-3
620.663452E-3
620.198250E-3
619.933319E-3
619.568825E-3
619.033241E-3
618.470192E-3
618.084526E-3
617.947197E-3
617.797852E-3
617.614174E-3
617.521477E-3
617.506027E-3
617.532349E-3
617.374992E-3
617.217636E-3
616.942978E-3
617.064285E-3
617.060280E-3
616.972160E-3
616.778755E-3
616.846275E-3
616.749573E-3
616.664314E-3
616.462326E-3
616.607094E-3
616.209412E-3
615.970802E-3
615.644073E-3
615.518761E-3
615.439796E-3
615.335655E-3
615.308762E-3
615.232658E-3
615.194893E-3
615.092468E-3
614.978600E-3
614.791489E-3
614.484215E-3
614.122009E-3
613.712883E-3
613.359261E-3
613.024521E-3
612.737846E-3
612.724686E-3
612.761879E-3
612.948990E-3
613.523483E-3
614.608955E-3
616.556740E-3
619.245529E-3
622.530556E-3
626.212692E-3
629.117203E-3
631.854630E-3
633.689690E-3
634.745407E-3
634.894180E-3
634.354591E-3
633.294868E-3
631.799126E-3
630.043602E-3
628.805923E-3
627.544212E-3
626.605797E-3
625.854492E-3
625.464249E-3
625.333786E-3
625.246239E-3
625.464821E-3
625.635910E-3
625.744057E-3
625.705147E-3
625.419044E-3
624.869728E-3
624.120140E-3
623.361969E-3
623.037529E-3
622.622681E-3
622.508812E-3
622.615814E-3
622.876740E-3
623.205185E-3
623.535919E-3
623.835182E-3
623.947906E-3
624.161911E-3
623.884392E-3
623.367119E-3
622.979164E-3
622.441864E-3
621.886253E-3
621.335793E-3
620.712662E-3
