Notes :


2023-11-10 ¿ÀÈÄ 11:30:15
Volts
Ch : LED 2,
64.647675E-3
64.459419E-3
64.319801E-3
64.264297E-3
64.306068E-3
64.303780E-3
64.440536E-3
64.476013E-3
64.599037E-3
64.644814E-3
64.521790E-3
64.505196E-3
64.229965E-3
64.041710E-3
63.799095E-3
63.618279E-3
63.484955E-3
63.401985E-3
63.435173E-3
63.585663E-3
63.970757E-3
63.932419E-3
63.859749E-3
63.868332E-3
63.976479E-3
63.855743E-3
63.816261E-3
63.755608E-3
63.612556E-3
63.721275E-3
63.432312E-3
63.346481E-3
63.162804E-3
63.101006E-3
63.029480E-3
62.811470E-3
62.871552E-3
62.721062E-3
62.648964E-3
62.678146E-3
62.565422E-3
62.655258E-3
62.625504E-3
62.498474E-3
62.509346E-3
62.424088E-3
62.426376E-3
62.206078E-3
62.275887E-3
62.342834E-3
62.138557E-3
62.280464E-3
62.155724E-3
62.235832E-3
62.206650E-3
62.023544E-3
62.423515E-3
62.215805E-3
62.042999E-3
62.024689E-3
61.941147E-3
61.968613E-3
61.892509E-3
61.964607E-3
62.011528E-3
61.656189E-3
61.788940E-3
61.723709E-3
61.719704E-3
61.754608E-3
61.528587E-3
61.691093E-3
61.587524E-3
61.620712E-3
61.714554E-3
61.501122E-3
61.522293E-3
61.424446E-3
61.444473E-3
61.460495E-3
61.330605E-3
61.378670E-3
61.335182E-3
61.269951E-3
61.270523E-3
61.016464E-3
61.085701E-3
60.978127E-3
60.952950E-3
61.034775E-3
60.862541E-3
61.044502E-3
61.209297E-3
61.365509E-3
61.884499E-3
62.446404E-3
63.366508E-3
64.259720E-3
65.056801E-3
65.758896E-3
66.085052E-3
66.445541E-3
66.367149E-3
66.140556E-3
65.988350E-3
65.535736E-3
65.321159E-3
64.930344E-3
64.826202E-3
64.613342E-3
64.336967E-3
64.331818E-3
64.308929E-3
64.389038E-3
64.537811E-3
64.502335E-3
64.605331E-3
64.517784E-3
64.566994E-3
64.477158E-3
64.175606E-3
64.005089E-3
63.799095E-3
63.585663E-3
63.545036E-3
63.554764E-3
63.773346E-3
63.770485E-3
63.848305E-3
63.947296E-3
64.041138E-3
64.109230E-3
64.120102E-3
64.074898E-3
64.031410E-3
63.821983E-3
63.784790E-3
63.633728E-3
63.500977E-3
63.523293E-3
63.286400E-3
63.248634E-3
63.123322E-3
63.146210E-3
63.163948E-3
62.936783E-3
62.908173E-3
62.811470E-3
62.813759E-3
62.866974E-3
62.729073E-3
62.732506E-3
62.658691E-3
62.654114E-3
62.607193E-3
62.456131E-3
62.521935E-3
62.450981E-3
62.306786E-3
62.395477E-3
62.215233E-3
62.320518E-3
62.362862E-3
62.299347E-3
62.304497E-3
62.196922E-3
62.272453E-3
62.198067E-3
62.127686E-3
62.159157E-3
61.996078E-3
61.926842E-3
61.949730E-3
61.873627E-3
61.953735E-3
61.786652E-3
61.873627E-3
61.808968E-3
61.718559E-3
61.751175E-3
61.530304E-3
61.678505E-3
61.677933E-3
61.550903E-3
61.570358E-3
61.407280E-3
61.465645E-3
61.358070E-3
61.306572E-3
61.348343E-3
61.171532E-3
61.196136E-3
61.086845E-3
60.985565E-3
61.021042E-3
60.912895E-3
60.988998E-3
61.074829E-3
61.356926E-3
61.853027E-3
62.430954E-3
63.275528E-3
64.126396E-3
64.889145E-3
65.606689E-3
65.875626E-3
66.226387E-3
66.279602E-3
66.099358E-3
65.937424E-3
65.465927E-3
65.274239E-3
64.944649E-3
64.577866E-3
64.451981E-3
64.219093E-3
64.184189E-3
64.102936E-3
64.164162E-3
64.334106E-3
64.253998E-3
64.414215E-3
64.408493E-3
64.383316E-3
64.311790E-3
63.921547E-3
63.897514E-3
63.621712E-3
63.370514E-3
63.356209E-3
63.253212E-3
63.475800E-3
63.717842E-3
63.776207E-3
63.908958E-3
63.885498E-3
64.070892E-3
63.927269E-3
63.806534E-3
63.837433E-3
63.601112E-3
63.397408E-3
63.408279E-3
63.293266E-3
63.237190E-3
63.048935E-3
62.995720E-3
62.882423E-3
62.747955E-3
62.752533E-3
62.632942E-3
62.663269E-3
62.578583E-3
62.475014E-3
62.575722E-3
62.439537E-3
62.431526E-3
62.364578E-3
62.291336E-3
62.417221E-3
62.208366E-3
62.262726E-3
62.224388E-3
62.086487E-3
62.234116E-3
62.086487E-3
62.172890E-3
62.130547E-3
61.981201E-3
62.063599E-3
61.914825E-3
61.984634E-3
61.897087E-3
61.799812E-3
61.941147E-3
61.770630E-3
61.806107E-3
61.779785E-3
61.754608E-3
61.792374E-3
61.597824E-3
61.663055E-3
61.608696E-3
61.491394E-3
61.529732E-3
61.430740E-3
61.445045E-3
61.442184E-3
61.327744E-3
61.379814E-3
61.256790E-3
61.403847E-3
61.316299E-3
61.224747E-3
61.368370E-3
61.177826E-3
61.149788E-3
61.074829E-3
61.045074E-3
61.038208E-3
60.903740E-3
60.922623E-3
60.730934E-3
60.670280E-3
60.829353E-3
60.800171E-3
60.965538E-3
61.270523E-3
61.704826E-3
62.576294E-3
63.480377E-3
64.384460E-3
65.191841E-3
65.713692E-3
66.221237E-3
66.420364E-3
66.437531E-3
66.273880E-3
65.956879E-3
65.794945E-3
65.479660E-3
65.106010E-3
64.872551E-3
64.687157E-3
64.569855E-3
64.490318E-3
64.548111E-3
64.548683E-3
64.637947E-3
64.920616E-3
64.854813E-3
64.896584E-3
64.929199E-3
64.808464E-3
64.686584E-3
64.341545E-3
64.080048E-3
63.864326E-3
63.725281E-3
63.707542E-3
63.622284E-3
63.661766E-3
63.808823E-3
63.817978E-3
64.049721E-3
64.020538E-3
64.073753E-3
64.134979E-3
64.032555E-3
64.030266E-3
63.901520E-3
63.846016E-3
63.668633E-3
63.557053E-3
63.526726E-3
63.356209E-3
63.409996E-3
63.202858E-3
63.058090E-3
63.031197E-3
62.909317E-3
62.890434E-3
62.943077E-3
62.778854E-3
62.819481E-3
62.745667E-3
62.687302E-3
62.652969E-3
62.551117E-3
62.644386E-3
62.586594E-3
62.578583E-3
62.523651E-3
62.457275E-3
62.491608E-3
62.367439E-3
62.350845E-3
62.410355E-3
62.212372E-3
62.353134E-3
62.281609E-3
62.255859E-3
62.243843E-3
62.214088E-3
62.286186E-3
62.079620E-3
62.056732E-3
62.074471E-3
62.045288E-3
62.076759E-3
61.993217E-3
61.922836E-3
61.913681E-3
61.846161E-3
61.844444E-3
61.740875E-3
61.738586E-3
61.795807E-3
61.734009E-3
61.874771E-3
61.724854E-3
61.636734E-3
61.672783E-3
61.541176E-3
61.574936E-3
61.503410E-3
61.483383E-3
61.465645E-3
61.459923E-3
61.384392E-3
61.187553E-3
61.189270E-3
61.186981E-3
61.100006E-3
61.065102E-3
61.051369E-3
61.148071E-3
61.367798E-3
61.367226E-3
61.881638E-3
62.509346E-3
63.317871E-3
64.220238E-3
64.978409E-3
65.674210E-3
66.061592E-3
66.143990E-3
66.256142E-3
66.050148E-3
65.962601E-3
65.602684E-3
65.283394E-3
65.049934E-3
64.699173E-3
64.490318E-3
64.419365E-3
64.331818E-3
64.400482E-3
64.381599E-3
64.498329E-3
64.547539E-3
64.636803E-3
64.640808E-3
64.553261E-3
64.445686E-3
64.210510E-3
63.957596E-3
63.811111E-3
63.607407E-3
63.530731E-3
63.472939E-3
63.638878E-3
63.793945E-3
63.747597E-3
63.973045E-3
64.015961E-3
63.970757E-3
64.097214E-3
63.987923E-3
63.955307E-3
63.787651E-3
63.745308E-3
63.749313E-3
63.522720E-3
63.507271E-3
63.344193E-3
63.233757E-3
63.104439E-3
62.939644E-3
62.976837E-3
62.964821E-3
62.921906E-3
62.861824E-3
62.684441E-3
62.773132E-3
62.625504E-3
62.562561E-3
62.572289E-3
62.461853E-3
62.479019E-3
62.387466E-3
62.310219E-3
62.395477E-3
62.236404E-3
62.299919E-3
62.222672E-3
62.158012E-3
62.215233E-3
62.070465E-3
62.127686E-3
62.029266E-3
61.947441E-3
62.037849E-3
61.941147E-3
61.994934E-3
61.879921E-3
61.800957E-3
61.818123E-3
61.680222E-3
61.747169E-3
61.610413E-3
61.607552E-3
61.643028E-3
61.538315E-3
61.569214E-3
61.660767E-3
61.557198E-3
61.495972E-3
61.382103E-3
61.425591E-3
61.371231E-3
61.331177E-3
61.318588E-3
61.178398E-3
61.277962E-3
61.109734E-3
61.083412E-3
61.050797E-3
60.929489E-3
60.996437E-3
60.930634E-3
60.953522E-3
61.004448E-3
61.083984E-3
61.434174E-3
61.952019E-3
62.690735E-3
63.619995E-3
64.316368E-3
65.144348E-3
65.661621E-3
66.102219E-3
66.420364E-3
66.212654E-3
66.070175E-3
65.756607E-3
65.348625E-3
65.103722E-3
64.639091E-3
64.519501E-3
64.340973E-3
64.349556E-3
64.280891E-3
64.231110E-3
64.366150E-3
64.464569E-3
64.507484E-3
64.628220E-3
64.539528E-3
64.523506E-3
64.314651E-3
64.082909E-3
63.924980E-3
63.630867E-3
63.593674E-3
63.439178E-3
63.418579E-3
63.487244E-3
63.504410E-3
63.662338E-3
63.786507E-3
63.751602E-3
63.883209E-3
63.800812E-3
63.830566E-3
63.807106E-3
63.668060E-3
63.636589E-3
63.459206E-3
63.449478E-3
63.321877E-3
63.091278E-3
63.055801E-3
62.870979E-3
62.831497E-3
62.775993E-3
62.632370E-3
62.810898E-3
62.645531E-3
62.639236E-3
62.535095E-3
62.519073E-3
62.557411E-3
62.428093E-3
62.450409E-3
62.355423E-3
62.243843E-3
62.281036E-3
62.104797E-3
62.222672E-3
62.099648E-3
62.085915E-3
62.060738E-3
61.859894E-3
61.933136E-3
61.990356E-3
61.870193E-3
61.926842E-3
61.818695E-3
61.861038E-3
61.869621E-3
61.768913E-3
61.647034E-3
61.565208E-3
61.710548E-3
61.662483E-3
61.574364E-3
61.635590E-3
61.528587E-3
61.564636E-3
61.460495E-3
61.378670E-3
61.386108E-3
61.236763E-3
61.332321E-3
61.309433E-3
61.338615E-3
61.323166E-3
61.258507E-3
61.225319E-3
61.070824E-3
61.055946E-3
61.154366E-3
61.073685E-3
61.037064E-3
61.005592E-3
60.855675E-3
60.848808E-3
60.729218E-3
60.752678E-3
60.719490E-3
60.606194E-3
60.706329E-3
60.906601E-3
61.212158E-3
61.675644E-3
62.266731E-3
63.272095E-3
64.043999E-3
64.970398E-3
65.658188E-3
65.897942E-3
66.245270E-3
66.081047E-3
66.057587E-3
65.727997E-3
65.352631E-3
65.112305E-3
64.755249E-3
64.619637E-3
64.449120E-3
64.267159E-3
64.304924E-3
64.284325E-3
64.432526E-3
64.562416E-3
64.562988E-3
64.732933E-3
64.703178E-3
64.788437E-3
64.768982E-3
64.527512E-3
64.380455E-3
64.002228E-3
63.799667E-3
63.582802E-3
63.498116E-3
63.534737E-3
63.446045E-3
63.708115E-3
63.863754E-3
63.809395E-3
63.903809E-3
63.923836E-3
63.990784E-3
63.925552E-3
63.730431E-3
63.737869E-3
63.624573E-3
63.570213E-3
63.444328E-3
63.278961E-3
63.286400E-3
63.107300E-3
63.070107E-3
63.003731E-3
62.885284E-3
62.847519E-3
62.734222E-3
62.790298E-3
62.674713E-3
62.543678E-3
62.663841E-3
62.472725E-3
62.650681E-3
62.523651E-3
62.444115E-3
62.509918E-3
62.333107E-3
62.453842E-3
62.322235E-3
62.204361E-3
62.254715E-3
62.136841E-3
62.167168E-3
62.141418E-3
62.059593E-3
62.198639E-3
61.894226E-3
62.040138E-3
61.954308E-3
61.821556E-3
61.916542E-3
61.849594E-3
61.882210E-3
61.804962E-3
61.742592E-3
61.813545E-3
61.689949E-3
61.715126E-3
61.705971E-3
61.579514E-3
61.675644E-3
61.504555E-3
61.511993E-3
61.537743E-3
61.535454E-3
61.538887E-3
61.430168E-3
61.415291E-3
61.388969E-3
61.215591E-3
61.284828E-3
61.300850E-3
61.275101E-3
61.212158E-3
61.031342E-3
61.106300E-3
60.978127E-3
60.998154E-3
60.956383E-3
60.854530E-3
61.044502E-3
60.940361E-3
60.984993E-3
61.170387E-3
61.514854E-3
62.214661E-3
62.976837E-3
63.882637E-3
64.595604E-3
65.173531E-3
65.665627E-3
65.877914E-3
65.830994E-3
65.754890E-3
65.534019E-3
65.277100E-3
64.829063E-3
64.516068E-3
64.246559E-3
63.955307E-3
64.011955E-3
63.842010E-3
63.813972E-3
63.866615E-3
63.828850E-3
64.005661E-3
64.078903E-3
63.945007E-3
64.043427E-3
63.839149E-3
63.722992E-3
63.439751E-3
63.257790E-3
63.224030E-3
63.057518E-3
63.142776E-3
63.184547E-3
63.315582E-3
63.487816E-3
63.527298E-3
63.710976E-3
63.614273E-3
63.593102E-3
63.631439E-3
63.441467E-3
63.580513E-3
63.365936E-3
63.161659E-3
63.055801E-3
62.881279E-3
62.841225E-3
62.609482E-3
62.522507E-3
62.606049E-3
62.363434E-3
62.506485E-3
62.372589E-3
62.319946E-3
62.330246E-3
62.203217E-3
62.297630E-3
62.155724E-3
62.097931E-3
62.289619E-3
62.100792E-3
62.029266E-3
61.902237E-3
61.877632E-3
61.812973E-3
61.840439E-3
61.800957E-3
61.750603E-3
61.620712E-3
61.712265E-3
61.617851E-3
61.630440E-3
61.558914E-3
61.598969E-3
61.597824E-3
61.467361E-3
61.517715E-3
61.477661E-3
61.407852E-3
61.411285E-3
61.318016E-3
61.342049E-3
61.209869E-3
61.222458E-3
61.244774E-3
61.168671E-3
61.328316E-3
61.191559E-3
61.172676E-3
61.160660E-3
61.102867E-3
61.062813E-3
60.937500E-3
60.914040E-3
60.900879E-3
60.954666E-3
60.910034E-3
60.728645E-3
60.616493E-3
60.732079E-3
60.568428E-3
60.610199E-3
60.573006E-3
60.663986E-3
60.757256E-3
61.094284E-3
61.676216E-3
62.351990E-3
63.193130E-3
64.116096E-3
64.778709E-3
65.416718E-3
65.687370E-3
65.785217E-3
65.790939E-3
65.594673E-3
65.353203E-3
64.965248E-3
64.633942E-3
64.441109E-3
63.991928E-3
63.984489E-3
63.930130E-3
63.829422E-3
63.927841E-3
63.881493E-3
64.033127E-3
64.120674E-3
64.214516E-3
64.238548E-3
64.205933E-3
64.193344E-3
63.868904E-3
63.732147E-3
63.543320E-3
63.256073E-3
63.252640E-3
63.212585E-3
63.291550E-3
63.368797E-3
63.335037E-3
63.521576E-3
63.562775E-3
63.624001E-3
63.648033E-3
63.504982E-3
63.523293E-3
63.656044E-3
63.445473E-3
63.311005E-3
63.133621E-3
63.070107E-3
62.900162E-3
62.912178E-3
62.829781E-3
62.632370E-3
62.691307E-3
62.532234E-3
62.429237E-3
62.433815E-3
62.275887E-3
62.278175E-3
62.227249E-3
62.089920E-3
62.158585E-3
62.062454E-3
62.089920E-3
61.988640E-3
61.975479E-3
62.016106E-3
61.887932E-3
61.937714E-3
61.814690E-3
61.775780E-3
61.944580E-3
61.787796E-3
61.755180E-3
61.684227E-3
61.667061E-3
61.685371E-3
61.570358E-3
61.649323E-3
61.540031E-3
61.520004E-3
61.506271E-3
61.322594E-3
61.412430E-3
61.347198E-3
61.328316E-3
61.354637E-3
61.196136E-3
61.263084E-3
61.297989E-3
61.225319E-3
61.207581E-3
61.062813E-3
61.040497E-3
61.128044E-3
61.073112E-3
61.113167E-3
60.975266E-3
61.067390E-3
60.992432E-3
60.939789E-3
60.935783E-3
60.756111E-3
60.749245E-3
60.692024E-3
60.543251E-3
60.547829E-3
60.491180E-3
60.495186E-3
60.501480E-3
60.617638E-3
61.026764E-3
61.378670E-3
62.147141E-3
62.832069E-3
63.740730E-3
64.633369E-3
65.167809E-3
65.667343E-3
65.876770E-3
65.793228E-3
65.690231E-3
65.372086E-3
65.107727E-3
64.760971E-3
64.537811E-3
64.373589E-3
64.078903E-3
64.059448E-3
63.988495E-3
64.001083E-3
64.113235E-3
64.232254E-3
64.324379E-3
64.439964E-3
64.418221E-3
64.453697E-3
64.290619E-3
64.268303E-3
64.003372E-3
63.784790E-3
63.634872E-3
63.340759E-3
63.302422E-3
63.268089E-3
63.319588E-3
63.479233E-3
63.509560E-3
63.625145E-3
63.760757E-3
63.608551E-3
63.752174E-3
63.638306E-3
63.693237E-3
63.563919E-3
63.424301E-3
63.359642E-3
63.216591E-3
63.142776E-3
63.048363E-3
62.901878E-3
62.897873E-3
62.707329E-3
62.711906E-3
62.599182E-3
62.525940E-3
62.601471E-3
62.445259E-3
62.385178E-3
62.354279E-3
62.329102E-3
62.390327E-3
62.208939E-3
62.267303E-3
62.188911E-3
