Notes :


2023-10-25 ¿ÀÈÄ 10:01:15
Volts
Ch : LED 2,
215.085983E-3
215.355492E-3
215.202141E-3
215.123177E-3
215.256500E-3
215.143204E-3
215.358353E-3
214.996719E-3
214.924622E-3
215.150070E-3
215.081406E-3
215.259933E-3
214.878845E-3
214.858246E-3
215.073967E-3
214.677429E-3
215.198708E-3
214.709473E-3
214.653397E-3
214.700890E-3
214.592743E-3
214.981842E-3
214.548111E-3
214.379311E-3
214.541245E-3
213.845444E-3
214.445114E-3
214.116096E-3
214.012527E-3
214.007378E-3
213.915253E-3
214.437103E-3
214.258003E-3
214.793587E-3
215.722275E-3
216.467285E-3
217.753601E-3
218.489456E-3
219.152069E-3
219.889641E-3
219.986916E-3
220.219803E-3
219.580078E-3
219.207573E-3
218.816757E-3
218.159294E-3
217.969322E-3
217.263794E-3
216.814613E-3
216.658401E-3
216.422653E-3
216.649818E-3
216.313934E-3
216.341400E-3
216.495323E-3
216.431236E-3
216.490173E-3
216.177750E-3
215.951157E-3
215.956306E-3
215.250778E-3
215.789223E-3
215.740585E-3
215.911674E-3
216.119957E-3
216.138268E-3
216.472435E-3
216.275024E-3
216.486168E-3
216.596031E-3
215.819550E-3
216.464424E-3
216.164017E-3
216.099358E-3
216.211510E-3
215.848732E-3
215.944290E-3
215.505981E-3
215.367508E-3
215.328026E-3
215.176392E-3
215.226173E-3
214.818764E-3
214.803886E-3
214.765549E-3
214.698029E-3
214.972115E-3
214.708328E-3
214.706612E-3
214.767838E-3
214.593315E-3
214.779854E-3
214.595604E-3
214.661980E-3
214.640808E-3
214.568710E-3
214.826775E-3
214.524651E-3
214.520645E-3
214.655113E-3
214.482880E-3
214.690018E-3
214.441681E-3
214.428520E-3
214.568138E-3
214.403343E-3
214.573860E-3
214.338112E-3
214.255142E-3
214.367867E-3
214.177322E-3
214.418793E-3
214.074898E-3
213.904381E-3
214.055443E-3
213.388252E-3
213.860893E-3
213.577652E-3
213.546753E-3
213.547897E-3
213.436890E-3
213.613129E-3
213.331604E-3
213.339615E-3
213.898087E-3
214.348984E-3
215.372086E-3
216.127396E-3
217.171097E-3
218.115807E-3
218.579865E-3
219.258499E-3
219.197845E-3
219.177246E-3
218.886566E-3
218.250847E-3
217.961311E-3
217.199707E-3
216.718483E-3
216.371155E-3
215.886497E-3
215.931702E-3
215.556908E-3
215.399551E-3
215.613556E-3
215.508270E-3
215.719414E-3
215.491676E-3
215.318298E-3
215.215874E-3
215.004730E-3
215.114021E-3
214.898300E-3
214.886284E-3
215.092278E-3
215.129471E-3
215.369225E-3
215.349197E-3
215.511131E-3
215.785789E-3
215.661049E-3
215.892220E-3
215.635872E-3
215.479088E-3
215.509987E-3
214.601326E-3
215.099716E-3
214.913750E-3
214.776993E-3
214.727211E-3
214.409065E-3
214.500046E-3
214.232826E-3
214.250565E-3
214.220810E-3
213.471794E-3
213.959312E-3
213.874626E-3
213.862038E-3
213.924408E-3
213.832283E-3
214.098358E-3
213.914680E-3
213.811684E-3
213.906670E-3
213.774490E-3
214.027977E-3
213.835716E-3
213.870049E-3
213.894081E-3
213.705826E-3
213.913536E-3
213.772202E-3
213.627434E-3
213.791084E-3
213.457489E-3
213.810539E-3
213.623428E-3
213.574791E-3
213.638878E-3
213.142204E-3
213.443756E-3
213.349915E-3
213.276100E-3
213.293839E-3
213.187981E-3
213.372231E-3
213.238907E-3
212.998009E-3
213.162804E-3
212.998581E-3
213.068390E-3
212.789726E-3
212.659264E-3
212.812042E-3
212.746811E-3
213.200569E-3
213.526726E-3
214.315796E-3
215.402985E-3
216.324234E-3
217.548752E-3
218.199348E-3
218.698311E-3
219.148636E-3
219.021034E-3
218.936920E-3
218.447113E-3
218.143272E-3
217.615700E-3
216.945076E-3
216.756248E-3
216.319084E-3
215.987778E-3
216.023827E-3
215.849304E-3
215.987206E-3
215.916824E-3
215.926552E-3
216.096497E-3
215.622711E-3
215.782928E-3
215.592957E-3
215.340042E-3
215.383530E-3
215.159225E-3
215.289688E-3
215.137482E-3
215.152359E-3
215.313721E-3
215.258217E-3
215.607262E-3
215.658760E-3
215.551186E-3
215.784073E-3
215.199852E-3
215.529442E-3
215.512276E-3
215.261650E-3
215.190125E-3
214.817619E-3
214.888573E-3
214.655113E-3
214.527512E-3
214.581871E-3
214.179039E-3
214.300346E-3
214.055443E-3
213.957024E-3
214.117813E-3
213.831711E-3
214.039993E-3
213.998795E-3
213.899231E-3
214.031410E-3
213.735580E-3
214.005661E-3
213.961601E-3
213.892937E-3
213.915253E-3
213.640594E-3
213.967896E-3
213.760757E-3
213.796234E-3
213.942146E-3
213.684654E-3
213.797951E-3
213.621140E-3
213.615990E-3
213.731003E-3
213.559341E-3
213.694954E-3
213.507843E-3
213.332176E-3
213.547897E-3
213.269234E-3
213.419151E-3
213.354492E-3
213.137627E-3
213.354492E-3
213.123322E-3
213.301277E-3
213.146782E-3
213.020897E-3
213.098145E-3
212.848663E-3
212.979698E-3
212.956238E-3
212.803459E-3
212.857819E-3
212.610054E-3
212.771416E-3
212.794304E-3
212.995720E-3
213.558197E-3
214.128685E-3
215.182686E-3
216.215515E-3
217.011452E-3
217.969322E-3
218.455124E-3
218.940353E-3
218.940926E-3
218.629646E-3
218.391609E-3
217.737007E-3
217.482948E-3
216.901016E-3
216.350555E-3
216.241264E-3
215.814400E-3
215.964890E-3
215.857887E-3
215.764046E-3
216.010094E-3
215.793228E-3
216.004372E-3
216.003799E-3
215.809822E-3
215.804672E-3
215.294838E-3
215.471077E-3
215.265083E-3
215.043640E-3
215.128899E-3
214.920044E-3
215.249634E-3
215.378380E-3
215.215302E-3
215.406418E-3
215.342903E-3
215.531158E-3
215.515709E-3
215.270805E-3
215.317154E-3
214.977837E-3
215.203857E-3
215.098572E-3
214.706039E-3
214.692307E-3
214.219666E-3
214.479446E-3
214.312363E-3
213.995361E-3
214.085770E-3
213.828278E-3
214.112663E-3
214.026260E-3
213.780212E-3
213.910103E-3
213.776207E-3
214.002228E-3
213.851738E-3
213.612556E-3
213.771629E-3
213.654327E-3
213.819122E-3
213.764191E-3
213.544464E-3
213.666916E-3
213.563919E-3
213.802528E-3
213.664627E-3
213.272095E-3
213.436317E-3
213.333893E-3
213.561630E-3
213.492393E-3
213.274384E-3
213.379669E-3
213.125610E-3
213.339615E-3
213.280678E-3
212.972832E-3
213.121605E-3
212.936783E-3
213.131332E-3
213.009453E-3
212.786293E-3
212.891579E-3
212.812042E-3
212.890434E-3
212.810898E-3
212.619781E-3
212.482452E-3
212.442970E-3
212.565994E-3
212.590027E-3
212.365150E-3
212.430382E-3
212.246132E-3
212.278175E-3
212.129974E-3
212.071609E-3
212.425232E-3
212.778282E-3
213.644028E-3
214.555550E-3
215.473366E-3
216.403198E-3
217.125320E-3
217.624283E-3
218.044281E-3
217.822266E-3
217.616272E-3
217.109299E-3
216.779137E-3
216.104507E-3
215.478516E-3
215.203857E-3
214.774704E-3
214.724350E-3
214.613914E-3
214.182472E-3
214.516640E-3
214.405632E-3
214.730072E-3
214.691734E-3
214.599609E-3
214.328957E-3
214.078331E-3
214.104080E-3
213.882065E-3
213.690948E-3
213.871193E-3
213.801384E-3
214.005089E-3
214.062309E-3
214.061737E-3
214.263725E-3
214.192772E-3
214.329529E-3
214.406204E-3
214.174461E-3
214.203072E-3
213.920403E-3
213.966179E-3
213.826561E-3
213.573647E-3
213.280106E-3
213.087845E-3
213.161659E-3
213.062668E-3
212.827492E-3
212.776566E-3
212.594604E-3
212.715340E-3
212.734795E-3
212.580299E-3
212.727356E-3
212.568855E-3
212.695885E-3
212.734795E-3
212.588882E-3
212.713051E-3
212.537384E-3
212.655258E-3
212.654114E-3
212.046432E-3
212.556267E-3
212.409210E-3
212.490463E-3
212.533379E-3
211.903381E-3
212.061882E-3
212.082481E-3
212.242699E-3
212.323952E-3
212.123680E-3
212.219238E-3
212.002373E-3
212.049294E-3
212.004662E-3
211.517715E-3
211.866760E-3
211.649323E-3
211.731148E-3
211.850739E-3
211.328888E-3
211.681366E-3
211.588669E-3
211.717415E-3
211.697960E-3
211.546898E-3
211.616135E-3
211.398125E-3
211.443329E-3
211.395836E-3
211.157227E-3
211.349487E-3
211.200714E-3
211.360359E-3
211.257935E-3
211.315155E-3
211.713982E-3
212.239265E-3
213.106155E-3
214.104652E-3
214.948654E-3
215.994072E-3
216.564560E-3
217.176247E-3
217.326736E-3
216.960526E-3
216.926765E-3
216.233826E-3
215.836716E-3
215.551186E-3
214.902878E-3
214.793015E-3
214.356995E-3
214.361572E-3
214.285469E-3
214.151001E-3
214.403915E-3
214.326668E-3
214.442253E-3
214.455986E-3
214.297485E-3
214.605331E-3
214.224815E-3
214.001656E-3
213.850594E-3
213.492393E-3
213.689232E-3
213.350487E-3
213.448334E-3
213.454628E-3
213.408279E-3
213.854599E-3
213.621712E-3
213.715553E-3
213.942146E-3
213.692665E-3
213.980484E-3
213.569641E-3
213.525009E-3
213.458633E-3
213.155365E-3
213.293266E-3
212.826347E-3
212.767982E-3
212.742805E-3
212.455559E-3
212.756538E-3
212.432098E-3
212.305641E-3
212.367439E-3
212.102509E-3
212.413216E-3
212.146568E-3
212.276459E-3
212.281609E-3
211.954880E-3
212.343979E-3
212.079620E-3
212.096786E-3
212.173462E-3
211.921120E-3
212.161446E-3
211.899376E-3
211.898804E-3
212.058449E-3
211.857605E-3
211.993217E-3
211.693954E-3
211.671066E-3
211.815262E-3
211.620140E-3
211.835861E-3
211.478806E-3
211.450195E-3
211.585808E-3
211.358643E-3
211.534882E-3
211.252213E-3
211.128616E-3
211.229324E-3
210.840797E-3
211.299706E-3
210.927773E-3
210.960960E-3
211.023331E-3
210.909462E-3
211.179543E-3
210.881996E-3
210.823631E-3
210.858536E-3
210.770988E-3
210.932350E-3
210.606194E-3
210.547256E-3
210.578156E-3
210.403061E-3
210.695457E-3
210.300636E-3
210.380745E-3
210.583305E-3
210.783005E-3
211.766624E-3
212.251282E-3
213.214874E-3
214.353561E-3
215.085411E-3
216.122818E-3
216.224098E-3
216.408348E-3
216.464996E-3
215.995216E-3
215.754318E-3
214.955521E-3
214.571571E-3
214.203644E-3
213.741302E-3
213.653183E-3
213.222885E-3
213.133049E-3
213.343620E-3
213.220596E-3
213.488388E-3
213.301277E-3
213.385391E-3
213.549614E-3
213.389969E-3
213.468933E-3
213.046074E-3
212.809753E-3
212.798309E-3
212.565994E-3
212.774277E-3
212.563133E-3
212.641525E-3
212.793159E-3
212.789726E-3
213.229179E-3
212.987709E-3
212.981415E-3
213.050079E-3
212.895012E-3
213.143349E-3
212.745094E-3
212.445259E-3
212.440109E-3
212.216377E-3
212.218094E-3
211.964035E-3
211.839294E-3
211.727142E-3
210.924911E-3
211.457634E-3
211.407280E-3
211.379242E-3
211.499405E-3
210.839653E-3
211.266518E-3
211.289406E-3
211.260796E-3
211.288834E-3
211.182976E-3
211.343193E-3
211.082268E-3
211.059380E-3
211.193848E-3
211.106873E-3
211.315155E-3
211.108589E-3
211.062813E-3
211.081123E-3
210.958672E-3
211.112595E-3
210.872841E-3
210.698891E-3
210.721207E-3
210.643387E-3
210.797882E-3
210.538101E-3
210.494041E-3
210.637093E-3
210.327530E-3
210.475731E-3
210.269165E-3
210.268593E-3
210.276604E-3
210.123253E-3
210.261726E-3
209.985924E-3
210.016823E-3
210.171890E-3
209.936714E-3
210.194206E-3
209.937286E-3
209.772491E-3
209.747887E-3
209.589958E-3
209.795952E-3
209.603119E-3
209.525299E-3
209.516144E-3
209.377670E-3
209.438896E-3
209.382248E-3
209.325027E-3
209.731293E-3
210.280609E-3
211.323166E-3
212.057304E-3
212.884140E-3
213.761330E-3
214.228249E-3
214.784431E-3
214.787292E-3
214.588165E-3
214.298058E-3
213.577652E-3
213.257217E-3
212.663269E-3
212.036133E-3
211.787796E-3
211.371231E-3
211.405563E-3
211.140633E-3
211.039352E-3
211.153793E-3
211.130905E-3
211.464500E-3
211.255074E-3
211.133766E-3
211.050224E-3
210.907173E-3
211.015892E-3
210.767555E-3
210.666275E-3
210.873985E-3
210.832787E-3
211.165237E-3
211.096001E-3
211.215019E-3
211.418724E-3
211.304283E-3
211.580086E-3
211.420441E-3
211.273384E-3
211.340332E-3
210.932922E-3
211.017609E-3
210.696602E-3
210.486603E-3
210.622787E-3
210.357285E-3
210.326958E-3
210.132408E-3
209.961891E-3
210.056305E-3
209.816551E-3
209.874344E-3
209.673500E-3
209.671783E-3
209.803963E-3
209.545898E-3
209.765053E-3
209.767914E-3
209.620285E-3
209.826279E-3
209.568214E-3
209.715271E-3
209.668350E-3
209.622002E-3
209.702110E-3
209.454918E-3
209.657478E-3
209.598541E-3
209.469795E-3
209.541893E-3
209.337044E-3
209.472656E-3
209.307289E-3
209.243774E-3
209.250641E-3
209.077835E-3
209.248924E-3
209.130478E-3
209.040642E-3
209.148788E-3
208.704758E-3
208.898163E-3
208.856392E-3
208.693314E-3
208.741379E-3
208.313370E-3
208.764839E-3
208.710480E-3
208.580017E-3
208.761406E-3
208.424377E-3
208.534813E-3
208.504486E-3
208.427811E-3
208.466148E-3
208.304214E-3
208.421516E-3
208.301353E-3
208.061028E-3
208.302498E-3
208.154297E-3
208.515358E-3
208.794594E-3
209.345055E-3
210.354424E-3
211.046791E-3
212.219810E-3
213.217163E-3
213.725281E-3
214.199066E-3
214.179039E-3
214.187622E-3
213.842583E-3
213.269234E-3
212.816048E-3
212.037849E-3
211.914825E-3
211.453056E-3
210.959244E-3
210.700607E-3
210.511208E-3
210.733795E-3
210.744095E-3
210.571861E-3
210.817337E-3
210.682297E-3
210.958672E-3
210.854530E-3
210.678291E-3
210.345268E-3
210.258865E-3
210.507202E-3
210.442543E-3
210.241127E-3
210.490608E-3
210.326385E-3
210.705757E-3
210.730934E-3
210.671997E-3
210.944939E-3
210.657120E-3
210.900879E-3
210.905457E-3
210.662842E-3
210.636520E-3
210.274887E-3
210.454559E-3
210.167885E-3
209.820557E-3
209.914398E-3
209.670067E-3
209.775925E-3
209.539604E-3
209.291840E-3
209.376526E-3
209.172821E-3
209.390259E-3
209.329605E-3
209.119606E-3
209.252357E-3
209.030914E-3
209.345055E-3
209.220886E-3
209.053230E-3
209.135056E-3
208.937645E-3
209.182549E-3
209.064674E-3
208.941078E-3
209.062386E-3
208.905602E-3
209.037209E-3
208.977699E-3
208.711624E-3
208.877563E-3
208.719635E-3
208.808327E-3
208.782578E-3
208.694458E-3
208.793449E-3
208.527374E-3
208.640099E-3
208.515358E-3
208.374023E-3
208.398056E-3
208.304214E-3
208.410645E-3
208.401489E-3
208.183479E-3
208.263016E-3
208.070183E-3
208.289337E-3
208.173180E-3
208.017540E-3
208.036423E-3
207.929993E-3
208.045006E-3
207.994652E-3
207.895660E-3
207.674217E-3
207.605553E-3
207.764626E-3
207.746887E-3
207.571793E-3
207.631874E-3
207.598686E-3
207.939720E-3
208.359718E-3
208.849525E-3
209.829140E-3
210.652542E-3
211.738014E-3
212.541962E-3
213.048935E-3
213.581657E-3
213.426018E-3
213.391113E-3
213.104439E-3
212.440109E-3
211.870193E-3
211.303139E-3
210.940933E-3
210.600471E-3
209.974480E-3
209.790230E-3
209.738159E-3
209.905815E-3
209.904099E-3
209.797668E-3
210.037994E-3
209.888077E-3
210.080338E-3
210.029984E-3
209.790230E-3
209.858894E-3
209.676933E-3
209.730721E-3
209.708405E-3
209.597969E-3
209.732437E-3
209.699249E-3
209.949303E-3
210.107231E-3
209.990501E-3
210.116959E-3
209.993362E-3
210.130692E-3
209.983635E-3
209.781075E-3
209.856033E-3
209.439468E-3
209.485817E-3
209.318733E-3
208.969116E-3
209.090424E-3
208.677864E-3
208.715057E-3
208.638954E-3
208.391190E-3
208.503342E-3
208.349419E-3
208.321381E-3
208.332253E-3
208.081627E-3
208.206367E-3
208.038712E-3
208.179474E-3
208.058167E-3
207.917976E-3
208.147430E-3
207.913399E-3
208.075905E-3
208.117104E-3
207.935715E-3
208.002663E-3
207.847595E-3
208.024979E-3
208.035278E-3
207.742310E-3
207.974052E-3
207.667923E-3
207.765198E-3
207.628441E-3
207.536888E-3
207.660484E-3
207.423019E-3
207.555199E-3
207.441902E-3
207.227325E-3
207.160378E-3
207.099152E-3
207.110023E-3
207.195282E-3
206.946373E-3
206.977844E-3
206.962395E-3
206.913185E-3
206.879425E-3
206.752968E-3
206.942940E-3
206.659126E-3
