Notes :


2023-11-04 ¿ÀÈÄ 9:55:12
Volts
Ch : LED 2,
556.273842E-3
556.056976E-3
555.802917E-3
555.698776E-3
555.463600E-3
555.275345E-3
555.056763E-3
554.744911E-3
554.432487E-3
554.248238E-3
554.050827E-3
553.907204E-3
553.631973E-3
553.557587E-3
553.314972E-3
553.086090E-3
552.990532E-3
552.858353E-3
552.785110E-3
552.576828E-3
552.458954E-3
552.327919E-3
552.191734E-3
552.097321E-3
551.852989E-3
551.597786E-3
551.474762E-3
551.162910E-3
550.910568E-3
550.407600E-3
550.118065E-3
549.938965E-3
549.912071E-3
550.102043E-3
550.494003E-3
551.655579E-3
554.077148E-3
557.372475E-3
561.527252E-3
565.682030E-3
569.991875E-3
573.545837E-3
575.966835E-3
577.251434E-3
577.306938E-3
576.500130E-3
575.201225E-3
573.348999E-3
571.484756E-3
569.729233E-3
568.175125E-3
567.034149E-3
566.158676E-3
565.852547E-3
565.665436E-3
565.754700E-3
566.178131E-3
566.493416E-3
567.026138E-3
567.293358E-3
567.284775E-3
567.038727E-3
566.440201E-3
565.541267E-3
564.618874E-3
564.032936E-3
563.649559E-3
563.370323E-3
563.388634E-3
563.428116E-3
563.684464E-3
563.962555E-3
563.975143E-3
564.178276E-3
564.156532E-3
563.935089E-3
563.593483E-3
563.007545E-3
562.609291E-3
561.988449E-3
561.431694E-3
561.018562E-3
560.547066E-3
560.104179E-3
559.624100E-3
559.355736E-3
559.158325E-3
558.736038E-3
558.592415E-3
558.370399E-3
558.353233E-3
558.197594E-3
557.934952E-3
557.958984E-3
557.800484E-3
557.661438E-3
557.501793E-3
557.405090E-3
557.394218E-3
557.317543E-3
557.225990E-3
557.009697E-3
556.874084E-3
556.740761E-3
556.630325E-3
556.491280E-3
556.389427E-3
556.143951E-3
556.084442E-3
555.924225E-3
555.701065E-3
555.648422E-3
555.342865E-3
555.097389E-3
554.929161E-3
554.728317E-3
554.607010E-3
554.328346E-3
554.272270E-3
554.134941E-3
554.010773E-3
554.022217E-3
553.717804E-3
553.668594E-3
553.582191E-3
553.475761E-3
553.398514E-3
553.168488E-3
553.070068E-3
552.894402E-3
552.525902E-3
552.439499E-3
552.125359E-3
551.998329E-3
551.752281E-3
551.714516E-3
551.785469E-3
551.906204E-3
552.726746E-3
554.684258E-3
557.425690E-3
561.235428E-3
565.364456E-3
569.623947E-3
573.152733E-3
576.012611E-3
577.666283E-3
578.011894E-3
577.547836E-3
576.410294E-3
574.699402E-3
572.858620E-3
570.945168E-3
569.328117E-3
567.969704E-3
567.143440E-3
566.431046E-3
566.086006E-3
566.158676E-3
566.435623E-3
566.719437E-3
567.171478E-3
567.327690E-3
567.576599E-3
567.395782E-3
566.853333E-3
566.044807E-3
565.185356E-3
564.693260E-3
564.399147E-3
564.339638E-3
564.570808E-3
564.918709E-3
565.481186E-3
565.686607E-3
565.918350E-3
565.987015E-3
565.775299E-3
565.519524E-3
565.058899E-3
564.581680E-3
564.096451E-3
563.348579E-3
562.694550E-3
562.028503E-3
561.404228E-3
560.921860E-3
560.397148E-3
560.115051E-3
559.804344E-3
559.689331E-3
559.442139E-3
559.136581E-3
559.074783E-3
558.940887E-3
558.715439E-3
558.760643E-3
558.507156E-3
558.528900E-3
558.367538E-3
558.144951E-3
558.195305E-3
558.035088E-3
558.051109E-3
557.807350E-3
557.652855E-3
557.564735E-3
557.261467E-3
557.176208E-3
557.062912E-3
556.755638E-3
556.581116E-3
556.316757E-3
556.214333E-3
555.922508E-3
555.627251E-3
555.391502E-3
554.993248E-3
554.818153E-3
554.588127E-3
554.378128E-3
554.244232E-3
554.177284E-3
553.956985E-3
553.679466E-3
553.529549E-3
553.411674E-3
553.100395E-3
552.916718E-3
552.727890E-3
552.351952E-3
552.248955E-3
551.882744E-3
551.657295E-3
551.278496E-3
550.967216E-3
550.827026E-3
550.817871E-3
550.861931E-3
551.161766E-3
552.244949E-3
554.550362E-3
557.743263E-3
561.622810E-3
565.680885E-3
569.320679E-3
572.582245E-3
574.680519E-3
575.761414E-3
575.791168E-3
574.850464E-3
573.494339E-3
571.646118E-3
569.816780E-3
568.004036E-3
566.428185E-3
565.231705E-3
564.264107E-3
563.750267E-3
563.488770E-3
563.464737E-3
563.624954E-3
563.939095E-3
564.365387E-3
564.563942E-3
564.543343E-3
564.182281E-3
563.377762E-3
562.845612E-3
562.251091E-3
561.712646E-3
561.750412E-3
561.758995E-3
562.100601E-3
562.493134E-3
562.719154E-3
563.146591E-3
563.341713E-3
563.362885E-3
563.160896E-3
562.644196E-3
562.276840E-3
561.601067E-3
561.056900E-3
560.416603E-3
559.734535E-3
559.252739E-3
558.518600E-3
557.971001E-3
557.453156E-3
557.084656E-3
556.780815E-3
556.426620E-3
556.252670E-3
556.023216E-3
555.890465E-3
555.989456E-3
555.712509E-3
555.636406E-3
555.513382E-3
555.405807E-3
555.414963E-3
555.277061E-3
555.213547E-3
555.295372E-3
555.084801E-3
555.045891E-3
554.833031E-3
554.802132E-3
554.670525E-3
554.477119E-3
554.348946E-3
554.220772E-3
554.015923E-3
553.800774E-3
553.596497E-3
553.528976E-3
553.230858E-3
553.104973E-3
552.837753E-3
552.553368E-3
552.497292E-3
552.229500E-3
552.128792E-3
552.060699E-3
551.899338E-3
551.902199E-3
551.716232E-3
551.673889E-3
551.580620E-3
551.501656E-3
551.596642E-3
551.429558E-3
551.293945E-3
551.137733E-3
550.935173E-3
550.792694E-3
550.530624E-3
550.271988E-3
550.027657E-3
549.652290E-3
549.554443E-3
549.561310E-3
549.744415E-3
550.289726E-3
551.799774E-3
554.529762E-3
558.277702E-3
562.418747E-3
566.687965E-3
570.458794E-3
573.735237E-3
575.637245E-3
576.509857E-3
576.425743E-3
575.271606E-3
573.905182E-3
571.925926E-3
570.051384E-3
568.397713E-3
566.887665E-3
565.914345E-3
565.200806E-3
564.947891E-3
564.916992E-3
564.925003E-3
565.389633E-3
565.708923E-3
566.123772E-3
566.467094E-3
566.448784E-3
566.294289E-3
565.676308E-3
564.805984E-3
564.105606E-3
563.344574E-3
562.993240E-3
562.612724E-3
562.680244E-3
562.862206E-3
562.925148E-3
563.313103E-3
563.469315E-3
563.463020E-3
563.409805E-3
563.087654E-3
562.874794E-3
562.423897E-3
561.939812E-3
561.470604E-3
560.763359E-3
560.337639E-3
559.635544E-3
559.164047E-3
558.809280E-3
558.332634E-3
558.088303E-3
557.688332E-3
557.364464E-3
557.153320E-3
556.822014E-3
556.917000E-3
556.725311E-3
556.566811E-3
556.539917E-3
556.419754E-3
556.379128E-3
556.295586E-3
556.256676E-3
556.233788E-3
556.050110E-3
556.023216E-3
555.834389E-3
555.761147E-3
555.675316E-3
555.440712E-3
555.414963E-3
555.284500E-3
555.120850E-3
554.871941E-3
554.636192E-3
554.518890E-3
554.255104E-3
554.003334E-3
553.766441E-3
553.557014E-3
553.357887E-3
553.147888E-3
553.039742E-3
552.987671E-3
552.769661E-3
552.664375E-3
552.565956E-3
552.515602E-3
552.402306E-3
552.222633E-3
552.153969E-3
551.955414E-3
551.898766E-3
551.800919E-3
551.585770E-3
551.533127E-3
551.293945E-3
551.042747E-3
550.666237E-3
550.348091E-3
550.242805E-3
550.112343E-3
550.168419E-3
550.381851E-3
551.070213E-3
552.934456E-3
555.834389E-3
559.627533E-3
563.769722E-3
567.830086E-3
571.539688E-3
574.215317E-3
575.874710E-3
576.354218E-3
575.760841E-3
574.593544E-3
572.767639E-3
571.006966E-3
569.269180E-3
567.493057E-3
566.139221E-3
565.133286E-3
564.483261E-3
564.081001E-3
564.123344E-3
564.371681E-3
564.663506E-3
565.149879E-3
565.501213E-3
565.605354E-3
565.649986E-3
565.223694E-3
564.474106E-3
563.832092E-3
563.102531E-3
562.826157E-3
562.653923E-3
562.845612E-3
562.972069E-3
563.198090E-3
563.652992E-3
563.834953E-3
563.925934E-3
563.915062E-3
563.635254E-3
563.509369E-3
563.073349E-3
562.583542E-3
562.030792E-3
561.332703E-3
560.724449E-3
560.177422E-3
559.602928E-3
559.288788E-3
558.858490E-3
558.584976E-3
558.180428E-3
557.890892E-3
557.679749E-3
557.387924E-3
557.292938E-3
557.092667E-3
556.990242E-3
556.954765E-3
556.736183E-3
556.641197E-3
556.510735E-3
556.394577E-3
556.305885E-3
556.252098E-3
556.221199E-3
556.030083E-3
556.036949E-3
555.992317E-3
555.762291E-3
555.607224E-3
555.412102E-3
555.311394E-3
555.194664E-3
554.887390E-3
554.779243E-3
554.542351E-3
554.186440E-3
553.977585E-3
553.706932E-3
553.474617E-3
553.317833E-3
553.087234E-3
553.017426E-3
552.753639E-3
552.567101E-3
552.306175E-3
552.053833E-3
552.016068E-3
551.766014E-3
551.634407E-3
551.411819E-3
551.178932E-3
550.975227E-3
550.603867E-3
550.381851E-3
550.132370E-3
549.926949E-3
549.806786E-3
549.666023E-3
549.859428E-3
550.696564E-3
552.357101E-3
555.201530E-3
558.693695E-3
562.762642E-3
566.724014E-3
569.979858E-3
572.557640E-3
573.838806E-3
574.220467E-3
573.667145E-3
572.478676E-3
570.907402E-3
569.013977E-3
567.386627E-3
565.687180E-3
564.333344E-3
563.473320E-3
562.512589E-3
562.251091E-3
562.082291E-3
562.062836E-3
562.316322E-3
562.509155E-3
562.728310E-3
562.764359E-3
562.565231E-3
562.037659E-3
561.154747E-3
560.629463E-3
560.164261E-3
560.008049E-3
560.317612E-3
560.306740E-3
560.731888E-3
561.034584E-3
561.450577E-3
561.693764E-3
561.638832E-3
561.700058E-3
561.487770E-3
561.260605E-3
560.856056E-3
560.139084E-3
559.577179E-3
558.817291E-3
558.180428E-3
557.672882E-3
557.069778E-3
556.687546E-3
556.311035E-3
555.900192E-3
555.703926E-3
555.290794E-3
555.162621E-3
554.938316E-3
554.894257E-3
555.000687E-3
554.663086E-3
554.710007E-3
554.603577E-3
554.386711E-3
554.253960E-3
554.180717E-3
554.174995E-3
554.152107E-3
553.997612E-3
554.009056E-3
553.878021E-3
553.715515E-3
553.629684E-3
553.405380E-3
553.278351E-3
553.140450E-3
553.060341E-3
553.055191E-3
552.741623E-3
552.544212E-3
552.299309E-3
552.162552E-3
551.899338E-3
551.716232E-3
551.574898E-3
551.339722E-3
551.311111E-3
551.092529E-3
551.000404E-3
551.010704E-3
550.881386E-3
550.844193E-3
550.746346E-3
550.665092E-3
550.543785E-3
550.477409E-3
550.310326E-3
550.151253E-3
549.818230E-3
549.732971E-3
549.363327E-3
549.205971E-3
548.926163E-3
548.834038E-3
548.870087E-3
549.092102E-3
550.076294E-3
552.283859E-3
555.421829E-3
559.399223E-3
563.498497E-3
567.606354E-3
570.958900E-3
573.382759E-3
574.845314E-3
575.074768E-3
574.528313E-3
573.304367E-3
571.592331E-3
569.856834E-3
568.029213E-3
566.538620E-3
565.229988E-3
564.182854E-3
563.714790E-3
563.343430E-3
563.410378E-3
563.638115E-3
563.983154E-3
564.496994E-3
564.768791E-3
565.106392E-3
565.128136E-3
564.702415E-3
564.125633E-3
563.287926E-3
562.704277E-3
562.209892E-3
561.823654E-3
561.793327E-3
561.979866E-3
562.261963E-3
562.522888E-3
562.522316E-3
562.904549E-3
562.835884E-3
562.741470E-3
562.406158E-3
562.016487E-3
561.664009E-3
561.003685E-3
560.549927E-3
559.941673E-3
559.300232E-3
558.811569E-3
558.252525E-3
558.082008E-3
557.634544E-3
557.163620E-3
556.868935E-3
556.700706E-3
556.443787E-3
556.131935E-3
555.976295E-3
555.945969E-3
555.723953E-3
555.728531E-3
555.520821E-3
555.396080E-3
555.364609E-3
555.143166E-3
555.094528E-3
555.124855E-3
555.000687E-3
554.999542E-3
554.800987E-3
554.723167E-3
554.632759E-3
554.553795E-3
554.447365E-3
554.213905E-3
554.186440E-3
554.051399E-3
553.939247E-3
553.831673E-3
553.510094E-3
553.318977E-3
553.156471E-3
553.001404E-3
552.972221E-3
552.667236E-3
552.642059E-3
552.431488E-3
552.307320E-3
552.339935E-3
552.132225E-3
552.107048E-3
551.990318E-3
551.889038E-3
551.958847E-3
551.646423E-3
551.442146E-3
551.149750E-3
550.924301E-3
550.681114E-3
550.449371E-3
550.241089E-3
550.215912E-3
550.112915E-3
550.441933E-3
551.012993E-3
552.874374E-3
555.786896E-3
559.445000E-3
563.646126E-3
567.711639E-3
571.163750E-3
573.794174E-3
575.328255E-3
575.886154E-3
575.363731E-3
574.367523E-3
572.717285E-3
570.909691E-3
569.138145E-3
567.537689E-3
566.299438E-3
565.162468E-3
564.376259E-3
564.108467E-3
563.925934E-3
564.122772E-3
564.444923E-3
564.706993E-3
565.038872E-3
565.235710E-3
565.145302E-3
564.823151E-3
564.066696E-3
563.488770E-3
562.841606E-3
562.720871E-3
562.597275E-3
562.755203E-3
563.142014E-3
563.371468E-3
563.694763E-3
563.923073E-3
564.039803E-3
564.030647E-3
563.824654E-3
563.654709E-3
563.110542E-3
562.504578E-3
561.995316E-3
561.333275E-3
560.761642E-3
560.207748E-3
559.653282E-3
559.337425E-3
558.872223E-3
558.621025E-3
558.324623E-3
558.135796E-3
558.063698E-3
557.893753E-3
557.785606E-3
557.607651E-3
557.481194E-3
557.557869E-3
557.287788E-3
557.222557E-3
557.178497E-3
557.053757E-3
557.088661E-3
556.852913E-3
556.843185E-3
556.779671E-3
556.464386E-3
556.618881E-3
556.495285E-3
556.340790E-3
556.246376E-3
556.218338E-3
556.121635E-3
555.974007E-3
555.844688E-3
555.769157E-3
555.457306E-3
555.413246E-3
555.120277E-3
554.877663E-3
554.692268E-3
554.539490E-3
554.206467E-3
554.176712E-3
554.025650E-3
553.880882E-3
553.776169E-3
553.646851E-3
553.375053E-3
553.134155E-3
552.914429E-3
552.751923E-3
552.330208E-3
551.843834E-3
551.559448E-3
551.365471E-3
551.075935E-3
550.966072E-3
550.832176E-3
551.308823E-3
552.739334E-3
554.831314E-3
557.996750E-3
561.696625E-3
565.724373E-3
569.192505E-3
571.871567E-3
573.635101E-3
574.327469E-3
574.159241E-3
573.108101E-3
571.590614E-3
569.976425E-3
568.302727E-3
566.798401E-3
565.361023E-3
564.115334E-3
563.247299E-3
562.700844E-3
562.516022E-3
562.404442E-3
562.453079E-3
562.711143E-3
562.676811E-3
562.863922E-3
562.731171E-3
562.241364E-3
561.833382E-3
561.334419E-3
561.143303E-3
561.105537E-3
561.223412E-3
561.725807E-3
562.070274E-3
562.447929E-3
562.843323E-3
563.091087E-3
563.294792E-3
563.166618E-3
562.914848E-3
562.613869E-3
562.027359E-3
561.582756E-3
560.757065E-3
560.228920E-3
559.633255E-3
558.978081E-3
558.447647E-3
557.904625E-3
557.375908E-3
557.176208E-3
556.676674E-3
556.509018E-3
556.342506E-3
556.041527E-3
555.911636E-3
555.663300E-3
555.666733E-3
555.600929E-3
555.522537E-3
555.669594E-3
555.730247E-3
555.749702E-3
555.480766E-3
555.476189E-3
555.484772E-3
555.349731E-3
555.409813E-3
555.061340E-3
555.037880E-3
555.072784E-3
554.925156E-3
554.787827E-3
554.640770E-3
554.458237E-3
554.126930E-3
553.888321E-3
553.813934E-3
553.428841E-3
553.152466E-3
552.858353E-3
552.640915E-3
552.551651E-3
552.459526E-3
552.570534E-3
552.454948E-3
552.285004E-3
552.090454E-3
551.860428E-3
551.741409E-3
551.649857E-3
551.518250E-3
551.392365E-3
551.261902E-3
550.984955E-3
550.611877E-3
550.299454E-3
550.218773E-3
550.154114E-3
550.513458E-3
551.423264E-3
553.368187E-3
556.487846E-3
560.165405E-3
564.186287E-3
568.092155E-3
571.464729E-3
573.983002E-3
575.378036E-3
575.705338E-3
575.110245E-3
573.920059E-3
572.222328E-3
570.289993E-3
568.608856E-3
567.099953E-3
565.885735E-3
565.021133E-3
564.499283E-3
564.110184E-3
563.848114E-3
563.966560E-3
564.351654E-3
564.650345E-3
564.952469E-3
565.197945E-3
565.030289E-3
564.755630E-3
563.967705E-3
563.068771E-3
562.643623E-3
562.225914E-3
562.184715E-3
562.206459E-3
562.379265E-3
562.739182E-3
562.846756E-3
563.120842E-3
563.685036E-3
563.560867E-3
563.512230E-3
563.185501E-3
562.926865E-3
562.438774E-3
561.908913E-3
561.150169E-3
560.667801E-3
560.387993E-3
559.858131E-3
559.428978E-3
558.971786E-3
558.596992E-3
558.413887E-3
558.201599E-3
558.005905E-3
557.896042E-3
557.639122E-3
557.504082E-3
557.356453E-3
557.248306E-3
557.211685E-3
557.042313E-3
